26486 26428 26354 25711 26106 26168 26204 26236 26261 26277 26281 26274 26305 26336 26336 26347 26363 26365 26391 26382 26392 26403 26408 26356 26296 26253 26231 26210 26180 26159 26149 26130 26118 26129 26112 26128 26127 26117 26132 26144 26087 26036 25968 25938 25930 25902 25887 25869 25867 25860 25846 25850 25847 25850 25852 25862 25872 25877 25835 25783 25724 25706 25689 25673 25676 25675 25675 25677 25678 25685 25695 25690 25696 25723 25740 25746 25743 25690 25656 25618 25607 25586 25593 25583 25570 25594 25596 25596 25624 25635 25637 25673 25687 25710 25724 25728 25723 25677 25658 25673 25669 25667 25616 25511 25384 25261 25089 24950 24792 24633 24438 24213 23971 23632 23183 22674 22244 21859 21526 21208 20931 20678 20455 20259 20082 19949 19808 19663 19593 19544 19502 19363 19166 19018 18899 18774 18666 18651 18598 18524 18563 18663 18791 18891 18990 19028 19055 19003 18901 18816 18788 18823 18901 19025 19002 18861 18885 18947 18999 19067 19201 19365 19446 19461 19422 19452 19491 19525 19617 19654 19634 19576 19566 19547 19609 19659 19726 19784 19766 19799 19819 19856 19925 19990 20078 20170 20206 20141 20093 20100 20121 20119 20161 20225 20229 20186 20208 20232 20288 20348 20413 20472 20503 20494 20432 20403 20408 20423 20442 20471 20452 20402 20411 20446 20496 20536 20589 20628 20629 20602 20586 20518 20483 20475 20486 20500 20465 20407 20410 20482 20535 20602 20676 20737 20689 20618 20581 20554 20575 20560 20542 20558 20539 20472 20540 20623 20735 20822 20891 20912 20802 20685 20654 20749 20835 20879 20878 20935 20870 20889 20945 21003 21088 21180 21243 21209 21081 21029 21019 21074 21067 21061 21089 21119 21059 21064 21149 21246 21373 21428 21437 21370 21256 21208 21169 21130 21130 21161 21220 21233 21216 21276 21377 21487 21610 21689 21713 21627 21583 21606 21625 21657 21686 21711 21738 21710 21740 21819 21894 21954 21999 21997 21876 21781 21801 21869 21866 21905 21903 21934 21926 21878 21907 21947 21992 22046 22114 22148 22040 21979 21986 21955 21955 21988 22055 22067 22024 22037 22129 22247 22324 22359 22371 22306 22266 22273 22194 22138 22124 22160 22136 22100 22138 22215 22327 22411 22465 22515 22572 22563 22621 22578 22627 22641 22644 22704 22696 22664 22671 22690 22750 22853 22911 22920 22898 22795 22783 22744 22747 22731 22750 22782 22778 22787 22817 22830 22893 22947 22978 22897 22745 22669 22646 22641 22631 22649 22688 22692 22637 22655 22665 22753 22803 22805 22765 22722 22621 22610 22640 22691 22659 22615 22609 22599 22585 22595 22589 22610 22602 22591 22525 22396 22291 22283 22246 22291 22336 22331 22306 22293 22345 22337 22331 22372 22428 22424 22338 22258 22235 22229 22252 22278 22322 22336 22337 22310 22367 22449 22526 22563 22561 22471 22390 22351 22335 22290 22233 22205 22208 22208 22160 22158 22178 22225 22235 22243 22221 22160 22095 22067 22093 22107 22117 22124 22136 22095 22050 21915 21803 21757 21763 21722 21639 21482 21420 21407 21448 21432 21432 21451 21429 21348 21343 21315 21317 21332 21378 21370 21294 21199 21190 21248 21245 21225 21226 21250 21223 21194 21239 21275 21315 21387 21465 21490 21398 21344 21374 21395 21357 21327 21328 21377 21373 21407 21444 21497 21562 21642 21682 21686 21603 21633 21682 21713 21687 21661 21697 21725 21742 21765 21824 21912 21999 22080 22153 22137 22095 22127 22190 22204 22221 22282 22336 22381 22397 22425 22493 22536 22587 22602 22626 22602 22580 22600 22665 22680 22668 22667 22698 22723 22766 22857 22885 22919 22951 23011 23048 23029 23034 23090 23219 23220 23245 23247 23280 23293 23286 23284 23265 23262 23267 23236 23197 23179 23201 23333 23475 23513 23566 23643 23723 23714 23646 23614 23582 23588 23599 23568 23489 23422 23410 23421 23393 23378 23359 23370 23404 23404 23415 23390 23381 23395 23387 23345 23297 23218 23134 23120 23057 23011 22984 23028 23057 23058 23035 23023 23011 23028 22999 22871 22694 22569 22487 22533 22462 22393 22354 22310 22184 22157 22167 22179 22226 22250 22180 22062 21946 21868 21860 21851 21829 21855 21890 21867 21865 21877 21797 21762 21751 21742 21669 21562 21518 21541 21615 21647 21645 21676 21694 21668 21655 21664 21700 21720 21771 21814 21757 21671 21697 21707 21755 21752 21745 21777 21769 21713 21704 21763 21827 21886 21981 22027 21983 21899 21875 21909 21959 21975 21981 21998 22018 21984 22001 22021 22035 22107 22188 22256 22269 22158 22149 22165 22184 22227 22270 22324 22335 22363 22416 22417 22441 22501 22545 22539 22523 22512 22547 22636 22671 22725 22776 22840 22878 22886 22879 22878 22896 22939 22971 22968 22912 22870 22869 22935 23046 23074 23094 23158 23167 23123 23092 23098 23094 23098 23084 23098 23089 23117 23126 23246 23344 23322 23308 23330 23343 23276 23271 23266 23252 23272 23299 23245 23165 23111 23062 23057 23082 23114 23112 23137 23097 23077 23063 23013 22993 23010 22981 22932 22854 22846 22817 22853 22888 22890 22904 22929 22912 22837 22801 22754 22727 22718 22698 22645 22617 22577 22547 22592 22611 22648 22659 22660 22669 22625 22595 22553 22561 22548 22536 22470 22371 22271 22193 22208 22168 22196 22220 22257 22219 22194 22183 22153 22140 22115 22063 21978 21880 21797 21862 21869 21865 21870 21889 21854 21821 21835 21804 21799 21834 21849 21848 21715 21674 21695 21738 21760 21801 21826 21850 21846 21836 21885 21934 22014 22064 22112 22070 21969 21902 21869 21864 21858 21888 21905 21906 21921 21998 22043 22107 22157 22167 22165 22110 22094 22076 22085 22071 22090 22125 22161 22154 22139 22155 22190 22240 22254 22282 22199 22159 22177 22184 22203 22184 22170 22166 22147 22106 22159 22212 22343 22383 22352 22347 22295 22316 22311 22298 22280 22271 22305 22332 22333 22337 22359 22454 22541 22586 22585 22498 22432 22443 22477 22456 22441 22427 22471 22469 22440 22446 22488 22560 22592 22568 22545 22498 22511 22549 22550 22503 22508 22492 22505 22486 22487 22514 22560 22608 22640 22634 22584 22504 22477 22464 22440 22417 22418 22422 22435 22453 22491 22511 22560 22615 22651 22672 22573 22547 22626 22809 22857 22916 22987 23065 23079 23010 22992 22977 22986 23051 23050 23067 23073 23136 23187 23257 23228 23236 23296 23410 23408 23413 23383 23380 23425 23404 23299 23225 23157 23161 23221 23254 23237 23263 23317 23359 23329 23290 23210 23214 23263 23239 23202 23146 23065 23089 23198 23150 23169 23163 23214 23228 23210 23223 23249 23321 23383 23336 23168 23065 23058 23021 22998 23000 23029 23092 23081 23067 23055 23040 23068 23088 23029 23020 22997 23018 23060 23119 23123 23175 23278 23309 23290 23266 23230 23264 23340 23348 23320 23236 23147 23130 23156 23075 23032 23014 23007 22963 22985 22990 22979 22977 22996 22946 22813 22757 22771 22762 22768 22750 22767 22805 22761 22744 22737 22761 22790 22825 22822 22791 22707 22768 22924 23073 23109 23107 23132 23185 23144 23065 23104 23171 23243 23292 23313 23155 23090 23114 23192 23176 23170 23221 23386 23488 23420 23400 23415 23424 23464 23480 23468 23351 23264 23299 23360 23411 23376 23330 23330 23343 23289 23292 23296 23293 23335 23351 23353 23254 23145 23115 23223 23296 23258 23258 23291 23287 23188 23143 23065 23026 23033 23058 23056 22938 22841 22830 22878 22912 22849 22814 22823 22845 22804 22794 22806 22822 22871 22858 22816 22694 22561 22553 22610 22676 22682 22676 22685 22724 22707 22643 22596 22547 22578 22587 22580 22504 22361 22373 22383 22443 22419 22407 22445 22469 22456 22463 22507 22535 22591 22626 22567 22416 22276 22243 22349 22540 22607 22624 22661 22675 22634 22588 22595 22599 22647 22676 22643 22544 22488 22514 22611 22679 22688 22719 22792 22795 22762 22785 22808 22879 22956 22981 22932 22807 22796 22870 22935 22924 22924 22931 22977 22971 22947 22915 22905 22952 22957 22921 22797 22775 22874 22892 22896 22905 22920 22938 22937 22927 22952 22939 22968 23030 23036 23035 22912 22873 22868 22861 22861 22902 22947 22968 23012 22988 22996 22983 22986 23005 23048 23080 23040 23040 23046 23104 23027 23017 23042 23095 23187 23206 23232 23293 23367 23448 23445 23414 23320 23291 23327 23429 23411 23395 23405 23471 23530 23509 23527 23546 23583 23608 23673 23691 23627 23624 23643 23635 23629 23638 23635 23641 23628 23648 23694 23706 23727 23747 23747 23697 23614 23589 23645 23678 23672 23677 23689 23719 23728 23715 23741 23708 23714 23765 23791 23786 23705 23716 23742 23754 23774 23786 23787 23797 23805 23803 23851 23881 23906 23918 23902 23829 23736 23692 23715 23755 23770 23778 23767 23793 23767 23719 23728 23683 23674 23693 23732 23732 23647 23589 23544 23518 23504 23467 23441 23484 23523 23539 23572 23523 23450 23378 23368 23347 23241 23176 23180 23203 23261 23275 23242 23240 23247 23227 23245 23248 23221 23235 23256 23261 23178 23046 22944 22918 22932 22949 22923 22933 22960 22985 22998 22972 22890 22836 22827 22847 22829 22760 22773 22763 22791 22818 22787 22754 22775 22753 22778 22798 22783 22817 22870 22885 22846 22735 22670 22650 22679 22699 22699 22713 22740 22767 22767 22753 22751 22747 22773 22858 22894 22869 22828 22839 22857 22897 22891 22930 22945 22956 22988 22976 23004 23043 23057 23075 23094 23081 23048 22995 22979 23033 23080 23150 23224 23252 23244 23178 23162 23155 23169 23193 23238 23248 23237 23160 23102 23118 23182 23261 23329 23366 23401 23420 23389 23393 23381 23382 23395 23428 23463 23440 23391 23324 23331 23353 23358 23336 23337 23366 23405 23369 23383 23394 23432 23480 23523 23504 23449 23366 23345 23352 23427 23444 23449 23475 23500 23447 23435 23431 23441 23484 23510 23539 23515 23491 23471 23464 23473 23530 23567 23592 23633 23675 23628 23636 23657 23678 23684 23673 23637 23576 23487 23436 23436 23462 23461 23459 23442 23440 23435 23362 23388 23401 23421 23443 23479 23466 23377 23244 23160 23168 23241 23269 23314 23382 23423 23379 23342 23256 23175 23132 23088 23055 23034 22982 22923 22899 22902 22868 22840 22803 22787 22779 22762 22756 22746 22749 22754 22735 22695 22631 22544 22520 22503 22545 22616 22630 22637 22649 22575 22524 22514 22521 22532 22568 22604 22585 22523 22477 22443 22421 22409 22390 22395 22400 22435 22413 22427 22430 22379 22343 22313 22276 22167 22099 22074 22050 22052 22102 22075 22035 22033 22100 22023 21992 21996 22019 22112 22244 22368 22545 22784 23007 23154 23322 23478 23631 23772 23897 24053 24216 24340 24450 24550 24664 24741 24811 24871 24946 25011 25076 25139 25220 25287 25360 25413 25459 25475 25526 25565 25581 25632 25675 25698 25744 25770 25808 25836 25863 25902 25908 25942 25971 26007 26053 26071 26107 26131 26123 26146 26164 26181 26195 26201 26229 26229 26229 26244 26227 26243 26237 26160 26154 26164 26179 26203 26203 26242 26318 26260 26210 26225 26261 26273 26289 26315 26319 26346 26366 26402 26430 26447 26467 26506 26526 26544 26570 26605 26624 26643 26656 26664 26664 26675 26684 26669 26682 26683 26647 26618 26598 26567 26533 26456 26411 26340 26317 26249 26239 26193 26134 26073 25998 25933 25867 25816 25743 25676 25623 25584 25481 25312 25132 24959 24809 24674 24576 24472 24357 24245 24052 23881 23706 23554 23443 23322 23178 23056 22957 22831 22621 22383 22163 22005 21896 21824 21764 21674 21568 21421 21224 21020 20849 20719 20639 20572 20505 20426 20355 20257 20086 19916 19829 19822 19809 19796 19786 19773 19787 19704 19598 19533 19494 19517 19523 19538 19573 19616 19615 19508 19361 19272 19241 19243 19250 19268 19283 19322 19360 19267 19143 19093 19125 19166 19243 19308 19376 19427 19474 19417 19350 19332 19340 19362 19385 19412 19441 19486 19487 19415 19327 19297 19307 19378 19432 19491 19507 19548 19557 19494 19480 19503 19565 19630 19687 19715 19752 19779 19763 19657 19593 19575 19610 19639 19649 19683 19722 19768 19811 19785 19737 19732 19760 19809 19867 19949 20032 20083 20148 20130 20113 20109 20130 20143 20169 20194 20238 20262 20267 20228 20190 20171 20202 20247 20294 20341 20372 20419 20450 20443 20435 20447 20462 20505 20518 20559 20585 20604 20620 20630 20612 20599 20589 20588 20594 20606 20612 20689 20759 20803 20803 20809 20828 20848 20887 20952 21025 21093 21114 21160 21179 21177 21186 21177 21208 21223 21238 21251 21246 21272 21262 21254 21284 21308 21354 21393 21421 21461 21500 21527 21588 21609 21609 21634 21652 21679 21700 21727 21731 21747 21750 21752 21733 21697 21679 21677 21674 21706 21749 21783 21792 21806 21767 21706 21671 21676 21705 21837 22048 22271 22504 22709 22904 23113 23331 23512 23689 23879 24047 24159 24286 24430 24610 24764 24907 25032 25159 25263 25347 25449 25536 25603 25674 25726 25786 25815 25864 25899 25896 25914 25925 25947 25969 26004 26011 26019 26005 26023 26032 26050 26064 26079 26095 26113 26122 26138 26140 26166 26188 26210 26205 26213 26224 26243 26246 26277 26273 26277 26296 26321 26342 26353 26351 26367 26357 26384 26388 26406 26437 26454 26478 26494 26533 26545 26557 26562 26584 26596 26630 26648 26692 26693 26719 26755 26771 26796 26797 26837 26821 26853 26886 26913 26924 26935 26953 26950 26979 26962 26952 26930 26890 26846 26815 26754 26731 26693 26670 26620 26582 26538 26498 26476 26457 26445 26402 26336 26227 26120 26026 25907 25783 25731 25736 25794 25869 25928 25995 26057 26100 26143 26196 26222 26283 26321 26371 26421 26460 26515 26545 26565 26597 26635 26650 26691 26726 26734 26769 26809 26830 26848 26844 26825 26853 26891 26933 26959 26998 27033 27050 27079 27097 27099 27119 27141 27147 27166 27194 27218 27248 27246 27284 27283 27304 27326 27335 27371 27396 27400 27415 27444 27482 27476 27475 27484 27480 27503 27522 27510 27528 27527 27523 27545 27536 27538 27541 27541 27573 27582 27576 27593 27598 27625 27622 27620 27632 27637 27631 27654 27655 27673 27673 27678 27688 27679 27676 27686 27682 27719 27710 27734 27747 27747 27761 27779 27791 27765 27794 27796 27808 27814 27811 27807 27808 27823 27835 27824 27819 27831 27811 27822 27819 27822 27831 27831 27832 27842 27838 27847 27835 27854 27836 27870 27876 27869 27887 27879 27886 27854 27826 27788 27717 27641 27590 27507 27420 27323 27239 27134 26879 26556 26303 26131 25968 25837 25709 25562 25380 25170 24949 24580 24169 23852 23585 23431 23293 23203 23114 22986 22825 22594 22252 21926 21680 21511 21398 21306 21162 21050 20992 20948 20960 20864 20788 20734 20681 20616 20576 20527 20495 20481 20496 20443 20308 20140 20035 19973 19998 20006 19985 19999 20028 20010 20026 19996 19942 19906 19921 19968 19941 19889 19872 19824 19800 19808 19816 19809 19824 19749 19728 19697 19741 19825 19893 19952 19904 19825 19779 19754 19735 19741 19755 19821 19862 19871 19932 19993 20052 20128 20212 20282 20364 20345 20336 20379 20374 20414 20428 20458 20501 20509 20511 20584 20668 20741 20841 20908 20926 20817 20710 20664 20677 20721 20726 20744 20784 20768 20785 20846 20906 20943 20968 20977 20982 20964 20968 20975 20954 20957 20953 20972 20972 20959 20949 20988 21051 21160 21304 21408 21441 21398 21402 21425 21399 21432 21472 21489 21505 21508 21493 21530 21632 21746 21831 21883 21906 21942 21899 21927 21960 22004 22078 22096 22130 22186 22163 22149 22181 22216 22250 22304 22337 22356 22277 22254 22271 22300 22344 22339 22346 22402 22448 22392 22389 22432 22496 22574 22619 22628 22623 22554 22605 22621 22661 22669 22674 22692 22737 22736 22640 22644 22645 22658 22674 22678 22691 22680 22632 22614 22598 22601 22627 22585 22603 22592 22548 22552 22540 22592 22655 22758 22843 22872 22870 22794 22775 22758 22802 22826 22883 22911 22964 22969 22916 22889 22897 22921 22934 22940 22896 22838 22761 22763 22740 22762 22754 22712 22692 22635 22585 22584 22634 22655 22684 22705 22683 22658 22596 22560 22569 22671 22762 22827 22925 22950 22853 22795 22716 22646 22580 22566 22557 22508 22475 22472 22443 22467 22458 22410 22410 22396 22360 22356 22374 22390 22420 22450 22435 22369 22252 22158 22113 22114 22129 22166 22197 22202 22170 22172 22234 22237 22212 22198 22209 22203 22155 22124 22072 22090 22097 22100 22137 22137 22164 22261 22363 22444 22544 22604 22616 22608 22534 22483 22434 22459 22463 22405 22405 22473 22506 22492 22454 22425 22428 22438 22441 22400 22306 22197 22184 22227 22260 22278 22298 22333 22344 22289 22227 22217 22190 22205 22227 22159 22070 21984 21965 21998 21959 21955 21937 21942 21981 21929 21939 21932 21930 21954 22001 21991 21916 21876 21858 21926 21926 21924 21950 21970 21959 21935 21929 21927 21937 21961 21981 21998 21980 21917 21909 21910 21935 21892 21853 21842 21863 21881 21848 21877 21943 22005 22080 22111 22136 22077 22006 21997 22019 22050 22031 22024 22039 22058 22030 21954 21933 21942 21952 21994 22034 22005 21927 21906 21947 22009 21984 21958 21937 21957 21969 21932 21990 22052 22102 22132 22158 22144 22035 21982 22018 22128 22138 22160 22161 22222 22264 22271 22274 22328 22402 22488 22568 22605 22565 22519 22520 22546 22540 22573 22627 22643 22679 22688 22689 22725 22753 22833 22930 22981 23004 22889 22893 22887 22888 22874 22866 22879 22908 22917 22906 22927 22917 22945 23016 23047 23062 22991 22962 22946 22956 22938 22904 22880 22857 22843 22829 22858 22878 22898 22976 23005 22955 22855 22774 22728 22804 22842 22828 22829 22831 22835 22747 22682 22568 22507 22491 22497 22515 22471 22376 22357 22324 22274 22206 22141 22130 22101 22072 22062 22060 22070 22100 22138 22110 22046 21898 21810 21779 21786 21754 21764 21772 21790 21754 21695 21655 21607 21583 21592 21602 21649 21588 21523 21520 21505 21483 21438 21394 21407 21417 21404 21379 21420 21433 21471 21472 21468 21430 21345 21286 21299 21349 21340 21335 21358 21363 21353 21314 21309 21294 21291 21330 21396 21448 21364 21289 21286 21288 21282 21261 21226 21210 21225 21198 21183 21258 21302 21350 21404 21476 21533 21489 21417 21433 21475 21508 21508 21513 21518 21528 21501 21499 21594 21690 21764 21842 21925 21942 21829 21719 21718 21723 21733 21737 21732 21748 21773 21779 21731 21798 21973 22148 22271 22365 22427 22411 22395 22426 22511 22542 22518 22526 22529 22496 22455 22412 22479 22525 22588 22621 22624 22583 22536 22520 22529 22606 22640 22645 22630 22642 22651 22636 22573 22545 22551 22599 22645 22680 22669 22678 22685 22668 22687 22704 22723 22753 22774 22770 22752 22802 22849 22890 22910 22912 22891 22860 22847 22858 22918 22930 22943 22934 22945 23004 22923 22892 22879 22860 22892 22903 22851 22744 22651 22595 22641 22621 22603 22654 22694 22786 22739 22707 22641 22546 22463 22446 22427 22370 22264 22203 22229 22228 22193 22181 22172 22155 22143 22154 22148 22116 22147 22166 22217 22142 21991 21856 21805 21881 21929 21941 21948 21964 21994 21989 21891 21834 21788 21775 21789 21807 21729 21670 21706 21773 21787 21765 21749 21777 21820 21895 21853 21878 21930 21998 22002 21988 21935 21843 21847 21918 21926 21957 22010 22078 22098 22103 22041 21945 21868 21879 21889 21890 21783 21697 21726 21728 21721 21740 21742 21770 21833 21858 21829 21855 21902 21943 21958 21960 21944 21936 21953 21980 22044 22128 22143 22113 22105 22071 22045 22002 21996 22031 22103 22140 22169 22083 21982 21964 22056 22043 22017 22015 22022 22034 22021 21964 22016 22056 22090 22122 22121 22051 22011 22020 22054 22024 21998 21979 21977 22009 22018 22001 22040 22077 22129 22215 22207 22191 22127 22124 22134 22130 22126 22129 22138 22149 22146 22130 22189 22230 22317 22374 22393 22404 22363 22359 22389 22424 22443 22434 22409 22435 22428 22392 22429 22475 22539 22599 22681 22704 22669 22581 22571 22554 22522 22505 22511 22499 22470 22438 22424 22438 22475 22508 22594 22665 22694 22610 22595 22565 22574 22589 22589 22600 22600 22632 22612 22628 22611 22585 22589 22565 22495 22424 22326 22295 22353 22364 22333 22308 22293 22314 22324 22270 22307 22344 22397 22425 22434 22419 22350 22264 22238 22297 22323 22309 22303 22310 22306 22245 22235 22274 22338 22383 22437 22459 22414 22322 22211 22200 22161 22183 22215 22266 22306 22321 22311 22308 22279 22300 22321 22325 22304 22236 22199 22239 22270 22261 22237 22229 22260 22287 22256 22309 22349 22389 22486 22530 22520 22462 22383 22331 22368 22343 22344 22372 22424 22442 22410 22368 22310 22301 22277 22285 22284 22232 22159 22109 22098 22132 22173 22183 22172 22170 22188 22157 22166 22176 22176 22175 22200 22205 22195 22183 22167 22239 22342 22370 22385 22420 22528 22586 22683 22838 22998 23177 23343 23490 23639 23831 24050 24278 24475 24646 24796 24937 25061 25181 25320 25386 25453 25498 25510 25532 25592 25677 25741 25799 25877 25926 26029 26118 26191 26221 26237 26249 26276 26272 26287 26283 26291 26291 26309 26355 26388 26447 26502 26530 26650 26746 26769 26744 26777 26775 26788 26783 26786 26788 26789 26820 26866 26884 26925 26990 27154 27235 27276 27283 27277 27271 27279 27275 27278 27270 27267 27277 27290 27301 27315 27333 27349 27347 27373 27386 27442 27438 27439 27429 27417 27402 27395 27379 27374 27344 27291 27254 27241 27242 27190 27166 27164 27127 27042 26993 26992 26966 26821 26715 26592 26409 26238 26128 26008 25954 25921 25880 25830 25728 25603 25467 25326 25185 25047 24922 24799 24688 24587 24340 24077 23831 23710 23588 23460 23367 23298 23244 23102 22867 22625 22367 22168 22049 21972 21929 21850 21740 21618 21448 21346 21229 21145 21109 21100 21099 21081 21120 21095 20999 20933 20906 20912 20943 20888 20828 20816 20794 20771 20655 20602 20584 20599 20576 20590 20642 20665 20682 20664 20648 20637 20564 20457 20444 20462 20462 20473 20505 20525 20498 20452 20464 20519 20557 20620 20675 20746 20823 20715 20583 20525 20538 20514 20545 20574 20612 20639 20615 20649 20696 20697 20750 20816 20886 20931 20896 20888 20899 20898 20880 20860 20872 20907 20929 20930 20990 21103 21197 21236 21262 21277 21318 21285 21219 21263 21292 21359 21366 21341 21331 21348 21354 21332 21412 21489 21583 21634 21663 21686 21617 21533 21512 21547 21598 21587 21582 21612 21625 21613 21576 21615 21655 21701 21752 21817 21862 21839 21801 21777 21750 21754 21740 21717 21722 21740 21731 21699 21807 21861 21887 21927 21962 22003 21996 21960 21982 21985 22035 22013 21988 21987 21985 21992 21996 22031 22113 22186 22228 22275 22280 22257 22197 22188 22192 22227 22214 22196 22215 22213 22178 22161 22226 22281 22305 22334 22358 22396 22415 22334 22284 22241 22242 22238 22244 22222 22235 22239 22199 22203 22227 22242 22252 22273 22290 22337 22341 22285 22297 22276 22280 22262 22246 22248 22268 22257 22222 22235 22285 22337 22341 22350 22349 22379 22316 22220 22219 22211 22263 22251 22197 22173 22156 22169 22126 22159 22196 22219 22250 22268 22240 22203 22076 21959 21928 21927 21948 21935 21952 21958 21935 21873 21838 21873 21896 21939 21963 21974 22013 22029 21852 21771 22091 22129 22170 22217 22214 22209 22225 22189 22182 22347 22405 22372 22349 22316 22329 22333 22323 22245 22213 22391 22596 22752 22771 22785 22808 22817 22861 22883 22917 22967 23068 23182 23284 23365 23461 23585 23799 24021 24273 24508 24725 24908 25065 25192 25286 25364 25461 25568 25647 25721 25760 25771 25743 25762 25813 25867 25905 25949 25986 26037 26070 26103 26137 26169 26216 26258 26300 26330 26340 26355 26379 26402 26414 26443 26484 26500 26514 26540 26564 26576 26554 26532 26534 26532 26543 26564 26565 26598 26611 26607 26628 26635 26618 26629 26649 26663 26672 26705 26713 26729 26736 26728 26745 26769 26773 26793 26817 26821 26855 26865 26889 26885 26903 26911 26930 26943 26956 26966 26994 27017 27006 27016 27013 27050 27053 27069 27076 27108 27118 27125 27132 27122 27131 27145 27141 27152 27168 27162 27164 27173 27167 27154 27157 27157 27181 27183 27205 27214 27214 27216 27226 27228 27219 27217 27214 27231 27246 27258 27270 27274 27279 27256 27185 27102 27077 27092 27087 27069 27071 27069 27088 27032 26975 26955 26967 26970 26970 26979 26976 26992 26992 27004 27022 27053 27069 27101 27147 27185 27225 27258 27275 27315 27323 27338 27382 27429 27452 27500 27528 27557 27579 27579 27581 27583 27561 27578 27581 27592 27596 27612 27614 27626 27649 27649 27674 27692 27711 27696 27666 27662 27673 27688 27655 27642 27631 27664 27672 27637 27645 27686 27722 27758 27754 27706 27669 27630 27623 27629 27624 27621 27605 27567 27558 27596 27634 27690 27686 27628 27619 27633 27660 27696 27705 27695 27681 27693 27709 27762 27766 27741 27713 27738 27772 27800 27829 27785 27720 27676 27681 27716 27766 27796 27786 27772 27774 27755 27765 27766 27769 27785 27771 27788 27833 27866 27866 27896 27895 27869 27861 27904
32 33 33 33 33 33 33 33 32 32 36 35 33 33 33 33 33 33 33 33 33 33 33 33 33 33 33 33 33 33 33 33 33 33 33 33 33 33 33 33 33 33 33 33 33 33 33 33 33 33 33 33 33 33 33 33 33 33 34 34 33 33 33 33 33 33 33 33 33 33 33 33 33 33 33 33 33 33 33 33 33 33 33 33 33 33 34 33 33 32 33 33 32 33 33 33 33 32 30 29 27 24 23 29 31 28 29 32 36 42 40 38 38 40 38 35 34 33 33 36 38 39 39 40 41 41 38 33 28 25 22 22 24 30 41 47 51 54 49 46 41 34 29 27 24 75 78 62 36 21 22 21 28 70 101 75 41 37 43 36 29 42 89 101 73 36 24 33 33 42 82 93 67 31 33 48 62 94 101 76 42 22 29 33 38 49 92 101 65 40 44 48 41 42 77 100 84 47 25 26 33 36 51 87 94 44 45 42 35 43 80 100 80 42 22 30 35 41 62 88 82 55 47 45 44 38 43 81 96 65 31 18 30 40 50 79 45 40 41 42 39 69 104 91 51 29 36 42 41 66 111 100 60 42 40 41 36 46 93 100 62 27 25 40 42 48 69 45 40 41 37 37 71 104 92 51 29 42 46 45 67 111 102 64 54 47 44 36 46 93 106 75 38 36 52 57 100 115 71 39 40 47 43 45 76 99 98 52 32 51 54 49 106 122 71 38 41 42 40 41 65 93 83 53 30 22 43 122 105 46 39 41 36 36 63 94 87 64 36 35 44 37 38 112 119 61 37 43 43 41 49 80 81 60 29 26 40 94 113 66 36 28 31 34 31 65 104 87 43 20 33 42 41 67 101 90 47 33 44 50 43 56 86 91 60 29 21 46 48 112 114 63 40 40 42 41 41 76 116 95 54 32 43 51 45 54 112 110 60 41 42 51 45 47 95 110 70 33 44 86 125 90 46 45 50 45 39 56 86 84 50 25 32 45 42 59 100 92 50 37 37 39 38 47 74 89 74 44 39 48 86 95 57 43 42 48 43 43 66 91 78 46 26 33 42 42 79 101 76 46 40 38 36 37 56 93 92 63 29 43 40 49 101 104 54 34 34 39 40 36 69 105 90 50 24 33 42 39 79 106 82 51 45 43 37 28 35 73 89 17 32 40 38 91 113 67 36 38 38 42 39 63 80 71 51 27 22 35 33 55 99 90 53 37 34 37 39 42 65 46 25 37 48 40 69 116 85 49 40 42 43 36 45 83 93 61 29 18 31 35 43 84 99 67 45 38 38 39 34 79 89 59 32 26 40 41 54 102 94 55 40 39 41 38 37 72 102 77 44 25 41 42 38 81 105 77 41 37 36 36 89 75 44 22 29 40 39 80 107 75 42 36 34 36 38 50 77 86 64 39 24 47 50 51 101 107 64 34 33 36 55 98 95 56 25 33 45 41 76 117 87 40 33 37 39 36 46 89 96 70 37 21 43 41 44 100 110 64 39 40 40 65 92 78 42 21 34 40 35 63 95 91 49 37 35 38 35 46 73 85 58 24 10 29 34 40 88 110 77 38 36 41 37 56 82 88 61 28 15 31 36 41 91 114 77 39 39 38 39 34 49 81 87 57 28 17 32 34 37 89 111 42 40 38 39 52 75 76 49 25 26 36 35 58 103 95 57 44 41 36 30 39 73 92 73 42 18 31 37 36 61 47 35 38 42 41 46 77 107 80 35 21 32 33 43 75 96 73 50 45 36 41 37 44 76 87 62 33 18 33 36 100 104 63 36 38 41 39 39 66 90 74 43 21 25 35 33 65 106 83 41 35 35 35 37 48 74 92 77 43 27 36 57 98 96 57 50 50 49 40 47 80 91 59 35 27 40 40 46 97 110 72 35 43 52 47 41 57 83 85 52 29 48 71 118 107 63 54 50 41 29 36 80 103 74 36 26 44 49 53 108 121 71 50 51 48 41 37 68 111 99 57 41 47 42 66 124 102 48 43 45 45 43 63 97 99 59 30 30 42 41 54 107 116 71 45 48 51 43 44 76 98 80 41 51 50 108 129 85 40 37 38 39 42 70 116 110 65 38 45 50 47 94 139 106 47 49 52 48 43 48 73 93 32 45 43 68 110 89 46 38 42 47 41 48 83 95 66 36 27 35 33 49 90 96 63 44 46 48 43 35 54 96 62 31 31 41 38 57 109 103 48 34 37 44 43 43 78 113 92 50 27 40 44 45 101 126 77 41 40 43 54 56 61 70 34 30 48 54 76 140 112 58 55 61 59 45 45 94 120 79 46 39 55 54 63 86 98 65 46 47 53 50 39 111 63 39 47 53 38 48 93 97 57 18 35 46 39 51 84 86 51 27 27 48 50 80 126 88 48 48 48 43 38 102 109 64 37 44 54 46 60 108 106 58 38 43 50 45 50 81 103 81 48 30 41 50 47 83 125 96 46 48 58 51 118 81 40 15 28 42 38 77 127 92 37 29 46 49 38 57 117 118 69 36 45 57 50 54 119 116 62 31 32 42 107 133 82 35 49 54 47 69 121 105 58 45 43 42 42 39 64 102 89 49 21 26 41 41 50 123 114 55 36 38 49 43 67 114 91 45 21 38 44 44 69 121 100 52 37 41 43 40 38 69 103 88 50 22 30 42 45 64 112 98 51 47 44 39 72 107 87 46 26 36 42 37 73 110 88 50 33 31 35 40 39 77 118 94 50 27 39 46 40 53 119 33 33 39 42 42 73 108 87 46 23 34 42 36 69 104 83 48 36 35 40 38 43 70 89 71 35 22 38 40 42 104 75 41 34 36 38 38 60 90 81 49 24 27 42 43 74 118 86 43 36 41 42 37 48 83 90 68 45 35 49 53 97 48 48 42 34 29 38 71 99 80 46 23 25 38 39 55 113 101 51 31 40 45 40 38 69 108 85 46 14 22 79 126 102 57 45 50 52 42 33 79 116 97 55 28 40 52 47 68 118 99 56 45 45 49 44 42 79 111 91 49 38 44 41 86 122 82 39 39 41 43 38 37 73 105 77 42 21 35 45 41 96 126 80 33 38 44 44 40 42 79 103 18 33 36 37 99 119 69 29 33 31 34 37 49 93 103 59 26 19 34 39 48 95 111 71 35 33 35 40 38 44 53 28 29 44 42 48 104 106 62 37 36 44 48 41 64 99 94 55 23 25 41 41 50 106 109 65 31 30 35 42 62 105 103 54 25 27 39 39 44 90 106 70 39 33 35 41 36 41 80 100 64 37 20 35 39 47 91 105 62 31 28 36 49 98 99 65 37 23 36 40 41 78 105 78 45 33 33 36 36 30 46 93 96 62 33 23 40 45 47 92 104 28 24 30 34 37 75 99 75 43 22 28 35 35 48 87 94 63 39 32 31 31 29 42 82 89 65 34 21 33 37 85 104 70 46 43 40 36 30 40 91 102 67 37 22 24 28 37 46 63 80 58 40 39 44 41 33 50 79 84 60 34 30 37 54 77 80 62 49 49 49 40 53 82 89 61 32 19 22 28 35 56 77 80 58 48 41 42 41 35 57 91 33 23 28 29 33 61 89 77 54 45 43 39 32 35 68 87 74 45 26 22 27 32 50 65 76 66 53 47 41 33 74 83 56 30 18 22 25 38 63 82 69 46 37 35 36 35 33 61 82 72 47 25 15 21 27 47 73 77 55 40 33 37 34 53 80 83 61 37 24 28 34 45 70 81 62 46 36 28 29 30 35 73 93 82 52 33 26 33 43 63 89 64 47 40 52 53 49 74 95 85 63 47 33 25 24 32 39 40 45 39 32 27 22 21 23 28 34 40 42 43 39 23 21 23 28 33 37 41 42 46 44 37 31 26 23 23 25 29 34 39 40 41 39 39 36 32 27 24 23 27 31 36 38 38 37 39 39 37 35 34 34 32 29 27 28 33 37 30 32 33 35 31 29 23 23 24 30 27 37 43 44 43 30 28 26 27 29 31 34 38 39 37 37 35 33 28 24 22 21 19 19 21 23 27 37 51 58 64 64 58 50 46 43 42 46 48 44 47 48 49 47 43 39 36 34 32 29 28 32 36 40 48 53 51 45 40 38 36 35 38 41 46 44 51 56 56 52 47 41 36 32 27 27 29 38 41 47 54 55 51 47 46 46 46 46 46 49 45 41 47 55 57 54 45 41 35 32 36 43 45 48 56 57 53 48 44 41 40 42 45 44 47 44 46 57 63 61 54 49 46 43 37 32 38 40 48 54 54 48 45 45 45 46 47 46 45 44 40 47 57 57 51 46 43 40 35 32 31 33 39 41 44 52 44 37 34 36 37 42 45 43 48 45 45 53 55 52 46 41 38 34 34 36 33 37 37 40 49 52 46 40 38 38 42 48 46 41 49 55 55 49 43 40 37 34 32 34 34 40 38 45 49 48 42 38 38 39 43 51 51 48 46 41 49 48 43 41 38 34 32 34 36 39 35 40 49 50 46 40 40 42 44 46 48 47 46 41 43 53 55 54 48 43 39 30 31 35 35 39 39 45 50 49 44 38 37 37 39 43 45 48 47 43 50 60 61 55 49 44 42 36 29 28 26 28 36 36 33 29 27 24 25 27 33 36 39 40 37 36 36 33 30 26 24 25 27 30 33 35 40 41 41 41 38 34 24 27 31 35 38 41 42 40 37 33 31 26 24 24 25 26 31 36 40 43 42 41 37 34 29 26 26 25 28 33 41 41 39 35 32 28 25 25 25 27 31 36 39 43 43 40 36 33 28 26 25 26 29 32 36 38 39 39 39 37 29 25 24 25 30 37 44 50 53 48 46 40 30 25 19 15 14 17 21 33 42 44 39 36 34 32 27 26 25 19 20 34 46 51 52 49 43 37 33 28 26 27 29 31 39 42 42 40 37 34 31 27 25 24 26 28 33 36 38 43 65 37 34 28 25 25 26 29 34 37 38 39 37 36 35 34 31 28 25 26 27 31 34 36 39 41 39 38 35 32 28 27 27 30 33 35 40 41 39 38 36 34 31 27 25 25 27 31 36 38 42 41 40 39 34 31 26 25 25 29 32 34 38 37 36 35 33 30 27 24 25 27 30 34 36 40 40 37 37 33 31 29 27 28 30 32 35 37 40 41 40 38 29 27 25 25 24 25 28 32 39 44 44 41 37 33 27 24 22 21 24 31 38 43 49 48 45 44 38 28 21 18 23 26 33 41 42 43 54 69 64 52 39 37 36 29 20 28 66 101 90 56 25 19 26 31 37 68 98 82 53 41 38 32 61 84 83 52 30 27 32 36 46 78 90 69 42 36 39 36 45 73 85 75 50 28 28 38 38 64 96 90 55 35 31 31 51 76 79 56 28 20 32 38 55 83 86 61 45 45 41 35 35 60 84 85 52 27 25 34 35 46 83 69 45 39 40 36 33 60 87 81 49 24 22 31 36 52 82 89 64 46 39 39 35 34 55 74 75 50 25 23 31 35 90 65 47 40 37 37 30 52 85 89 67 31 23 36 36 44 81 86 62 46 38 34 34 31 50 80 82 54 29 19 31 67 97 79 53 44 39 38 33 36 86 101 72 37 15 24 32 33 67 103 85 50 38 33 36 35 32 58 89 85 36 34 45 40 39 90 105 63 42 36 35 35 31 41 93 106 64 33 17 23 28 31 43 62 90 74 50 38 40 38 33 103 101 54 26 27 40 41 38 97 112 69 43 37 37 37 34 50 78 99 79 45 31 37 38 37 63 100 82 51 38 39 40 76 93 75 44 22 28 33 32 64 91 69 45 37 33 37 36 44 88 97 67 34 21 30 34 34 71 102 81 37 35 38 33 47 82 92 63 36 21 30 35 39 70 92 67 50 46 43 38 33 36 65 83 74 43 26 32 34 37 62 41 35 36 41 38 55 87 91 61 32 23 29 31 38 64 94 75 46 37 32 36 35 31 56 84 84 56 29 24 36 88 93 56 36 32 36 36 33 64 94 88 50 26 28 37 35 57 90 78 51 42 35 33 34 45 78 98 70 35 22 45 70 99 86 51 34 33 35 31 32 71 110 97 52 28 29 36 34 45 81 95 64 40 33 34 37 34 41 69 90 49 26 25 35 35 49 90 87 58 39 37 38 35 32 57 84 89 59 28 19 29 33 44 83 87 63 38 32 37 41 39 88 62 38 20 27 32 34 71 103 78 43 36 40 43 38 44 75 93 72 45 25 31 40 43 73 99 77 47 41 38 42 69 86 77 49 26 24 32 34 47 91 90 56 42 39 41 39 34 63 95 84 52 26 18 31 34 48 84 89 58 36 34 31 29 54 93 86 50 23 22 32 34 56 89 87 53 33 31 33 34 33 55 79 83 55 29 21 28 31 45 79 32 33 33 33 31 48 86 97 67 37 20 27 36 32 68 102 77 44 35 33 31 29 38 81 97 73 44 23 24 31 92 103 68 36 30 33 35 31 47 86 92 60 35 17 24 30 33 67 99 85 47 33 32 33 33 36 65 94 81 53 23 34 35 52 92 89 58 36 32 30 33 31 42 90 107 78 44 23 31 35 31 51 99 94 60 42 35 32 33 30 49 61 31 20 31 33 29 50 88 83 56 39 28 23 19 22 34 40 88 126 102 49 35 41 33 47 93 91 53 42 36 28 55 90 95 58 30 21 31 36 41 76 103 71 43 32 27 30 30 34 70 92 70 40 21 23 34 33 66 98 76 36 31 28 27 33 66 94 81 50 26 26 34 33 51 88 87 51 37 32 32 37 36 58 96 95 58 33 25 36 37 42 60 37 36 38 37 39 63 89 77 57 38 22 29 35 35 59 108 88 51 29 34 39 36 30 52 99 96 58 34 19 41 78 95 66 36 31 30 37 34 43 89 91 61 33 20 32 33 47 103 97 53 28 29 34 38 40 76 104 84 46 32 44 42 60 122 105 61 42 39 40 38 31 69 109 79 46 18 31 39 36 77 120 82 31 27 26 30 39 46 64 96 18 27 37 35 60 96 94 52 28 30 34 35 35 56 95 101 65 38 28 42 43 38 89 122 75 42 34 36 39 34 116 83 44 25 33 41 34 88 113 75 37 36 46 51 40 57 97 102 70 38 17 37 53 46 68 110 103 54 35 35 34 70 98 80 46 21 25 32 34 53 79 84 55 36 28 27 33 30 56 100 93 54 29 20 32 32 39 78 101 64 39 37 38 32 35 77 95 63 34 12 20 26 31 73 101 68 36 25 21 26 30 40 75 93 74 43 24 30 34 32 63 43 36 33 34 38 34 43 89 104 69 44 27 32 37 33 63 106 85 48 31 29 45 47 41 79 119 96 53 31 39 72 116 84 40 27 31 37 41 47 92 119 85 43 23 32 46 44 57 87 90 58 39 30 33 42 36 55 95 102 80 27 36 41 36 62 106 80 48 41 41 39 31 40 81 101 76 47 23 23 27 29 42 71 79 54 40 33 25 25 24 31 68 44 23 12 14 23 49 73 67 49 42 37 36 34 40 53 43 44 39 25 19 19 26 36 51 59 49 35 23 17 32 44 56 59 46 29 19 19 27 38 44 50 41 29 28 35 35 35 43 45 47 43 33 23 21 30 43 55 58 48 26 19 21 23 32 40 43 47 42 31 21 18 25 37 55 55 43 29 23 21 43 30 38 44 51 46 33 21 17 21 32 50 39 28 20 18 21 29 40 44 48 42 30 19 14 16 24 35 62 77 67 55 50 46 42 40 71 91 79 56 33 33 29 84 114 80 50 37 32 31 33 33 71 105 86 53 32 26 33 33 29 65 110 85 49 34 34 37 36 32 75 97 56 32 25 30 30 29 58 89 86 64 44 33 33 39 38 41 83 107 79 46 26 22 28 29 26 62 106 86 56 38 37 33 49 89 105 74 42 21 28 37 37 60 127 103 57 42 43 42 39 33 56 100 97 63 36 26 35 37 36 86 46 34 35 37 36 36 78 119 94 53 28 25 35 39 37 93 121 80 43 33 32 34 36 37 72 113 101 60 38 30 38 33 57 128 103 58 35 32 31 35 29 48 107 116 72 43 27 34 39 36 63 110 98 59 38 37 35 33 28 53 101 36 20 31 37 34 62 100 90 55 37 30 34 40 32 47 95 109 69 38 23 30 36 34 54 96 95 57 37 34 34 47 102 104 64 38 21 27 34 32 57 110 90 53 37 34 34 40 38 61 107 103 62 36 16 15 21 23 29 109 111 27 29 34 31 29 66 112 91 51 31 19 24 28 26 47 109 93 59 38 31 28 28 26 27 70 115 102 58 36 25 33 32 67 118 88 55 33 29 31 37 33 35 83 121 93 52 32 30 42 39 33 87 119 77 44 34 28 29 35 36 62 64 36 20 26 32 29 25 107 122 69 45 37 33 31 31 33 42 89 122 94 56 48 41 38 47 52 45 56 99 97 65 63 60 54 50 49 76 104 109 97 74 53 40 28 22 24 26 27 34 39 42 39 33 28 25 25 25 27 31 36 37 39 41 38 32 26 23 22 24 27 30 33 38 44 49 49 42 33 27 23 22 25 27 34 38 40 41 41 39 37 30 23 25 30 34 38 42 43 43 39 34 29 25 24 25 27 30 35 37 38 42 41 39 37 33 27 24 23 24 26 32 42 41 41 39 33 29 26 25 27 28 30 34 37 39 37 37 37 35 29 24 22 24 26 29 36 40 43 43 42 40 32 27 26 25 25 28 33 37 41 42 39 37 37 34 29 25 22 21 21 23 28 36 48 51 51 46 37 33 32 30 30 42 50 53 49 45 42 37 31 24 17 17 21 27 33 37 39 40 39 34 30 27 25 25 27 28 32 36 39 39 38 34 30 27 25 25 26 31 37 39 42 44 41 38 33 28 23 23 25 28 31 36 38 37 38 39 40 38 33 27 24 25 30 33 37 43 44 41 39 36 30 26 23 24 28 31 33 37 38 37 37 37 36 34 29 25 23 24 27 31 35 40 41 39 35 29 26 23 24 27 31 35 40 42 39 37 37 36 32 28 23 27 27 26 34 44 40 44 45
