28481 28324 28297 28295 28238 28139 28050 27973 27876 27871 12209 12225 12221 12212 12239 12249 12270 12272 12284 12291 12297 12305 12306 12304 12302 12323 12335 12336 12298 12268 12233 12200 12190 12170 12165 12157 12141 12132 12124 12114 12116 12118 12107 12115 12109 12090 12056 12035 11996 11969 11965 11939 11927 11913 11896 11893 11887 11872 11874 11876 11876 11877 11874 11883 11865 11834 11797 11778 11746 11751 11718 11712 11707 11699 11686 11680 11688 11699 11691 11695 11698 11696 11701 11702 11678 11644 11613 11598 11581 11591 11571 11571 11565 11550 11563 11555 11554 11571 11567 11564 11585 11584 11596 11591 11567 11546 11517 11504 11486 11492 11475 11476 11464 11459 11464 11469 11462 11460 11466 11469 11467 11467 11458 11435 11397 11366 11344 11330 11307 11301 11302 11288 11286 11283 11288 11293 11301 11303 11311 11309 11321 11325 11313 11284 11257 11238 11230 11213 11214 11206 11201 11200 11199 11208 11215 11222 11223 11235 11254 11260 11262 11257 11233 11205 11189 11176 11158 11160 11163 11160 11161 11157 11171 11163 11175 11194 11189 11201 11211 11225 11237 11203 11187 11163 11146 11135 11130 11128 11132 11135 11131 11137 11146 11156 11176 11171 11177 11200 11202 11222 11215 11195 11187 11164 11142 11145 11135 11130 11143 11142 11150 11152 11151 11170 11185 11188 11195 11214 11220 11230 11246 11244 11223 11197 11187 11181 11170 11165 11172 11168 11164 11174 11169 11195 11194 11207 11221 11234 11240 11255 11263 11245 11216 11203 11192 11175 11178 11172 11187 11182 11197 11190 11201 11205 11204 11240 11235 11258 11263 11271 11296 11273 11253 11222 11207 11197 11199 11192 11201 11203 11201 11204 11209 11227 11229 11242 11257 11265 11275 11300 11306 11311 11280 11252 11240 11233 11218 11220 11223 11222 11235 11227 11238 11235 11259 11275 11278 11297 11302 11313 11325 11333 11317 11290 11284 11270 11265 11258 11272 11277 11263 11268 11273 11290 11297 11306 11320 11330 11338 11361 11360 11341 11320 11293 11282 11281 11280 11279 11276 11278 11289 11295 11296 11296 11317 11325 11333 11348 11356 11366 11374 11342 11310 11295 11288 11283 11281 11275 11290 11281 11279 11295 11307 11311 11321 11333 11335 11359 11363 11381 11367 11341 11316 11311 11294 11286 11294 11298 11300 11302 11303 11304 11313 11321 11335 11353 11345 11374 11380 11392 11392 11365 11346 11331 11318 11321 11320 11304 11309 11321 11318 11334 11331 11339 11359 11368 11374 11385 11406 11404 11378 11355 11334 11318 11316 11316 11309 11311 11306 11313 11328 11336 11338 11354 11343 11371 11377 11399 11407 11405 11380 11364 11350 11319 11323 11317 11307 11309 11321 11327 11327 11326 11346 11347 11351 11361 11366 11378 11387 11406 11403 11387 11360 11331 11330 11324 11315 11327 11325 11342 11335 11338 11347 11361 11379 11376 11385 11403 11412 11426 11441 11437 11411 11384 11369 11361 11366 11362 11363 11374 11374 11367 11384 11389 11393 11406 11428 11429 11446 11457 11456 11458 11437 11412 11397 11384 11368 11366 11379 11362 11369 11377 11386 11397 11406 11409 11424 11426 11445 11458 11464 11465 11435 11413 11390 11376 11375 11372 11381 11376 11373 11381 11395 11403 11391 11407 11420 11441 11447 11461 11472 11485 11474 11447 11429 11428 11405 11413 11403 11401 11404 11398 11416 11405 11428 11433 11445 11450 11461 11481 11472 11491 11482 11464 11445 11424 11406 11385 11395 11387 11383 11385 11362 11361 11365 11364 11367 11375 11372 11386 11405 11395 11410 11396 11368 11349 11340 11324 11329 11328 11319 11326 11319 11323 11331 11341 11346 11362 11376 11372 11396 11407 11408 11401 11388 11365 11350 11344 11342 11339 11335 11335 11343 11348 11346 11367 11358 11373 11375 11391 11398 11424 11428 11425 11389 11374 11357 11344 11343 11329 11338 11345 11349 11341 11356 11362 11377 11386 11388 11408 11399 11412 11425 11416 11399 11380 11368 11371 11348 11350 11339 11352 11349 11357 11358 11374 11374 11395 11397 11411 11423 11426 11448 11455 11452 11444 11418 11412 11402 11394 11402 11398 11390 11405 11393 11399 11398 11408 11415 11443 11446 11447 11467 11484 11488 11480 11474 11449 11441 11451 11446 11445 11445 11467 11472 11474 11492 11490 11508 11520 11539 11556 11558 11565 11586 11601 11598 11577 11558 11544 11530 11545 11545 11547 11543 11547 11556 11546 11565 11571 11582 11593 11604 11604 11608 11605 11621 11613 11600 11585 11569 11549 11539 11543 11534 11537 11536 11541 11536 11555 11554 11570 11577 11594 11601 11615 11633 11636 11630 11616 11612 11614 11624 11625 11638 11637 11645 11651 11667 11678 11689 11710 11725 11738 11751 11764 11788 11803 11790 11784 11757 11754 11760 11756 11764 11753 11760 11765 11766 11769 11775 11798 11802 11797 11811 11821 11832 11836 11850 11849 11829 11799 11795 11778 11762 11755 11757 11747 11734 11747 11733 11737 11748 11760 11748 11763 11764 11775 11779 11755 11731 11711 11698 11674 11658 11660 11653 11645 11640 11638 11628 11646 11636 11632 11647 11655 11649 11662 11681 11664 11647 11625 11597 11580 11572 11572 11564 11552 11558 11558 11563 11571 11571 11580 11590 11591 11599 11606 11613 11611 11603 11569 11550 11539 11523 11517 11527 11519 11532 11517 11527 11524 11536 11545 11556 11557 11568 11559 11578 11558 11517 11498 11475 11460 11459 11461 11461 11443 11450 11457 11455 11462 11467 11475 11479 11490 11495 11525 11535 11516 11504 11485 11469 11454 11456 11463 11470 11476 11466 11467 11472 11478 11506 11521 11538 11556 11581 11590 11615 11611 11596 11584 11574 11571 11579 11585 11588 11598 11602 11614 11609 11617 11612 11635 11642 11656 11659 11665 11665 11648 11637 11652 11650 11659 11662 11674 11684 11689 11711 11736 11755 11773 11797 11830 11842 11867 11887 11909 11915 11898 11899 11901 11908 11913 11919 11925 11943 11943 11951 11970 11988 11999 12026 12049 12059 12084 12105 12103 12099 12095 12113 12113 12112 12115 12131 12144 12151 12165 12168 12184 12200 12207 12230 12246 12260 12270 12257 12254 12253 12245 12254 12256 12259 12276 12271 12271 12298 12301 12321 12333 12333 12340 12347 12362 12375 12363 12335 12345 12333 12339 12337 12334 12354 12356 12354 12351 12361 12371 12383 12392 12401 12400 12407 12419 12418 12392 12384 12364 12364 12356 12357 12358 12357 12351 12357 12365 12374 12374 12385 12411 12395 12401 12419 12422 12412 12397 12391 12383 12380 12388 12374 12393 12386 12384 12389 12397 12399 12406 12421 12411 12425 12418 12384 12369 12344 12324 12311 12290 12272 12259 12239 12217 12215 12229 12236 12246 12262 12277 12269 12241 12206 12189 12178 12165 12150 12116 12103 12089 12080 12073 12048 12036 12016 12012 12002 11999 11984 11957 11932 11908 11892 11877 11884 11889 11886 11886 11888 11892 11892 11888 11903 11902 11904 11907 11876 11878 11882 11880 11893 11900 11910 11918 11918 11921 11934 11939 11948 11948 11958 11937 11917 11899 11887 11892 11898 11899 11900 11906 11911 11902 11899 11898 11891 11884 11866 11855 11830 11812 11804 11799 11797 11795 11796 11799 11786 11788 11804 11798 11805 11819 11821 11795 11785 11771 11781 11777 11765 11772 11773 11793 11788 11813 11841 11864 11899 11920 11925 11914 11917 11922 11942 11977 12005 12004 11995 11998 11994 11998 12013 12039 12052 12047 12019 11993 11984 11958 11960 11940 11919 11926 11929 11942 11950 11960 11977 11985 11989 12014 12018 12034 12038 12016 12016 12026 12021 12023 12030 12026 12016 12026 12026 12027 12028 12024 12044 12056 12056 12036 12031 12030 12020 12025 12035 12028 12010 12014 12005 11999 12003 11998 12004 12006 12003 12011 12010 11994 11958 11946 11922 11910 11919 11898 11907 11911 11912 11919 11931 11934 11930 11962 11974 11986 12005 12038 12049 12047 12034 12020 12023 12023 12025 12037 12031 12043 12069 12062 12077 12079 12093 12121 12115 12138 12148 12144 12170 12174 12168 12150 12142 12138 12137 12129 12134 12142 12121 12130 12135 12139 12138 12133 12142 12152 12146 12146 12146 12141 12133 12105 12074 12055 12026 12013 12001 11986 11981 11975 11957 11965 11958 11946 11949 11942 11944 11938 11939 11944 11939 11904 11869 11839 11834 11809 11792 11786 11782 11778 11769 11773 11765 11753 11767 11768 11761 11757 11761 11758 11743 11700 11672 11639 11623 11602 11589 11596 11565 11565 11565 11577 11601 11621 11637 11659 11669 11684 11696 11728 11729 11721 11711 11713 11707 11722 11725 11713 11698 11705 11696 11698 11706 11705 11702 11709 11715 11704 11692 11670 11638 11635 11628 11643 11635 11641 11632 11627 11646 11646 11651 11643 11657 11667 11662 11645 11632 11618 11609 11597 11594 11602 11617 11615 11614 11624 11632 11654 11649 11664 11680 11684 11684 11665 11657 11664 11651 11653 11650 11667 11667 11678 11688 11698 11709 11723 11731 11761 11769 11767 11758 11756 11754 11763 11774 11780 11783 11780 11788 11791 11809 11810 11829 11842 11838 11851 11868 11861 11835 11833 11827 11826 11829 11822 11821 11824 11828 11830 11840 11841 11853 11855 11859 11874 11859 11847 11842 11827 11820 11817 11826 11823 11816 11824 11833 11826 11843 11840 11863 11877 11887 11875 11869 11839 11848 11842 11840 11848 11843 11847 11853 11854 11861 11866 11882 11894 11906 11898 11898 11894 11892 11895 11905 11911 11904 11916 11926 11927 11939 11947 11961 11969 11985 11996 11995 12017 12005 11995 12002 12004 12010 12010 12024 12036 12030 12042 12060 12056 12062 12080 12104 12106 12121 12118 12112 12110 12120 12124 12126 12134 12132 12146 12165 12160 12171 12170 12189 12196 12211 12223 12224 12243 12260 12254 12241 12237 12227 12232 12238 12237 12243 12238 12244 12257 12252 12265
33 33 33 33 33 33 33 33 33 33 33 33 33 33 33 33 33 33 33 33 33 33 33 34 35 33 33 33 33 33 33 34 36 30 33 34 32 33 34 33 32 33 32 33 33 33 34 32 33 33 33 33 33 33 33 33 33 33 33 33 34 34 34 33 33 33 33 33 33 33 33 33 33 33 33 33 34 33 33 33 33 33 33 33 33 33 33 33 33 33 33 33 33 33 33 33 33 33 33 34 33 33 33 33 33 33 33 33 33 33 33 33 33 33 33 33 34 33 33 33 33 34 34 34 34 33 33 33 33 33 33 33 33 33 33 33 33 33 33 33 33 33 33 33 33 33 33 33 33 33 33 33 33 33 33 33 33 33 33 33 33 33 33 33 33 33 33 33 33 33 33 33 33 33 33 33 33 33 33 33 33 33 33 33 33 33 33 33 33 33 33 33 33 33 33 33 33 33 33 33 33 33 33 33 33 33 33 33 33 33 33 33 33 33 33 33 32 33 33 33 33 33 33 33 33 33 33 33 33 33 33 33 33 33 33 33 33 33 33 33 33 33 33 33 33 33 33 33 33 33 33 33 33 33 33 33 32 33 33 33 33 33 33 33 33 33 33 33 33 33 33 33 33 33 33 33 33 33 33 33 33 33 33 33 33 33 33 33 33 33 33 33 33 33 33 33 33 33 33 33 33 33 33 33 33 33 33 33 33 33 33 33 33 33 33 33 33 33 33 33 33 33 33 33 33 33 33 33 33 33 33 33 33 33 33 33 33 33 33 33 33 33 33 33 33 33 33 33 33 33 33 33 33 33 33 33 33 33 33 33 33 33 33 33 33 33 33 33 33 33 33 33 33 33 33 33 33 33 33 33 33 33 33 33 33 33 33 33 33 33 33 33 33 33 33 33 33 33 33 33 33 33 33 33 33 33 33 33 33 33 33 33 33 33 33 33 33 33 33 33 33 33 33 33 33 33 33 33 33 33 33 33 33 33 33 33 33 33 33 33 33 33 33 33 33 33 33 33 33 33 33 33 33 33 33 33 33 33 33 33 33 33 33 33 33 33 33 33 33 33 33 33 33 33 33 33 33 33 33 33 33 33 33 33 33 33 33 33 33 33 33 33 33 33 33 33 33 33 33 33 33 33 33 33 33 33 33 33 33 33 33 33 33 33 33 33 33 33 33 33 33 33 33 33 33 33 33 33 33 33 33 33 33 33 33 33 33 33 33 33 33 33 33 33 33 33 33 33 33 33 33 33 33 33 33 33 33 33 33 33 33 33 33 33 33 33 33 33 33 33 33 33 33 33 33 33 33 33 33 33 33 33 33 33 33 33 33 33 33 33 33 33 33 33 33 33 33 33 33 33 33 33 33 33 33 33 33 33 33 33 33 33 33 33 33 33 33 33 33 33 33 33 33 33 33 33 33 33 33 33 33 33 33 33 33 33 33 33 33 33 33 33 33 33 33 33 33 33 33 33 33 33 33 33 33 33 33 33 33 33 33 33 33 33 33 33 33 33 33 33 33 33 33 33 33 33 33 33 33 33 33 33 33 33 33 33 33 33 33 33 33 33 33 33 33 33 33 33 33 33 33 33 33 33 33 33 33 33 33 33 33 33 33 33 33 33 33 33 33 33 33 33 33 33 33 33 33 33 33 33 33 33 33 33 33 33 33 33 33 33 33 33 33 33 33 33 33 33 33 33 33 33 33 33 33 33 33 33 33 33 33 33 33 33 33 33 33 33 33 33 33 33 33 33 33 33 33 33 33 33 33 33 33 33 33 33 33 33 33 33 33 33 33 33 33 33 33 33 33 33 33 33 33 33 33 33 33 33 33 33 33 33 33 33 33 33 33 33 33 33 33 33 33 33 33 33 33 33 33 33 33 33 33 33 33 33 33 33 33 33 33 33 33 33 33 33 33 33 33 33 33 33 33 33 33 33 33 33 33 33 33 33 33 33 33 33 33 33 33 33 33 33 33 33 33 33 33 33 33 33 33 33 33 33 33 33 33 33 33 33 33 33 33 33 33 33 33 33 33 33 33 33 33 32 33 33 33 33 33 33 33 34 34 33 33 33 33 33 33 33 33 33 33 33 33 33 33 33 33 33 33 33 33 33 33 33 33 33 33 33 33 33 33 33 33 33 33 33 33 33 33 33 33 33 33 33 33 33 33 33 33 33 33 33 33 33 33 33 33 33 33 33 33 33 33 33 33 33 33 33 33 33 33 33 33 33 33 33 33 33 33 33 33 33 33 33 33 33 33 33 33 33 33 33 33 33 33 33 33 33 33 33 33 33 33 33 33 33 33 33 33 33 33 33 33 33 33 33 33 33 33 33 33 33 33 33 33 34 33 33 33 33 33 33 33 33 33 33 33 33 33 33 34 33 33 33 33 33 33 33 34 33 33 33 33 33 33 33 33 33 33 33 33 33 34 33 33 33 33 33 33 33 33 33 33 33 33 33 33 33 33 33 33 33 33 33 32 33 33 33 33 32 32 32 33 33 33 33 32 32 32 33 33 33 33 33 33 33 33 33 33 33 32 33 33 33 33 33 33 33 32 33 32 32 33 33 32 33 32 32 33 33 32 33 33 33 33 33 33 33 33 33 33 33 32 33 33 34 34 34 33 33 33 34 33 33 33 33 33 34 33 33 33 33 33 33 34 33 33 33 33 33 33 33 33 34 33 33 33 33 33 33 33 33 33 33 33 34 34 33 33 33 33 33 33 33 33 33 33 33 33 33 33 33 33 33 33 33 33 33 33 33 33 33 33 33 33 33 33 33 33 33 33 33 33 33 33 34 33 32 32 33 33 33 33 33 33 34 33 33 33 33 33 33 34 33 33 33 33 33 33 33 33 33 33 33 33 33 33 33 33 33 33 33 33 33 33 33 33 33 33 33 33 33 33 33 33 33 33 33 33 33 33 33 33 33 33 33 33 33 33 33 33 33 33 33 33 33 33 33 33 33 33 34 33 34 33 34 32 32 32 33 33 32 33 33 33 33 33 33 33 33 33 33 33 33 33 33 33 33 32 32 33 32 33 32 33 33 33 32 33 33 33 34 34 33 33 33 33 33 32 32 33 33 33 33 33 32 32 33 33 32 32 33 33 33 33 33 33 33 33 33 33 33 33 33 33 33 33 33 33 33 33 33 33 33 33 33 33 33 33 33 32 33 33 32 33 33 33 33 33 33 34 33 34 33 32 32 33 33 32 33 33 33 33 33 33 33 33 32 33 33 33 33 33 33 33 33 33 33 33 33 33 33 33 33 33 33 33 33 33 33 33 33 33 33 33 33 33 33 33 33 33 36 34 33 33 33 32 29 32 33 33 33 33 33 33 33 33 27 28 32 33 33 33 33 33 33 33 33 33 33 33 33 33 33 34 35 33 33 33 33 33 33 33 33 33 33 33 33 33 33 33 33 33 33 33 33 33 33 33 33 33 33 33 33 33 33 33 33 33 33 33 33 33 33 33 33 33 33 33 33 33 33 33 33 33 33 33 33 33 33
