41339 41278 41256 41227 41229 41207 41182 41191 41183 41199 41197 45931 46707 46844 46913 46980 47021 47047 47046 46965 46716 46585 46456 46298 46171 46052 45937 45798 45597 45398 45194 45021 44864 44737 44601 44455 44323 44182 44062 43935 43837 43727 43627 43550 43465 43299 43103 42870 42661 42522 42362 42250 42109 41980 41843 41739 41621 41516 41425 41348 41263 41183 41074 40889 40708 40544 40414 40301 40213 40125 40041 39979 39926 39896 39870 39832 39807 39802 39772 39740 39610 39465 39356 39267 39184 39146 39108 39080 39053 39026 39024 39021 39018 39043 39041 39053 39064 39006 38887 38829 38774 38735 38723 38713 38707 38695 38681 38692 38708 38724 38742 38777 38804 38823 38794 38742 38692 38648 38625 38629 38636 38649 38654 38675 38695 38717 38741 38773 38815 38851 38897 38902 38868 38825 38814 38794 38795 38813 38850 38855 38898 38917 38964 39015 39070 39141 39199 39272 39269 39268 39251 39240 39217 39219 39235 39383 39415 39454 39495 39532 39562 39609 39648 39686 39726 39751 39719 39661 39631 39577 39564 39547 39539 39550 39545 39552 39570 39603 39623 39650 39678 39707 39752 39750 39722 39658 39622 39597 39583 39591 39591 39591 39605 39633 39647 39689 39702 39738 39756 39760 39835 39871 39846 39797 39775 39754 39758 39789 39823 39853 39879 39880 39925 39993 40096 40171 40267 40339 40436 40513 40573 40629 40745 40909 41097 41251 41367 41448 41472 41493 41491 41491 41474 41420 41360 41271 41064 40779 40491 40201 39986 39982 39864 39745 39587 39306 38738 38057 37398 36963 36770 36523 36213 36032 35973 35875 35879 35807 35762 35771 35843 35938 35839 35864 36037 36353 36895 37373 37412 37413 37468 37459 37051 36802 36804 36979 37142 37443 38150 39019 39316 39760 39873 39401 38690 38111 37633 37263 37027 36846 36813 36831 36919 37124 37484 37905 38575 39235 39991 40488 40760 41099 41427 41826 42228 42576 42747 42956 43256 43502 43711 43950 44148 44308 44477 44587 44709 44835 44940 44898 44893 44964 45064 45112 45174 45174 45158 45140 45214 45030 44695 44579 44578 44510 44402 44305 44114 43857 43499 43102 42735 42415 42103 41896 41743 41768 41843 41870 41961 41852 41650 41473 41328 41284 41358 41377 41432 41529 42047 42924 43132 43049 42773 42244 41031 40362 40163 39978 39807 39641 39443 39231 39016 38832 38670 38520 38409 38311 38236 38209 38119 38067 37989 37929 37889 37864 37687 37419 37229 37052 37009 36846 36535 36485 36406 36391 36230 36042 35862 35617 35460 35258 35051 34995 34971 34953 35021 35050 35063 35238 35344 35338 35408 35399 35416 35424 35446 35380 35322 35246 35156 35082 35034 34982 34971 34924 34903 34849 34800 35095 35269 35816 36558 36271 35997 35881 35916 35816 35682 35711 35888 36249 36704 37049 37258 37606 37883 38058 38185 38470 37815 37605 37241 37240 37265 37208 37232 37214 37303 37438 37377 37393 37453 37356 37279 37474 37356 37166 36889 36681 36520 36401 36453 36964 37231 37151 36935 36814 36847 36904 36999 37155 37307 37491 37712 38028 38317 38573 38772 38935 38994 38947 38821 38661 38412 38171 38007 37898 37833 37761 37611 37427 37247 37087 36953 36834 36713 36609 36528 36420 36301 36199 36101 36025 35949 35901 35835 35827 35763 35743 35797 35950 36130 36308 36432 36533 36776 37146 37820 38401 38807 39190 39347 39259 38953 38570 38259 38018 37818 37603 37471 37398 37355 37327 37218 36989 36717 36428 36182 35997 35850 35778 35737 35745 35756 35763 35823 35858 35906 35948 36007 36057 36075 36088 36123 36125 36130 36113 36115 36193 36294 36402 36446 36505 36486 36469 36462 36502 36575 36675 36810 36937 37050 37238 37389 37543 37688 37804 37914 38042 38108 38191 38182 38107 37997 37829 37696 37574 37481 37373 37248 37180 37165 37185 37193 37193 37147 37235 37382 37519 37611 37758 37864 37880 37841 37785 37692 37610 37536 37467 37518 37621 38130 38811 39272 39484 39900 40747 41547 42279 42543 42411 42067 41710 41392 41075 40791 40651 40659 40698 40732 40692 40628 40401 40216 40077 40090 40159 40266 40400 40492 40593 40663 40732 40802 40847 40843 40822 40757 40700 40654 40631 40603 40500 40255 39961 39600 39181 38570 38076 37793 37621 37439 37314 37114 36995 36861 36771 36664 36628 36596 36539 36520 36488 36469 36457 36461 36441 36370 36252 36141 36042 35951 35871 35850 35799 35750 35707 35646 35627 35602 35582 35567 35549 35486 35387 35302 35245 35204 35190 35180 35170 35151 35172 35175 35191 35217 35229 35255 35252 35204 35133 35075 35028 34979 34976 34972 34965 34952 34944 34944 34943 34946 34937 34935 34941 34896 34830 34767 34703 34655 34610 34604 34577 34554 34516 34497 34478 34473 34446 34432 34410 34411 34375 34300 34227 34184 34148 34108 34083 34065 34039 34033 34006 33997 33980 33962 33949 33936 33924 33894 33852 33773 33716 33659 33628 33611 33581 33563 33525 33517 33493 33471 33458 33446 33427 33419 33417 33375 33315 33243 33186 33138 33114 33079 33061 33027 33034 33003 32977 32984 32977 32964 32966 32946 32946 32862 32809 32770 32727 32697 32846 32964 33043 33043 33009 32982 32947 32953 33104 33392 33615 33632 33910 34340 34672 34984 35248 35485 35732 35966 36173 36384 36575 36771 36946 37113 37304 37480 37637 37777 37841 37891 37947 37995 38119 38377 38488 38453 38463 38498 38551 38573 38661 38712 38789 38850 38913 38957 38992 38983 38970 39005 39031 39052 39097 39144 39171 39213 39274 39296 39336 39360 39404 39435 39457 39480 39462 39410 39335 39276 39215 39186 39185 39164 39166 39132 39111 39085 39050 38989 38945 38890 38865 38830 38747 38643 38546 38462 38368 38302 38272 38257 38246 38250 38295 38330 38368 38406 38444 38496 38556 38591 38579 38541 38468 38432 38397 38409 38444 38516 38681 38915 39205 39589 39996 40444 40801 41222 41341 41283 41118 40910 40726 40563 40208 39904 39638 39377 39106 38853 38644 38500 38396 38347 38305 38252 38235 38199 38080 37906 37739 37615 37518 37447 37410 37375 37378 37375 37395 37421 37445 37417 37404 37371 37370 37350 37357 37305 37344 37367 37482 37800 38117 38241 38527 38771 38451 37907 37804 37872 37889 37845 37924 38010 38174 38959 39834 40319 40078 39550 38989 38511 38296 38335 38691 38799 38887 39091 39467 39299 39025 38764 38403 37911 37375 36955 36564 36336 36324 36502 36773 37040 37299 37697 38125 38628 39074 39109 39250 39668 40015 40153 40264 40310 40296 39993 39896 40004 39958 39775 39523 39245 39102 38946 38868 38818 38718 38618 38480 38374 38199 38068 37967 37902 37808 37702 37579 37490 37416 37382 37320 37288 37247 37239 37192 37045 36945 36862 36836 36806 36835 36932 37150 37338 37552 37783 38082 38373 38461 38392 38318 38424 38524 37929 37374 37056 36832 36837 36785 36721 36605 36505 36462 36425 36400 36376 36352 36360 36353 36369 36375 36380 36381 36424 36460 36500 36493 36518 36508 36434 36363 36388 36437 36682 36798 36885 36863 36748 36544 36239 35924 35794 35797 35860 35898 35791 35784 35739 35752 35635 35638 35694 35776 35879 35973 36044 36009 35925 35787 35709 35622 35500 35390 35225 34941 34662 34382 34159 34011 33923 33969 34074 34138 34158 34117 34015 33875 33740 33674 33720 33755 33817 33878 33993 34180 34410 34851 35611 36895 38438 39492 40231 41262 42290 43252 44112 44800 45335 45647 45486 45142 44891 44218 43736 43337 43038 42723 42352 41971 41577 41179 40799 40439 40096 39727 39365 39030 38710 38429 38182 37956 37724 37557 37379 37188 37018 36858 36685 36540 36437 36303 36176 36063 35962 35845 35730 35633 35525 35421 35306 35200 35043 34879 34710 34554 34411 34302 34172 34054 33928 33796 33619 33448 33277 33137 32993 32852 32684 32539 32414 32327 32249 32195 32130 32087 32037 31990 31943 31896 31850 31784 31682 31539 31431 31342 31201 31061 30962 30911 30862 30796 30724 30675 30655 30653 30659 30668 30670 30648 30606 30568 30529 30494 30463 30435 30407 30384 30346 30337 30314 30288 30259 30227 30176 30125 30062 30002 29951 29915 29885 29873 29856 29832 29833 29818 29799 29814 29820 29828 29818 29799 29770 29742 29733 29718 29729 29728 29739 29740 29757 29764 29774 29783 29813 29819 29814 29825 29818 29785 29791 29795 29786 29801 29817 29822 29828 29842 29853 29861 29875 29880 29889 29914 29918 29910 29904 29897 29902 29905 29914 29931 29922 29949 29937 29952 29970 29974 29981 29998 30016 30024 30024 30013 30023 30028 30025 30045 30045 30050 30059 30082 30093 30120 30117 30127 30132 30123 30119 30138 30142 30161 30170 30153 30159 30168 30179 30183 30184 30199 30217 30208 30221 30235 30237 30243 30245 30235 30234 30247 30257 30244 30254 30257 30256 30260 30273 30275 30282 30288 30303 30302 30295 30274 30265 30252 30260 30257 30264 30255 30243 30251 30249 30244 30244 30269 30253 30261 30258 30262 30251 30252 30238 30241 30231 30244 30252 30259 30265 30266 30277 30284 30292 30278 30291 30301 30317 30323 30318 30289 30278 30289 30287 30286 30292 30299 30292 30298 30316 30308 30321 30325 30337 30350 30347 30366 30349 30342 30338 30330 30339 30340 30343 30342 30352 30365 30374 30393 30394 30397 30415 30417 30428 30434 30430 30429 30407 30399 30416 30418 30427 30420 30431 30432 30443 30450 30436 30460 30459 30468 30480 30500 30516 30486 30481 30488 30481 30493 30503 30517 30515 30521 30520 30529 30537 30540 30546 30563 30572 30581 30578 30573 30558 30539 30552 30556 30558 30551 30558 30540 30566 30568 30571 30581 30592 30585 30603 30597 30595 30581 30567 30578 30567 30584 30580 30585 30583 30596 30593 30606 30616 30627 30615 30624 30631 30628 30617 30589 30581 30603 30598 30601 30598 30602 30593 30612 30619 30636 30638 30640 30643 30660 30665 30664 30666 30651 30639 30646 30658 30652 30658 30667 30670 30681 30683 30700 30698 30707 30711 30733 30743 30748 30745 30718 30714 30710 30713 30717 30713 30743 30727 30739 30747 30756 30770 30781 30793 30788 30807 30816 30811 30803 30786 30780 30782 30787 30807 30799 30807 30814 30812 30835 30834 30833 30851 30855 30851 30854 30871 30869 30838 30839 30815 30824 30825 30832 30836 30843 30831 30836 30844 30857 30870 30869 30878 30893 30896 30897 30888 30889 30875 30853 30875 30884 30876 30901 30894 30903 30902 30926 30931 30934 30925 30935 30941 30948 30959 30938 30927 30913 30923 30916 30930 30929 30931 30919 30937 30939 30940 30943 30947 30954 30973 30964 30965 30963 30949 30938 30926 30938 30918 30925 30929 30934 30936 30939 30942 30961 30949 30962 30962 30976 30973 30958 30937 30933 30928 30944 30945 30954 30942 30937 30950 30962 30967 30980 30982 30995 30996 31006 31003 30984 30974 30970 30980 30967 30965 30962 30955 30973 30975 30966 30972 30967 30941 30949 30950 30943 30923 30900 30894 30864 30863 30833 30815 30763 30752 30723 30695 30675 30653 30632 30642 30619 30604 30559 30550 30522 30500 30500 30509 30482 30477 30471 30497 30472 30480 30478 30488 30502 30499 30484 30488 30483 30518 30545 30576 30707 30836 31145 32004 33899 36926 39925 40925 41220 41559 42146 42392 42543 42437 42286 41879 41698 41646 41382 41093 40812 40562 40163 39803 39475 39204 38962 38753 38556 38359 38247 38110 38006 37928 37846 37841 37817 37788 37793 37798 37796 37782 37790 37818 37830 37838 37853 37841 37776 37728 37654 37615 37582 37552 37540 37534 37473 37426 37416 37415 37375 37329 37250 37151 37051 36944 36800 36633 36528 36421 36357 36299 36237 36175 36122 36058 36009 35944 35843 35770 35669 35530 35393 35289 35156 35063 34970 34874 34803 34754 34715 34704 34688 34658 34626 34626 34667 34670 34622 34555 34502 34445 34402 34375 34335 34305 34268 34236 34185 34118 34025 33918 33848 33771 33712 33657 33602 33537 33485 33440 33393 33368 33333 33295 33247 33220 33207 33202 33187 33164 33148 33127 33094 33057 33010 32961 32892 32804 32745 32744 32777 32811 32885 32980 33114 33246 33424 33568 33706 33895 33997 34069 34119 34141 34200 34321 34579 35088 35915 37079 38454 39547 40306 40720 40958 41124 41146 41040 40695 40266 40037 39819 39517 39244 38884 38355 37803 37447 37104 36851 36619 36378 36224 36106 36077 36100 36139 36120 36155 36150 36116 36173 36160 36139 36101 36029 35969 35952 35921 35919 35885 35951 36000 36026 36086 36163 36219 36251 36204 36169 36101 36074 36058 36009 36012 35958 35900 35843 35829 35902 36358 37230 38162 38762 38752 38555 38250 37841 37529 37234 37071 36878 36796 36678 36620 36481 36369 36270 36234 36154 36088 35987 35857 35798 35710 35675 35706 35766 35734 35577 35418 35184 34998 34860 34655 34473 34321 34198 34094 33978 33874 33756 33697 33602 33545 33508 33480 33435 33418 33361 33314 33254 33256 33236 33196 33137 33071 33036 32983 32989 33052 33117 33138 33160 33144 33130 33168 33212 33253 33305 33335 33357 33383 33419 33499 33545 33603 33705 33807 33878 33958 34020 34099 34189 34326 34353 34359 34319 34248 34180 34093 34046 33905 33887 33871 33866 33858 33885 33956 34008 34270 34982 37507 38579 39336 39153 39071 39321 40224 40992 41486 41835 42055 41978 41934 41901 41738 41630 41497 41388 41369 41353 41284 41191 41017 40810 40612 40662 40875 41182 41480 41739 41946 42092 42231 42387 42515 42640 42768 42861 42973 43161 43288 43504 43661 43761 43862 43850 43914 44014 44037 44150 44244 44362 44627 44978 45241 45346 45472 45465 45464 45463 45454 45365 45297 45164 45026 44903 44901 44832 44714 44622 44468 44376 44311 44255 44190 43975 43759 43474 43317 43200 43106 43007 42886 42849 42869 42837 42697 42616 42556 42475 42401 42257 42054 41811 41622 41453 41394 41316 41240 41393 41539 41653 41621 41876 42961 44305 44063 43560 43330 43228 43247 43131 42984 42712 42824 42950 43011 43020 43205 43379 43725 43885 44110 44340 44693 44757 44758 44587 44487 44320 44165 43996 43936 43923 43835 43781 43688 43453 43309 43112 42868 42627 42407 42226 42178 42020 41919 41881 41974 42115 41978 41927 41793 41671 41529 41494 41473 41378 41404 41281 41196 41131 41099 40943 40883 40826 40816 40716 40645 40661 40545 40644 40563 40623 40554 40567 40557 40578 40580 40621 40749 41306 43073 44000 44416 44248 43894 43636 43479 43236 42986 42802 42638 42543 42488 42348 42064 41812 41599 41506 41382 41292 41226 41183 41124 41098 41067 40972 40815 40679 40591 40490 40406 40307 40236 40248 40313 40406 40439 40376 40327 40187 40095 40102 40108 40076 40085 40086 40036 39985 39955 39941 39924 39912 39879 39873 39852 39853 39857 39852 39867 39803 39725 39656 39629 39656 39633 39572 39468 39372 39336 39269 39089 39001 38891 38852 38844 38807 38813 38925 39103 39350 39501 39561 39527 39471 39541 39539 39544 39590 39662 39684 39628 39638 39613 39599 39454 39368 39394 39312 39271 39223 39108 39014 38960 38859 38874 38939 38946 38942 38906 38908 38890 38915 39021 39082 39106 39082 39078 39051 39013 38947 38933 38875 38811 38698 38657 38664 38642 38629 38600 38561 38551 38538 38537 38590 38621 38714 38735 38708 38650 38701 38733 39046 40608 42697 43836 44295 44099 43825 44025 44120 44241 44660 44887 44875 44776 44697 44701 44733 44623 44442 44240 44101 43919 43914 43847 43962 44264 44441 44797 44719 44492 44350 44582 44696 44753 44955 45224 45443 45604 45802 45859 45864 45877 45866 45770 45616 45453 45283 45093 44919 44756 44600 44570 44525 44554 44569 44553 44526 44555 44716 45032 45031 44908 44737 44576 44665 44795 44522 44550 44670 44948 44762 44584 44385 44269 44116 43817 43569 43462 43375 43293 43200 43081 42949 42717 42397 42087 41865 41982 42237 42373 42399 42376 42262 42166 42051 42005 42227 42362 42571 42579 42088 41725 41762 41998 41851 41902 41872 41859 41759 41633 41455 41590 41845 41726 41540 41602 41581 41428 41263 41184 41096 41063 40947 40896 40900 40973 41034 41258 41465 41598 41639 41572 41445 41328 41166 41063 40996 40964 40899 40831 40724 40634 40519 40388 40266 40149 40048 40064 39897 39966 39858 39825 39836 39734 39741 39720 39695 39580 39526 39527 39237 39399 39356 39356 39320 39352 39279 39322 39282 39350 39351 39304 39333 39218 39252 39162 39146 39224 39179 39165 39119 39063 38960 38950 38949 39034 38929 38974 38881 38919 38948 38938 38918 38915 38801 38838 38699 38793 38695 38761 38699 38693 38569 38625 38556 38563 38525 38550 38525 38550 38518 38580 38523 38544 38503 38504 38462 38585 38806 39135 39519 39808 40036 40126 40131 40156 40036 39999 39992 39919 39914 39878 39933 40062 40469 41412 42606 43347 43675 43828 43411 42881 42739 42514 42230 41947 41524 41218 41023 40844 40749 40722 40598 40454 40413 40330 40249 40268 40250 40179 40282 40494 40916 41309 41472 41780 42160 42666 43021 43517 43774 43902 43967 44034 44053 44097 44166 44261 44417 44552 44655 44805 44873 45016 45109 45173 45216 45247 45224 45322 45290 45348 45390 45430 45460 45477 45653 45659 45786 45740 45832 45878 45847 45982 46152 46090 46241 46223 46201 45966 45832 45701 45537 45397 45217 45132 44923 44781 44592 44429 44216 44114 43912 43799 43713 43575 43488 43291 43144 42948 42844 42612 42593 42472 42392 42258 42203 42125 42037 41959 41837 41776 41743 41775 41899 42255 42994 42905 42926 42832 42850 42838 42952 43026 43357 43360 43310 43324 43382 43212 43030 42914 42849 42715 42559 42353 42296 42188 42086 41977 41906 41797 41655 41646 41529 41475 41457 41369 41363 41242 41202 41164 41019 40975 40864 40731 40678 40572 40559 40520 40465 40448 40452 40403 40341 40349 40239 40157 40047 39984 39914 39933 39859 39846 39887 39823 39909 39888 39903 39875 39915 39978 40057 40066 40126 40032 39928 39877 39814 39814 39789 39690 39568 39446 39395 39204 39065 38945 38854 38766 38677 38638 38491 38455 38341 38317 38236 38223 38145 38140 38071 38058 38105 38075 38056 38056 38030 37972 37910 37820 37721 37657 37509 37487 37363 37235 37207 37081 37157 37107 37069 37018 36991 36936 36907 36915 36808 36763 36723 36643 36620 36585 36632 36628 36662 36620 36653 36573 36533 36505 36454 36449 36348 36326 36246 36226 36082 36186 36178 36162 36141 36120 35939 36014 35935 35979 35921 35946 35831 35870 35823 35811 35729 35743 35683 35689 35576 35713 35700 35632 35579 35549 35631 35619 35788 36150 37085 38283 39261 40355 40453 40286 40182 39625 39002 38932 39431 39387 39843 40196 40662 41043 41371 41688 41903 42185 42431 42596 42742 42862 42973 43110 43193 43203 43061 42795 42707 42851 42956 42301 42181 42201 42160 42157 42140 42078 42039 42098 42224 42433 42341 42205 42245 42147 42186 42452 42617 42765 42921 43099 43229 43356 43481 43461 43289 43065 42860 42858 43008 43080 43245 43434 43727 43941 44716 45048 45167 45251 45343 45385 45418 45451 45491 45490 45518 45493 45459 45415 45406 45405 45377 45369 45379 45359 45357 45451 45530 45550 45826 46114 45824 45411 45159 45119 45057 44944 45035 45020 44931 44839 44756 44665 44650 44674 44875 45024 45146 45096 44847 44605 44467 44370 44262 44164 44072 43999 43968 43950 43930 43908 43904 43841 43781 43733 43558 43370 43288 43257 43221 43209 43206 43213 43219 43037 43027 42867 42782 42640 42665 42629 42610 42683 42737 42826 42778 42790 42697 42525 42445 42272 42156 42063 42019 41966 41944 41888 41845 41716 41677 41599 41521 41374 41189 41030 40959 40870 40795 40794 40780 40731 40722 40736 40743 40827 40907 41015 41179 41614 41952 42304 42569 42692 42861 42837 42699 42490 42253 42150 42009 41941 41740 41732 41616 41620 41534 41441 41460 41357 41264 41225 41126 41108 41067 41082 41038 41058 41022 41030 40984 41008 40859 40802 40681 40656 40628 40641 40843 40885 40927 40842 40899 40968 40859 40951 40826 40857 40666 40836 40927 41063 41152 41297 41544 41760 41988 41847 41715 41623 41653 41854 42069 42313 42162 42138 41864 41846 41560 41454 41269 41166 41040 40990 40898 40889 41070 41330 41601 41969 42208 42355 42648 42609 42482 42323 42106 41870 41670 41438 41215 41230 41089 41049 40921 40677 40649 40499 40442 40398 40409 40406 40460 40461 40478 40536 40584 40645 40657 40615 40596 40536 40547 40584 40619 40678 40798 40801 40955 40975 40903 40926 40767 40642 40644 40340 40524 40552 40802 40875 41034 41135 41299 41302 41408 41421 41506 41482 41444 41537 41719 41662 41844 42015 42176 42220 42366 42280 42197 42016 41823 41649 41630 41510 41430 41462 41310 41223 41311 41219 41326 41292 41311 41302 41127 41030 40920 40694 40683 40483 40469 40473 40465 40426 40386 40264 40373 40361 40344 40346 40311 40390 40382 40416 40480 40512 40608 40588 40617 40661 40538 40772 40702 40581 40718 40722 40868 40998 41176 41319 41426 41607 41565 41601 41654 41616 41724 41623 41467 41542 41500 41449 41467 41362 41205 41264 41142 41059 41207 41160 41080 41191 41110 41141 41250 41147 41199 41183 41264 41285 41458 41400 41487 41447 41365 41334 41316 41378 41271 41248 41309 41201 41369 41517 41461 41548 41529 41534 41640 41393 41457 41306 41503 41441 41505 41623 41591 41750 41807 41765 41882 41807 41965 41848 41879 41837 41766 41669 41644 41606 41597 41544 41623 41522 41669 41795 41722 41819 41648 41811 41749 41802 41848 41882 41846 41799 41705 41555 41512 41447 41495 41477 41545 41555 41577 41615 41631 41680 41765 41838 41812 41767 41801 41845 41779 41742 41676 41747 41752 41763 41848 41908 42641 43109 43243 43437 43767 44031 44206 44278 44330 44368 44332 44358 44329 44309 44218 44029 43972 43873 43825 43743 43749 43752 43854 43803 43731 43684 43547 43464 43379 43316 43271 43191 43177 43107 43076 43082 43041 43006 43008 42935 42883 42842 42807 42733 42694 42637 42581 42565 42542 42497 42471 42372 42400 42275 42206 42091 42030 42004 41922 41921 41865 41839 41804 41752 41765 41716 41657 41636 41554 41491 41410 41378 41324 41380 41457 41464 41512 41593 41603 41514 41087 41095 40966 40751 40809 40746 41039 40644 41059 40986 41161 41199 41161 41253 41282 41269 41297 41354 41407 41483 41466 41473 41513 41629 41946 42600 43747 44413 44454 44239 43887 43816 43924 43806 43739 43853 43817 43909 44027 43998 43871 43729 43522 43401 43307 43212 43407 43566 43638 43670 43670 43694 43691 43641 43927 44052 44163 44371 44256 43849 43704 43533 43298 43049 42936 42730 43021 43044 43083 43167 43576 44141 44533 44970 45289 45570 45912 46138 46039 46099 46046 45988 45934 45771 45651 45594 45544 45499 45488 45447 45380 45225 45165 45046 44999 44958 44966 44901 44989 44980 45164 45275 45478 45445 45397 45387 45310 45475 45521 45522 45646 45601 45650 45561 45666 45547 45608 45595 45619 45682 45766 45339 45502 45322 45427 45286 45262 45160 45005 44953 44892 44809 44802 45024 44978 45250 45322 45381 45412 45506 45507 45590 45495 45272 45554 45693 45885 45983 46121 46041 46035 45895 45875 45744 45648 45404 45232 45087 44965 44881 44836 44710 44549 44523 44327 44165 44066 43910 43660 43369 43156 42967 43047 43156 43315 43308 43356 43472 43381 43404 43308 43347 43206 43142 43066 43059 42934 42989 43046 43124 43222 43416 43670 43790 43836 44173 44107 44405 44476 44528 44578 44623 44656 44559 44577 44480 44479 44400 44144 44048 43895 44227 44187 44326 44272 44360 44401 44336 44420 44369 44491 44434 44826 44953 45163 45183 45210 45081 45127 45057 45021 45006 44917 44937 44719 44654 44475 44379 44311 44211 44155 44174 44176 44133 44118 44067 43902 43724 43410 43371 43205 43138 42951 42799 42619 42546 42333 42170 41902 41756 41535 41314 41141 40975 40803 40735 40704 40669 40638 40752 40724 40748 40776 40761 40814 41000 40958 41103 41120 41079 41157 41228 41206 41256 41367 41269 41170 41035 41089 41132 41127 41122 41130 41107 41070 41080 41078 40955 40913 40788 40596 40500 40311 40222 40093 40049 39995 39927 39833 39763 39694 39659 39520 39404 39301 39198 39176 39080 39092 38972 39008 38873 38941 38882 38894 38908 38778 38665 38644 38543 38521 38367 38405 38304 38270 38296 38268 38183 38271 38314 38495 38533 38710 38900 39095 38865 39140 39315 39441 38958 39391 39452 39839 39472 39962 39844 40069 40168 40024 40185 40212 40383 40271 40723 41753 42612 43062 43525 43621 43565 43416 43084 42982 42811 42743 42739 42596 42490 42359 42350 42161 41986 42010 41829 41929 41987 42110 42139 42227 42251 42159 41927 41693 41378 41222 40969 40826 40675 40492 40437 40201 40161 40090 40002 39861 39800 39512 39424 39132 39062 39016 38904 38943 38905 38709 38871 38843 39008 38841 38812 38876 39101 39172 39307 39413 39743 39840 40692 40537 40684 40071 40675 40964 40798 40620 41146 42043 42294 42194 42015 41927 42049 42047 41924 41793 41536 41336 41058 40893 40681 40877 41129 41265 41338 41405 41484 41546 41723 42117 42396 42312 42065 41861 41802 41549 41430 41603 41746 41834 41951 41943 41754 41582 41424 41227 41073 40998 40963 40927 40888 40899 40971 41246 41748 42417 42688 42547 42338 41986 41823 41561 41450 41348 41273 41216 41051 41098 41055 40993 40864 40831 40689 40536 40557 40455 40463 40300 40334 40245 40304 40051 40187 40119 40072 39901 39925 39735 39919 39773 39826 39798 39801 39878 39883 39862 39853 39779 39655 39552 39579 39557 39598 39554 39603 39615 39629 39614 39666 39710 39707 39628 39595 39617 39617 39671 39601 39666 39662 39905 39970 40140 40109 40219 40170 40026 40068 39973 40066 40080 40130 40228 40332 40423 40491 40462 40459 40501 40377 40638 40687 40651 40819 40875 40847 40908 40879 41051 40971 40981 41043 40991 40938 40962 40917 41021 41115 41111 41142 41175 41038 41035 40970 40854 40795 40769 40697 40731 40804 40815 40890 40839 40756 40809 40712 40842 40807 40752 40759 40777 40862 40814 40856 40975 41032 41134 41249 41379 41376 41399 41371 41353 41312 41383 41364 41324 41180 41238 41205 41403 41437 41550 41605 41498 41505 41540 41393 41313 41299 41436 41546 41715 41775 41742 41869 41784 41560 41540 41433 41417 41345 41344 41429 41477 41570 41519 41517 41556 41557 41555 41408 41549 41567 41452 41589 41482 41762 41860 41980 41972 41976 41779 41761 41650 41616 41532 41404 41488 41426 41368 41306 41344 41341 41307 41267 41401 41346 41291 41264 41249 41286 41219 41128 41112 41079 41010 40993 40885 40764 40672 40603 40554 40719 40700 40732 40837 40724 40793 40841 40718 40868 40766 40794 40771 40813 40748 40756 40698 40647 40598 40673 40689 40673 40712 40585 40652 40584 40398 40494 40489 40385 40477 40514 40489 40390 40389 40107 40282 40292 40455 40499 40567 40457 40573 40600 40540 40546 40438 40386 40294 40107 39873 39686 39521 39462 39473 39452 39335 39384 39379 39379 39419 39360 39376 39353 39392 39344 39303 39177 39053 38853 38958 38911 39045 39105 39208 39193 39092 38969 39232 39494 39601 39533 39740 39826 39868 39960 40147 40047 40159 40251 40153 40166 40054 40180 40155 40197 40087 40199 40260 40290 40323 40328 40428 40470 40538 40537 40524 40492 40595 40562 40602 40670 40656 40766 40833 40914 40927 40868 40797 40743 40733 40807 40770 40626 40524 40483 40486 40481 40441 40467 40404 40502 40581 40551 40572 40549 40599 40558 40584 40620 40549 40626 40617 40655 40607 40676 40625 40737 40609 40711 40630 40638 40645 40592 40633 40417 40570 40521 40480 40328 40378 40276 40302 40374 40325 40340 40451 40441 40545 40490 40469 40439 40519 40497 40382 40325 40231 40194 40126 40099 40097 40036 40068 40080 40110 40136 40039 39743 39572 39401 39313 39327 39157 39234 39252 39243 39155 39143 39190 39104 38848 38754 38711 38576 38951 38873 39098 39035 39241 39194 39253 39390 39466 39551 39495 39545 39512 39624 39708 39766 39739 39826 39921 39969 40081 40127 40057 40200 40145 40165 40175 40056 40222 40353 40312 40399 40436 40524 40531 40584 40617 40669 40701 40725 40729 40788 40850 40790 40755 40825 40809 40844 40868 40902 40850 40871 40792 40765 40531 40731 40690 40713 40775 40784 40933 40985 41045 41103 41196 41233 41337 41357 41363 41395 41484 41348 41377 41360 41209 41207 41245 41146 41232 41122 41081 41185 41197 41141 41198 41189 41357 41431 41321 41345 41276 41265 41146 41118 41052 40967 40889 40751 40923 40978 40917 40955 41077 41162 41132 41071 41101 41078 41061 41055 40992 40936 40958 40893 40900 40849 40620 40707 40560 40577 40553 40483 40582 40511 40601 40596 40575 40620 40526 40587 40626 40617 40663 40692 40661 40591 40566 40532 40460 40461 40355 40442 40539 40564 40582 40562 40576 40537 40528 40495 40342 40340 40242 40278 40236 40245 40048 40064 40023 40276 40150 40130 40268 40392 40452 40467 40470 40704 40681 40726 40931 40861 40834 40929 40837 40920 40741 40852 40780 40805 40937 40967 40870 40969 40959 40870 40977 40949 40921 40982 40899 40939 40861 40712 40941 40890 40748 41041 40873 41040 41161 41154 41285 41291 41408 41447 42091 42291 42435 43065 43301 43044 42704 42619 42675 42516 42436 42345 42280 42195 42089 42102 42177 42286 42410 42503 42644 42778 42866 42882 42823 42754 42607 42424 42456 42562 42935 43511 44273 44620 44565 44028 43768 44022 43947 44114 44366 44297 44384 44290 44191 44323 44450 44649 44768 44681 44755 44813 44720 44549 45061 45219 44873 44566 44567 44442 44385 44536 44513 44402 44408 44361 44353 44395 44313 44169 44258 44413 44942 45335 45637 45824 46005 46145 46053 45786 45726 45853 45805 45776 45587 45321 45133 44982 44911 44808 44746 44553 44387 44190 43852 43585 43255 43034 42772 42505 42355 42185 42207 42184 42320 42523 42756 42917 43022 43268 43617 43895 44076 44228 44485 44705 44849 45020 45039 44949 45001 45017 45046 45148 45272 45389 45428 45508 45605 45682 45681 45564 45433 45316 45155 44928 44756 44805 44900 44803 44865 44824 44465 44570 44390 44072 43842 43977 43904 43699 43543 43506 43503 43393 43622 43612 43092 42968 42757 42459 42621 42665 42752 42641 42472 42335 42239 42101 41906 41768 41638 41597 41499 41632 41574 41509 41490 41409 41292 41189 41018 40871 40680 40439 40254 40177 40045 40048 39898 39839 39828 39778 39696 39630 39497 39433 39267 39144 38948 38846 38730 38737 38784 38881 38890 38994 39059 39030 39147 39147 39206 39184 39120 39074 38926 38815 38750 38626 38587 38574 38557 38516 38505 38490 38539 38481 38404 38478 38496 38519 38682 38655 38632 38666 38608 38810 38899 39000 39028 38943 38917 38869 38883 38845 38913 38947 38963 38950 38946 38944 38920 38899 38881 38874 38758 38661 38576 38522 38509 38457 38464 38481 38462 38560 38710 39054 39390 39726 40001 40300 40580 40983 41289 41620 41667 41911 41927 41946 41868 41764 41590 41529 41347 41096 41070 40845 40774 40811 40752 40692 40748 40832 40982 40916 41036 41009 40887 40776 40785 40646 40760 40722 40689 40743 40596 40676 40563 40544 40570 40494 40445 40481 40416 40512 40774 40555 40494 40653 40693 40473 40542 40345 40291 40254 40057 40074 39935 39873 39906 39833 39858 39823 39903 39888 39950 40154 40201 40404 40245 40331 40217 40262 40379 40428 40554 40601 40781 40994 41054 41068 41196 41156 41101 40961 40908 40709 40778 40632 40820 40787 40793 40817 40840 40702 40749 40636 40699 40727 40661 40775 40636 40534 40401 40231 40145 40102 40057 40191 40153 40190 40111 40011 39947 39836 39798 39723 39737 39727 39679 39600 39602 39496 39492 39432 39329 39165 38979 38954 38800 38738 38660 38476 38550 38506 38596 38606 38636 38607 38561 38433 38322 38233 38107 38071 37999 37870 37826 37703 37666 37608 37548 37394 37309 37244 37200 37254 37192 37309 37306 37738 37826 38035 38550 38554 38900 39096 39198 39576 39533 39657 39747 39907 40027 39777 39589 39457 39295 39302 39362 39741 40234 40455 40342 40427 40629 40846 41007 41094 41056 40865 40876 40616 40586 40490 40363 40183 39950 39708 39546 39344 39191 39070 38967 38837 38759 38710 38649 38560 38527 38469 38384 38275 38180 38111 38019 37945 37904 37930 37914 37947 37905 37955 38037 38013 37985 37900 37826 37739 37752 37789 38016 38339 39528 40981 42481 42882 42536 42277 41923 41747 42036 41582 41438 41491 41476 41572 41722 41878 42005 42116 42270 42406 42515 42587 42640 42744 42829 42933 43078 43242 43428 43569 43537 43440 43362 43321 43366 43508 43749 43896 44705 44786 44818 44782 44754 44772 44752 44774 44789 44820 44844 44871 44793 44822 44830 44818 44834 44849 44881 44906 44939 44979 44984 45126 45268 45447 45813 45893 45469 45127 44804 44679 44866 45146 45207 45555 45745 45661 45544 45474 45484 45389 45425 45401 45322 45323 45295 45338 45333 45212 45307 45151 45067 45073 45117 44930 44735 44627 44551 44595 44579 44539 44544 44440 44250 44252 44359 44359 44398 44304 43893 43932 43836 43828 43943 43739 44031 44102 43926 44078 44044 43877 43805 44028 43872 43747 43844 43896 43797 43814 43856 43850 43977 43954 44062 44070 43983 44032 44031 43890 43920 44105 44559 44924 45375 45601 45614 45676 45516 45502 45393 45511 45383 45171 45101 44872 44700 44491 44356 44175 43973 43918 43746 43705 43634 43640 43511 43425 43353 43238 42878 42854 42585 42599 42551 42440 42334 42313 42222 42202 42148 42145 42080 41984 41998 41651 41776 41450 41501 41579 41444 41571 41446 41312 41463 41299 41299 41235 41091 40917 40750 40758 40714 40866 40982 40889 40991 40845 40871 40864 40773 40750 40547 40706 40569 40540 40547 40370 40431 40389 40434 40327 40307 40337 40278 40332 40360 40322 40380 40311 40279 40201 40210 40198 40247 40189 40251 40207 40219 40212 40100 40172 40139 40010 39958 39817 39704 39547 39464 39408 39374 39226 39153 39171 39105 39082 38972 39094 39048 38918 38814 38848 38871 38813 38771 38730 38807 38714 38790 38741 38757 38636 38854 38852 38923 38659 38835 38682 38847 38918 38869 38966 38792 38958 39066 39121 39239 39264 39405 39514 39417 39430 39559 39601 39526 39486 39481 39489 39276 39249 39407 39279 39364 39086 39041 39179 39289 39195 39189 39219 39333 39346 39211 39382 39505 39207 39451 39351 39437 39278 39496 39441 39621 39555 39573 39540 39737 39861 39916 39992 39991 39914 40051 40056 40104 40049 40143 40061 39887 39994 39782 39954 39964 40031 39915 39958 40010 40244 40142 40288 40363 40521 40311 40486 40660 41166 41076 41084 42184 42262 42396 42390 42529 42479 42309 42341 42220 42091 42026 41904 41773 41665 41536 41379 41278 41180 41095 41033 40994 40976 40972 40921 40898 41001 41183 41330 41752 42107 42390 42371 42050 41958 42195 42245 42266 42362 42486 42512 42532 42436 42383 42446 42854 42836 43399 44130 44463 44836 45235 45443 45496 45565 45357 45162 45073 45104 45075 45074 45082 45110 45053 45162 45118 45131 45090 45240 45243 45185 45240 45288 45459 45551 45769 45802 46030 46134 46140 46422 46376 46372 46535 46441 46461 46370 46390 46247 46269 46352 46182 46319 46211 46318 46336 46359 46347 46199 46243 46123 45975 45866 45597 45716 45378 45281 45303 45116 45080 44927 44844 44776 44690 44716 44521 44606 44502 44257 44268 44062 44042 43785 44023 43864 43831 43705 43672 43423 43629 44072 44538 44912 44727 44831 44921 45264 45547 45996 46311 46875 46944 47012 47130 47066 47063 47003 47000 46790 46586 46479 46297 46226 46174 46023 46013 45890 45824 45896 45778 45809 45757 45849 45829 45860 45977 46046 46290 46398 46577 46686 46870 46943 47194 47353 47467 47606 47714 47871 47988 48044 48112 48112 48116 48114 48108 48111 48110 48111 48118 48107 48113 48112 48110 48106 48111 48110 48105 48113 48107 48116 48108 48113 48110 48110 48116 48115 48108 48110 48115 48111 48110 48109 48107 41911 41772 41656 41569 41361 41285 41148 41042 40997 40902 40861 40762 40747 40615 40512 40264 40130 40063 39956 39832 39721 39592 39541 39394 39332 39322 39189 39104 39008 38947 38901 38883 38750 38575 38488 38366 38289 38258 38230 38134 38088 37917 37894 37731 37745 37720 37657 37633 37565 37470 37355 37309 37192 37191 37111 37060 37064 37081 37059 37092 37095 37121 37121 37102 37105 36979 36911 36803 36808 36763 36725 36595 36212 36378 36363 36374 36279 36401 36409 36437 36227 36672 36645 36521 36553 36759 36811 36839 37014 37227 37410 37682 37921 38035 38226 38381 38707 38850 38912 39214 39333 39410 39546 39674 39868 40059 40173 40273 40475 40596 40764 40820 40905 41049 41118 41111 41051 41137 41169 41325 41392 41440 41429 41481 41526 41642 41685 41678 41793 41794 41835 41769 41779 41840 41835 42077 42291 42579 42903 42572 42422 42094 41902 41823 41788 41702 41825 41633 41539 41572 41169 41214 41087 40859 40889 40716 40617 40460 40394 40271 40316 40189 40032 40005 39975 39798 39633 39444 39353 39154 39059 38859 38880 38730 38650 38610 38485 38371 38346 38293 38176 38109 37931 37796 37611 37392 37371 37210 37145 37109 37042 36974 36939 36817 36695 36726 36657 36675 36703 36441 36454 36279 36236 36181 36129 36205 36196 36233 36195 36228 36219 36201 36144 36228 36167 36228 36162 36082 36001 35917 35898 35807 35879 35899 35811 35900 35926 35869 35855 35888 35922 36004 35709 35860 35550 35843 36136 35879 35971 35955 35799 35972 35874 36054 36163 36102 36099 36056 36171 36226 36290 36205 36316 36235 36204 36288 36383 36408 36379 36440 36478 36345 36488 36536 36455 36524 36567 36568 36608 36740 37079 37701 38256 38801 39058 39030 38990 38923 38985 39201 39284 39538 39688 40120 40289 40622 40801 40971 40747 40463 40223 40238 40206 40257 40146 40200 40174 40079 40114 40058 40099 40000 40002 39925 39877 39696 39673 39565 39467 39397 39350 39312 39264 39275 39224 39201 39157 39082 38972 39021 38952 38882 38647 38777 38609 38737 38817 39107 39390 39555 39633 39642 39610 39630 39590 39679 39698 39754 39811 39941 39911 40142 40272 40182 40281 40296 40263 40273 40321 40489 40519 40654 40675 40906 40894 41011 41063 41235 40992 41059 40893 40845 40817 40845 40762 40812 40758 40803 40696 40815 40913 41235 41260 41269 41407 41283 41351 40984 40967 40816 40708 40625 40467 40354 40254 40248 40232 40190 40177 40131 40181 39966 39910 39686 39718 39566 39542 39326 39402 39290 39346 39225 38948 39182 39261 39257 39223 39301 39328 39211 39171 39096 39050 39073 38894 38891 38818 38705 38679 38528 38490 38449 38397 38192 38223 38147 38088 37921 37832 37699 37491 37513 37461 37447 37294 37308 36974 37141 37024 37092 36986 37170 37007 37105 37073 37087 37046 37020 36969 36961 36933 36945 37030 37089 37082 37143 37062 37124 37175 37206 37202 37148 37160 37072 37075 36848 36966 36899 36778 36815 36750 36669 36653 36770 36792 36735 36787 36818 36798 36813 36731 36738 36692 36714 36684 36672 36648 36614 36612 36570 36495 36591 36591 36597 36614 36608 36680 36638 36575 36621 36567 36569 36596 36573 36565 36619 36615 36596 36610 36666 36656 36695 36697 36651 36745 36697 36731 36804 36767 36790 36863 36999 36701 36799 36908 36942 37005 37218 37163 37286 37344 37330 37453 37374 37413 37398 37356 37367 37416 37366 37398 37435 37456 37454 37471 37537 37509 37529 37552 37493 37474 37511 37431 37389 37976 38823 39085 39098 39141 39174 38912 38973 38823 38585 38372 38103 37940 37714 37722 37948 38287 38536 38789 39112 39392 39527 39690 39710 39767 39909 40009 40103 39979 39761 39759 40093 40365 40569 40728 40876 40987 41127 41317 41399 41352 41332 41355 41352 41309 41336 41364 41440 41523 41555 41617 41617 41665 41588 41544 41549 41589 41584 41599 41602 41702 41767 41829 41792 41795 41749 41734 41694 41596 41660 41691 41591 41538 41557 41599 41626 41716 41690 41585 41471 41405 41350 41420 41481 41374 41557 41303 41170 41066 40789 40524 40456 40377 40434 40175 39990 39726 39443 39009 38961 38764 38684 38686 38818 38757 38810 38551 38643 38305 38096 37847 37639 37493 37324 37163 36981 36913 37024 37125 37219 37387 37591 37584 37713 37649 37487 37251 37029 36855 36558 36485 36384 36144 36128 35857 35727 35529 35406 35299 35193 35165 35140 35159 35209 35336 35303 35346 35290 35084 35118 34937 34837 34739 34657 34590 34576 34529 34471 34408 34404 34324 34311 34237 34190 34239 34114 34129 34141 34110 34077 34305 34363 34523 34461 34416 34381 34339 34271 34190 34203 34096 34048 34067 33956 33946 33965 33868 33864 33764 33826 33794 33868 33859 33929 33927 33881 33890 33875 33882 33858 33890 33943 33935 33950 34051 34071 34086 33939 33955 33944 33899 33757 33951 33917 34048 34141 34161 34247 34263 34338 34388 34501 34614 34717 34713 34732 34753 34753 34853 34934 34949 34871 34991 35100 35255 35256 35366 35393 35456 35226 35183 35465 35516 35433 35352 35385 35499 35622 35605 35651 35666 35669 35559 35557 35642 35727 35781 35697 35697 35597 35680 35652 35752 35845 36018 36197 36221 36186 36035 35934 35766 35700 35501 35426 35435 35301 35234 35198 35198 35145 35129 35105 35008 34907 34831 34797 34681 34680 34662 34544 34524 34303 34301 34426 34424 34363 34318 34300 34292 34265 34222 34234 34198 34173 34134 34090 34006 34024 34081 34150 34211 34116 34261 34249 34225 34222 34226 34325 34345 34363 34346 34289 34207 34358 34352 34284 34380 34377 34311 34411 34430 34443 34118 34621 34664 34788 34683 34689 35043 35108 35159 35285 35125 35304 35345 35346 35499 35555 35631 35655 35720 35795 35944 36062 35996 36138 36275 36389 36503 36546 36586 36642 36704 36702 36794 36845 36977 37063 37086 37223 37328 37253 37229 37321 37515 37493 37528 37560 37559 37588 37571 37582 37573 37589 37599 37664 37604 37558 37563 37489 37458 37402 37434 37589 37525 37419 37573 37655 37726 37783 37855 37955 38029 38105 38154 38197 38155 38136 38150 38126 38094 38072 38045 37995 37972 37943 37927 37960 37990 37894 37603 37424 37563 37687 37742 37768 37842 37927 37968 38047 38043 37978 37900 37839 37818 37766 37598 37693 37604 37697 37720 37690 37794 37880 37908 37907 37871 37849 37876 37879 37885 37881 37897 37857 37872 37859 37711 37814 37821 37566 37819 37536 37780 37551 37924 37890 38035 37989 37980 38095 38072 37981 37952 37923 37929 37900 37908 37936 37901 37903 37610 37684 37665 37737 38044 38121 38739 37613 37588 38087 38193 38520 39083 39129 38895 38913 38911 38900 38812 38841 38746 38799 38724 38652 38509 38507 38503 38518 38440 38427 38403 38354 38340 38270 38253 38169 38065 38006 37987 37950 37820 37934 37799 38033 37901 37987 37926 37988 38025 38025 37933 37926 37872 37872 37890 37867 37810 37739 37684 37648 37613 37553 37462 37276 37260 37225 37234 37234 37227 37165 37133 37070 37077 37074 37111 37115 37058 37026 36961 36979 36891 36789 36807 36782 36766 36834 36790 36854 36776 36844 36877 36860 36850 36854 36821 36827 36837 36905 36920 36956 36974 37005 37041 37040 37026 36993 36978 36992 37040 36992 36899 37145 37290 37305 37481 37432 37455 37460 37464 37439 37405 37441 37456 37504 37510 37508 37507 37504 37541 37543 37560 37588 37561 37546 37194 37652 37384 37368 37248 37201 37337 37403 37421 37413 37330 37334 37358 37434 37386 37417 37446 37384 37500 37441 37490 37464 37481 37443 37373 37376 37289 37299 37297 37204 37164 37189 37250 37279 37266 37243 37240 37314 37415 37513 37548 37517 37486 37406 37411 37278 37319 37292 37261 37113 37130 37037 37061 37096 37137 37063 36979 36952 36898 36901 36917 36896 36850 36886 37015 37082 37147 37210 37313 37212 37160 37099 37123 37036 36924 36860 36804 36785 36850 36908 37070 37185 37209 37219 37241 37309 37364 37413 37115 37436 37581 37630 37670 37628 37523 37550 37563 37537 37526 37321 37524 37365 37425 37312 37264 37284 37326 37315 37319 37365 37368 37395 37407 37366 37164 37134 37148 37325 37320 37390 37373 37409 37494 37520 37345 37554 37384 37391 37249 37201 37136 37164 37178 37182 37190 37162 37137 37141 37080 36999 36937 36802 36694 36631 36587 36492 36455 36406 36326 36276 36238 36185 36193 36135 36125 36012 35953 36025 36073 36023 35943 35963 35972 36015 35982 36093 36129 36118 35991 35941 35787 35841 35720 35791 35712 35759 35834 35927 36007 36110 36145 36256 36264 36317 36282 36165 36155 36134 36076 36056 35993 35842 35839 35691 35631 35539 35445 35305 35165 35066 34942 34884 34936 34883 34922 34965 34982 35031 34982 34953 34920 34943 34898 34852 34825 34825 34838 34869 34898 35095 35448 35819 36224 36797 37243 37405 37568 37668 37782 37914 38053 37977 37914 37684 37587 37473 37318 37291 37201 37160 37152 37138 37090 37183 37472 38119 38515 38763 39176 39235 39401 39421 39393 39686 39623 39774 39658 39616 39561 39466 39400 39336 39215 39197 39137 39137 39559 39883 40061 40325 40342 40633 40642 40774 40855 40863 40852 40867 40867 40831 40863 40809 40754 40690 40703 40716 40715 40757 40703 40624 40545 40455 40434 40377 40424 40380 40312 40406 40376 40422 40484 40497 40422 40339 40221 40224 40131 40178 40100 40075 40087 40061 40002 39898 39835 39652 39482 39306 39100 38940 38707 38519 38422 38172 37984 37771 37582 37412 37062 36795 36433 36188 35977 36008 35892 35913 36042 36143 36042 35980 36013 35776 35560 35358 35175 35012 34869 34759 34757 34631 34695 34664 34625 34588 34552 34429 34317 34225 34176 34118 34127 34124 34196 34202 34244 34237 34318 34311 34243 34138 34142 34116 34053 34108 34090 34101 34093 34129 34130 34148 34141 34071 34095 34078 34098 34070 34119 34137 34197 34255 34359 34455 34539 34622 34686 34686 34634 34557 34498 34493 34545 34539 34535 34481 34435 34432 34406 34283 34226 34078 34094 34029 34033 33985 33989 33951 33934 33899 33898 33891 33934 33938 33904 33872 33796 33784 33728 33718 33698 33714 33676 33662 33603 33565 33505 33504 33462 33439 33413 33406 33376 33408 33454 33536 33619 33618 33769 33846 33857 33879 33857 33936 33987 34153 34235 34261 34192 34242 34258 34281 34271 34171 34126 34048 34006 33964 33951 33970 33980 34071 34124 34240 34458 35229 35837 36200 36528 36415 36375 36180 36002 35836 35682 35574 35447 35361 35182 35100 34955 34893 34777 34714 34609 34542 34530 34578 34619 34687 34769 34837 34850 34838 34844 34820 34750 34707 34569 34597 34558 34616 34584 34557 34462 34395 34312 34265 34183 34179 34158 34142 34139 34138 34097 34141 34135 34042 33942 33837 33788 33721 33867 33971 34007 34238 34475 34531 34468 34610 34573 34549 34613 34611 34638 34697 34729 34802 34944 35019 35062 35170 35228 35217 35203 35277 35279 35331 35370 35409 35385 35386 35376 35270 35366 35215 35199 35135 35095 35023 35082 35056 35121 35205 35277 35258 35217 35188 35115 34996 34983 34926 35025 35002 35150 35154 35218 35152 35188 35130 35172 35071 34998 34908 34837 34815 34785 34695 34690 34659 34628 34614 34542 34470 34406 34296 34231 34226 34180 34143 34077 34175 34238 34439 34550 34693 34716 34672 34632 34635 34671 34581 34605 34527 34566 34555 34548 34569 34579 34487 34510 34476 34481 34408 34364 34298 34331 34422 34464 34510 34471 34785 35131 35260 35377 35326 35470 35621 35674 35831 35904 35820 35702 35610 35621 35550 35575 35620 35655 35654 35606 35493 35438 35231 35115 35011 34952 34923 35061 35035 35149 35084 35320 35215 35367 35281 35401 35452 35342 35405 35399 35297 35319 35413 35405 35484 35540 35558 35456 35427 35312 35241 35206 35074 35030 34990 35121 35411 35703 35932 36352 36845 37010 37049 37147 37101 36923 36796 36644 36442 36308 36248 36363 36608 36988 37302 37607 37996 38280 38497 38703 38918 39182 39424 39737 40157 40519 40764 41189 41474 41605 41507 41450 41420 41419 41391 41394 41524 41581 41641 41697 41733 41828 41785 41740 41794 41816 41900 41973 42021 42155 42115 42175 42044 42130 42035 41866 41703 41677 41549 41468 41266 41135 40916 40768 40637 40460 40283 40006 39731 39430 39215 38968 38788 38562 38421 38174 38082 37924 37787 37575 37382 37184 36998 36864 36698 36636 36557 36438 36336 36246 36215 36120 35943 35791 35604 35465 35322 35297 35228 35204 35176 35145 35158 35068 34900 34761 34674 34527 34509 34468 34435 34481 34484 34494 34491 34472 34411 34320 34193 34109 33984 33960 33882 33852 33836 33751 33735 33631 33671 33533 33580 33510 33444 33399 33390 33382 33347 33333 33303 33306 33322 33275 33247 33235 33280 33312 33365 33351 33402 33424 33529 33490 33473 33372 33264 33165 33061 33001 32978 32902 32834 32775 32686 32645 32558 32506 32401 32315 32286 32207 32278 32330 32388 32490 32629 32738 32876 32934 32890 32879 32896 32916 32965 33023 33085 33044 33088 33130 33196 33302 33396 33353 33325 33326 33334 33348 33398 33399 33444 33500 33516 33660 33704 33802 33901 34025 34104 34169 34152 34169 34182 34140 34085 34125 34079 34069 34015 34067 34078 34041 33977 33963 33871 33760 33673 33578 33463 33373 33266 33169 33097 33027 32956 32898 32838 32842 32846 32797 32810 32768 32770 32742 32754 32753 32710 32687 32672 32615 32581 32558 32467 32396 32406 32395 32401 32396 32342 32321 32297 32278 32225 32267 32260 32226 32132 31934 31798 31940 32537 33351 34063 34729 35349 35871 36531 37014 37518 37947 38300 38580 38679 38845 38931 38925 38810 38747 38632 38537 38506 38721 38927 39130 39372 39539 39767 39877 39986 40153 40223 40321 40368 40397 40436 40516 40576 40588 40603 40626 40600 40622 40688 40774 40864 40907 40965 41007 40910 41034 41052 41027 41116 41142 41224 41266 41359 41405 41469 41510 41563 41574 41552 41506 41364 41241 41114 41010 40899 40813 40711 40639 40447 40286 40116 39846 39532 39275 39064 39035 38766 38651 38471 38301 38117 38065 38068 37955 37903 37800 37764 37739 37698 37629 37413 37436 37083 37168 37044 37154 36994 37009 36934 36965 37016 37121 37084 37144 37126 37196 37137 37040 36875 36692 36501 36318 36232 36105 36040 36000 35930 35838 35837 35714 35540 35373 35304 35171 35077 34946 34867 34746 34538 34450 34174 33823 33633 33400 33393 33360 33426 33462 33479 33545 33528 33603 33567 33559 33485 33450 33384 33399 33412 33460 33529 33614 33644 33769 33816 33789 33796 33789 33782 33795 33850 33915 33920 33971 33967 34007 34012 33945 33934 33826 33760 33678 33698 33619 33651 33634 33612 33567 33594 33611 33645 33691 33750 33772 33719 33629 33527 33470 33445 33400 33363 33283 33285 33241 33280 33280 33284 33285 33350 33327 33358 33408 33498 33540 33537 33566 33608 33581 33624 33650 33700 33898 34002 34122 34188 34204 34270 34225 34252 34212 34224 34229 34253 34227 34146 34139 34041 33963 33835 33796 33755 33631 33592 33511 33521 33419 33457 33529 33461 33482 33541 33523 33524 33444 33450 33487 33383 33209 32961 32713 32578 32379 32347 32230 32228 32221 32196 32242 32283 32262 32326 32274 32195 32204 32288 32373 32297 32374 32253 32236 32332 32268 32188 32136 32002 31906 31872 31861 31804 31872 31850 31990 31884 32031 32076 31934 32119 32230 32383 32371 32532 32729 32803 32784 32883 32875 32874 32781 32700 32696 32598 32594 32564 32537 32403 32366 32305 32254 32166 32048 32035 31928 31968 31928 31970 31975 32067 32076 32272 32306 32361 32328 32230 32230 32170 32050 32076 31963 31990 31874 31951 31934 32024 32028 32004 31979 31970 31890 31872 31925 31806 31844 31720 32030 32289 32531 32470 32549 32650 32849 32876 33069 33142 33389 33628 33999 34318 34411 34544 34753 34867 34909 34929 34972 34915 34943 34936 34918 34965 34957 34875 34860 34821 34776 34919 34723 34925 34955 34875 35052 35066 35011 35073 34955 34985 34914 34841 35117 34955 35031 35062 35025 34998 34960 34915 34952 34944 35023 34954 35011 35044 35000 35048 35018 34814 35039 34916 34841 34940 34768 35066 34986 35231 35188 35170 35336 35206 35260 35259 35266 35229 35212 35212 35297 35269 35406 35273 35293 35264 35197 35247 35267 35259 35279 35340 35352 35378 35394 35336 35334 35254 35324 35243 35235 35404 35407 35449 35444 35520 35553 35614 35783 35819 36002 36120 36309 36273 36498 36418 36629 36728 36683 36560 36650 37045 36953 37132 37172 37319 37444 37407 37479 37501 37599 37621 37676 37689 37746 37690 37770 37666 37672 37610 37590 37626 37566 37580 37583 37534 37421 37329 37537 37479 37544 37413 37700 37591 37893 37971 37892 38137 38082 38198 38136 38228 38127 38182 38183 38189 38154 38115 38097 38074 38025 37951 37942 37906 37883 37787 37736 37690 37654 37649 37568 37498 37418 37335 37274 37234 37156 37083 37014 36980 36967 36944 36857 36709 36547 36582 36540 36534 36336 36504 36394 36548 36514 36721 36675 36775 36925 36872 36962 37082 37384 37720 37869 38061 38214 38328 38474 38514 38590 38648 38822 38852 38932 38806 38773 38898 39533 40255 40473 40429 40227 39931 39594 39304 39070 38942 38818 38865 38853 38856 38767 38653 38560 38357 38262 38153 38057 37987 37912 37857 37856 37809 37788 37669 37599 37460 37392 37240 37244 37170 37161 37144 37219 37425 37740 37829 37747 37748 37761 37849 37930 37930 38025 38071 38183 38347 38153 38325 38204 38106 37936 37811 37638 37740 37586 37557 37503 37466 37155 37141 36924 36871 36736 36653 36529 36437 36365 36301 36259 36207 36118 36004 35929 35869 35792 35740 35684 35555 35446 35294 35226 35068 34902 34738 34641 34551 34461 34375 34292 34253 34219 34169 34109 34033 33977 33881 33784 33689 33611 33548 33481 33397 33309 33200 33135 33050 32956 32845 32743 32699 32645 32605 32567 32581 32590 32714 32790 32905 32911 32889 32831 32773 32717 32647 32583 32522 32471 32385 32327 32181 32105 31974 31795 31668 31514 31454 31332 31292 31259 31177 31144 31116 31036 30986 30947 30935 30979 30980 30985 30985 30965 30948 30912 30949 30869 30759 30677 30509 30410 30288 30168 30092 29992 29927 29874 29821 29714 29645 29587 29524 29526 29440 29473 29419 29412 29418 29465 29516 29493 29528 29498 29492 29509 29466 29440 29401 29355 29301 29214 29164 29111 29030 28998 28900 28909 28841 28835 28784 28848 28811 28826 28877 28911 28973 28978 28961 28941 28911 28821 28781 28737 28751 28708 28720 28711 28717 28684 28682 28639 28638 28614 28625 28650 28600 28574 28626 28571 28634 28629 28570 28640 28674 28701 28714 28848 28814 28874 28904 28985 28892 28940 28879 28809 28786 28762 28790 28748 28767 28724 28708 28770 28742 28685 28752 28582 28612 28560 28660 28556 28880 29016 29169 29275 29475 29772 29914 30180 30305 30319 30302 30261 30176 30183 30166 30126 30006 30028 29928 29895 29867 29876 29898 29807 29807 29806 29831 29810 29853 29874 29920 29855 29995 30102 30272 30642 30722 30883 30989 31035 31242 30881 31329 31874 31793 32156 32444 31987 32568 32943 33119 33590 33793 33846 34128 34236 34371 34456 34535 34577 34654 34713 34911 35058 35110 35180 35199 35176 35119 35085 35106 35120 35164 35163 35192 35181 35053 34911 34781 34568 34448 34266 34191 34052 33996 33888 33852 33803 33817 33858 33935 34089 34170 34196 34209 34163 34153 34173 34112 34114 34204 34516 34719 34844 34857 34851 34712 34768 34793 34770 34764 34730 34684 34639 34554 34494 34395 34298 34192 34130 34088 33930 33943 33876 33831 33780 33743 33708 33600 33572 33484 33436 33380 33340 33283 33252 33257 33342 33523 33735 33853 33852 33369 33577 33558 34085 34071 34193 34621 34690 34885 35293 35283 35569 35697 35636 35272 34977 36176 37786 38789 38589 38359 38311 38172 37836 37740 37590 37495 37430 37418 37516 37619 37751 37911 37964 38361 38552 38691 38826 38863 38985 39115 39286 39635 40106 40395 40606 40794 40918 41074 41106 41066 41035 41013 41084 41141 41195 41190 41202 41231 41350 41361 41390 41417 41419 41406 41374 41392 41406 41429 41484 41496 41528 41573 41546 41579 41527 41457 41348 41246 41244 41351 41451 41508 41716 42020 41783 41579 41318 41186 41123 41008 40610 40353 40171 39982 39801 39605 39333 39011 38756 38515 38343 38283 38246 38311 38434 38410 38827 38214 39000 38659 38350 38888 38443 38476 37966 38235 38294 38136 38281 38203 38200 37961 37933 37903 37829 37707 37657 37637 37610 37547 37481 37374 37324 37219 37054 36869 36737 36616 36536 36733 36986 37214 38110 38630 38535 38164 37894 37596 37452 37367 37255 37151 37011 37026 37076 37092 37139 37196 37132 36963 36909 36886 37110 37593 37897 38037 38184 38357 38716 39000 39081 38832 38732 38842 38767 38522 38142 37943 37918 37921 37946 37900 37918 37925 37846 37767 37783 37792 37905 38013 38209 38389 38428 38467 38370 38177 38020 37776 37622 37525 37450 37386 37365 37337 37286 37261 37233 37224 37194 37150 37100 36964 36925 36825 36713 36645 36550 36527 36483 36419 36320 36244 36195 36154 36128 36118 36078 36054 36124 36265 36379 36272 36231 36187 36064 35993 35946 35888 35867 35895 35855 35812 35804 35738 35696 35598 35582 35466 35449 35408 35401 35333 35275 35218 35112 35101 34918 34856 34784 34659 34589 34565 34479 34408 34349 34091 33953 33799 33736 33679 33712 33614 33711 33631 33670 33654 33622 33624 33558 33663 33584 33541 33481 33440 33436 33391 33369 33375 33392 33374 33375 33287 33323 33241 33251 33185 33223 33131 33143 33184 33162 33222 33214 33195 33231 33479 33241 33473 33472 33476 33610 33723 33827 33922 34192 34138 34278 34353 34238 34363 34370 34367 34353 34368 34502 34450 34506 34492 34418 34459 34459 34407 34577 34485 34662 34492 34615 34583 34567 34663 34640 34613 34633 34590 34509 34465 34355 34322 34304 34305 34309 34309 34344 34326 34259 34285 34382 34499 34522 34589 34565 34622 34634 34711 34765 34806 34810 34741 34687 34576 34485 34281 34187 34045 33910 33784 33475 32999 32882 32729 32711 32603 32563 32487 32466 32427 32394 32447 32519 32495 32653 32650 32692 32741 32718 32744 32721 32771 32733 32775 32762 32779 32768 32773 32738 32734 32615 32608 32615 32546 32538 32501 32525 32601 32631 32743 32707 32856 32839 32774 32824 32697 32779 32703 32791 32688 32766 32615 32654 32617 32561 32607 32611 32582 32526 32477 32399 32406 32381 32360 32445 32408 32526 32521 32538 32588 32651 33112 33521 33996 34566 34946 35331 35680 35810 35980 35915 35789 35545 35439 35302 35076 34974 34872 34762 34793 34724 34679 34842 34798 34980 35386 35793 36083 36298 36430 36488 36422 36344 36248 36065 36102 35754 35772 35586 35549 35460 35308 35284 35094 35104 34951 34787 34766 34683 34579 34536 34493 34406 34365 34268 34192 34136 33908 33912 33752 33658 33563 33474 33466 33364 33198 33228 33092 33083 32968 32856 32782 32728 32606 32605 32489 32500 32460 32454 32461 32462 32438 32377 32279 32218 32158 31992 32035 31894 31975 31906 31912 31888 31836 31764 31699 31665 31609 31569 31523 31439 31460 31433 31396 31424 31370 31417 31396 31363 31347 31246 31243 31266 31188 31218 31224 31123 31167 31219 31161 31092 31113 31032 31020 31002 30994 30965 30969 30946 30925 30946 30855 30848 30807 30764 30736 30754 30711 30703 30641 30626 30536 30614 30621 30565 30414 30545 30434 30667 30596 30580 30598 30553 30567 30567 30571 30507 30460 30403 30392 30337 30315 30284 30273 30242 30236 30173 30158 30636 30905 31351 31507 31651 31615 31717 31684 31685 31639 31676 31617 31618 31565 31562 31502 31481 31421 31457 31461 31408 31444 31396 31465 31457 31387 31388 31323 31240 31246 31134 31159 31085 31081 31035 31016 31033 30996 31000 30951 30780 30929 30971 31020 31047 31026 31154 31125 31194 31181 31216 31197 31204 31182 31166 31185 31315 31361 31387 31409 31339 31324 31307 31267 31279 31212 31180 31129 31214 31327 31322 31418 31383 31477 31438 31574 31562 31603 31651 31623 31606 31588 31587 31585 31576 31580 31546 31522 31474 31441 31389 31378 31279 31363 31368 31310 31407 31388 31395 31453 31353 31429 31253 31315 31269 31210 31250 31201 31338 31403 31263 31566 31595 31800 31815 31769 31860 31817 31964 31994 32016 32038 32094 32187 31926 32306 32406 32502 32494 32540 32596 32611 32620 32678 32679 32700 32719 32703 32665 32710 32716 32637 32667 32670 32704 32751 32811 32837 32919 32983 33070 33115 33136 33136 33141 33247 33354 33400 33561 33586 33618 33713 33834 33874 33894 33996 34017 34027 34061 34050 34066 34125 34139 34183 34344 34345 34416 34428 34464 34491 34520 34514 34489 34485 34494 34500 34485 34504 34527 34587 34609 34692 34666 34624 34606 34571 34524 34589 34543 34612 34587 34601 34628 34643 34675 34637 34647 34593 34626 34663 34639 34633 34624 34637 34652 34668 34740 34722 34762 34719 34678 34696 34686 34686 34658 34634 34637 34606 34634 34647 34631 34562 34524 34477 34487 34480 34489 34495 34459 34475 34438 34401 34352 34273 34169 34038 33968 33887 33737 33672 33623 33602 33461 33479 33437 33429 33343 33253 33175 33100 33076 33013 33012 32971 33001 32990 33003 32990 32991 32918 33044 33009 33016 33021 32995 33034 33031 33014 33016 32996 32973 32991 32996 32954 32902 32852 32880 32954 33076 33178 33196 33464 33446 33702 33870 34009 34069 34093 34170 34217 34295 34454 34499 34614 34751 34840 34827 34906 34918 34936 34892 34878 34830 34845 34868 34822 34784 34775 34781 34780 34766 34718 34652 34594 34496 34476 34454 34418 34366 34325 34340 34346 34333 34327 34301 34250 34146 34082 33992 34022 33947 33918 33927 33784 33848 33825 33789 33789 33715 33699 33640 33544 33533 33527 33595 33548 33547 33558 33528 33531 33522 33477 33423 33381 33289 33259 33324 33581 34044 34588 35068 35679 36033 36363 36538 36368 36624 36831 37042 37280 37467 37974 38273 38716 39016 39302 39568 39749 39980 40130 40333 40505 40612 40754 40926 40897 41061 41079 41079 41175 41103 40970 40816 40791 40647 40595 40556 40426 40416 40254 40270 40163 40147 40145 39966 39866 39642 39537 39435 39224 39160 38970 38923 38733 38782 38603 38709 38634 38642 38591 38468 38596 38474 38414 38308 38019 37927 37656 37578 37330 37158 36982 36742 36488 36283 36091 35901 35693 35549 35355 35269 35134 35039 34884 34803 34715 34670 34675 34792 34793 34884 34861 34880 34908 34909 34998 35024 35256 35392 35529 35715 35863 36052 36360 36604 36835 37055 37182 37404 37568 37909 38018 38117 38218 38259 38516 38466 38781 38835 38786 39073 39090 39179 39231 39193 39258 39096 39194 39024 39234 39285 39613 39923 40162 39887 39625 39375 39143 38977 38755 38566 38313 38089 37958 37797 37722 37646 37584 37508 37356 37335 37288 37196 37066 37030 36924 36808 36674 36611 36542 36463 36362 36300 36229 36109 36038 35979 35876 35806 35658 35532 35471 35404 35262 35170 35212 35117 34953 35103 35070 35134 35166 35185 35180 35096 34985 34882 34797 34739 34650 34667 34645 34630 34595 34551 34491 34475 34448 34341 34259 34126 34059 34002 33906 33876 33831 33747 33719 33673 33632 33593 33601 33634 33681 33662 33676 33705 33676 33701 33590 33676 33699 33736 33778 33779 33820 33750 33707 33646 33547 33507 33422 33439 33452 33433 33464 33433 33441 33409 33403 33374 33342 33278 33217 33163 33099 33021 32978 32915 32896 32819 32777 32754 32738 32706 32709 32681 32596 32540 32485 32438 32355 32349 32328 32318 32295 32240 32273 32255 32230 32225 32185 32125 32044 31987 31941 31935 31955 32068 32376 32193 32571 32613 32602 32721 32643 32681 32702 32688 32692 32790 32791 32844 32871 32881 32936 33179 33175 32986 33140 33144 33250 33448 33460 33638 33686 33734 33694 33913 33956 34189 34217 34206 34295 34235 34289 34263 34192 34205 34110 34153 34181 34183 34348 34302 34364 34346 34469 34536 34684 34755 34865 34837 34729 34620 34508 34337 34208 34095 34019 33980 33960 33980 33975 33923 33864 33818 33755 33651 33577 33526 33432 33343 33216 33132 33036 32941 32872 32795 32748 32690 32632 32546 32445 32350 32267 32261 32440 32791 33205 33808 34438 35228 36490 37810 38854 39423 39759 39585 39270 39035 38780 38578 38531 38898 39310 39799 40232 40066 39892 39588 39489 39286 39028 38816 38576 38425 38217 38062 37963 37758 37704 38067 38364 38504 38590 38694 38724 38840 38866 38896 38933 38965 39006 39012 38989 38902 38841 38767 38701 38624 38514 38411 38323 38201 38036 38007 38116 38397 38382 38163 37926 37808 37714 37590 37497 37432 37420 37428 37375 37242 37135 37046 36959 36866 36837 36861 36972 37269 37488 37582 37518 37328 37131 36918 36708 36604 36466 36402 36302 36184 36057 35815 35566 35368 35222 35092 34933 34807 34721 34743 34798 34838 34855 34856 34940 35075 35260 35569 36039 36408 36710 36919 36928 36730 36580 36441 36563 36786 36680 36479 36350 36245 36144 36177 36267 36293 36260 36211 36203 36251 36271 36267 36331 36410 36495 36624 36734 36850 36916 36949 36941 36966 36957 36992 37022 37077 37135 37177 37221 37268 37348 37384 37447 37453 37453 37430 37406 37400 37418 37416 37393 37389 37428 37440 37508 37561 37624 37657 37642 37618 37578 37571 37610 37631 37660 37676 37711 37742 37774 37803 37830 37868 37888 37851 37806 37753 37741 37719 37746 37739 37745 37754 37764 37812 37815 37846 37845 37807 37763 37696 37662 37634 37707 37833 37954 38065 38040 38088 38346 38779 39170 39374 39392 39352 39300 39209 39083 38994 38920 38861 38777 38692 38593 38467 38356 38283 38213 38374 38642 38900 39322 39886 40348 40681 40214 40015 39938 39924 39871 39828 39811 39767 39759 39716 39688 39538 39374 39316 39338 39292 39216 39153 39114 39047 39034 38990 38966 38950 38936 38934 38913 38822 38740 38661 38604 38564 38549 38543 38527 38534 38517 38517 38544 38558 38580 38629 38631 38567 38501 38462 38432 38427 38426 38435 38440 38447 38458 38492 38508 38531 38553 38593 38603 38575 38498 38458 38421 38410 38393 38410 38419 38429 38463 38469 38501 38546 38577 38621 38692 38745 38729 38724 38699 38704 38757 38921 39097 39180 39171 39105 38819 38606 38542 38383 38166 37910 37565 37276 37060 36858 36686 36517 36371 36204 36058 35918 35778 35653 35536 35428 35329 35160 34966 34790 34644 34506 34411 34294 34184 34056 33929 33858 33781 33718 33679 33670 33673 33657 33563 33432 33455 33472 33363 33222 33042 32815 32725 32561 33223 33947 34635 35259 35745 36014 36154 36292 36302 36299 36322 36355 36365 36374 36416 36446 36454 36405 36313 36180 35960 35744 35518 35282 35084 34923 34768 34606 34457 34333 34233 34131 34033 33952 33837 33691 33517 33381 33261 33139 33041 32921 32828 32735 32626 32535 32421 32328 32212 32109 31995 32001 32019 32102 32189 32284 32357 32400 32429 32465 32486 32496 32502 32470 32387 32322 32251 32186 32113 32085 32040 32009 31976 31945 31924 31905 31869 31861 31818 31768 31673 31588 31516 31471 31432 31417 31384 31368 31341 31337 31336 31356 31369 31379 31399 31419 31418 31422 31402 31394 31406 31426 31482 31513 31527 31511 31506 31486 31466 31425 31392 31297 31186 31096 30987 30813 30708 30591 30470 30380 30289 30211 30146 30069 30000 29911 29875 29864 29834 29819 29755 29678 29621 29691 29815 30012 30086 30121 30182 30237 30301 30398 30480 30547 30598 30647 30707 30752 30811 30873 30933 31024 31113 31224 31293 31371 31431 31471 31527 31592 31669 31750 31811 31871 31903 31912 31894 31853 31832 31822 31801 31807 31792 31786 31774 31742 31727 31709 31692 31675 31656 31619 31575 31527 31496 31464 31441 31421 31392 31380 31354 31334 31314 31316 31303 31296 31282 31281 31271 31239 31217 31205 31191 31181 31182 31186 31180 31193 31188 31187 31198 31177 31189 31200 31179 31161 31133 31095 31055 31042 31017 30996 30970 30960 30927 30923 30889 30867 30865 30859 30856 30849 30837 30817 30782 30767 30742 30756 30741 30756 30764 30774 30783 30778 30774 30794 30820 30826 30837 30839 30829 30829 30794 30785 30776 30762 30776 30788 30793 30803 30818 30827 30839 30852 30865 30875 30894 30904 30894 30879 30859 30850 30835 30808 30830 30827 30833 30829 30821 30823 30822 30820 30811 30827 30800 30801 30783 30756 30714 30678 30659 30632 30609 30605 30596 30596 30567 30579 30594 30592 30586 30606 30607 30627 30627 30615 30589 30597 30585 30582 30605 30626 30634 30642 30648 30678 30687 30710 30715 30744 30751 30766 30771 30740 30717 30712 30692 30700 30718 30725 30716 30739 30748 30767 30783 30793 30803 30839 30852 30863 30854 30832 30829 30809 30823 30829 30840 30844 30864 30858 30876 30873 30862 30865 30873 30851 30848 30859 30824 30791 30744 30727 30700 30676 30671 30655 30639 30628 30626 30620 30619 30622 30613 30628 30626 30620 30605 30563 30553 30525 30521 30507 30504 30500 30504 30523 30518 30530 30541 30544 30549 30561 30572 30571 30549 30550 30534 30516 30523 30540 30541 30569 30567 30580 30592 30628 30624 30644 30651 30677 30691 30703 30690 30670 30654 30633 30630 30636 30643 30648 30672 30663 30669 30668 30692 30678 30688 30678 30685 30672 30644 30611 30559 30547 30523 30496 30484 30462 30448 30436 30428 30427 30416 30412 30409 30398 30397 30370 30356 30295 30273 30254 30242 30235 30226 30218 30221 30224 30230 30225 30237 30260 30273 30285 30307 30309 30284 30286 30273 30267 30298 30303 30312 30343 30365 30377 30411 30437 30449 30489 30506 30534 30567 30562 30565 30555 30547 30570 30573 30602 30609 30633 30641 30654 30682 30689 30719 30737 30750 30765 30795 30813 30826 30810 30814 30823 30823 30848 30845 30853 30875 30884 30911 30915 30927 30942 30959 30970 30979 30980 30967 30964 30957 30966 30960 30947 30942 30970 30977 30972 30982 30971 30958 30970 30977 30966 30989 30999 30999 31032 31016 31003 31020 31028 31046 31091 31193 31282 31501 31797 32101 32319 32476 32521 32533 32503 32441 32353 32287 32210 32128 32043 31960 31883 31809 31752 31664 31605 31562 31511 31453 31384 31322 31259 31202 31155 31117 31069 31021 30988 30937 30908 30861 30805 30726 30606 30507 30388 30319 30382 30596 30902 31581 32829 33792 34032 34181 34282 34341 34618 35091 35601 36050 36464 36782 37044 37262 37434 37628 37800 38015 38328 38718 39117 39358 39570 39749 39917 40034 40131 40201 40253 40317 40404 40506 40602 40674 40736 40807 40858 40913 40976 41014 41002 41104 41149 41155 41100 40954 40843 40682 40541 40493 40418 40402 40407 40472 40564 40691 40755 40794 40781 40729 40702 40677 40645 40653 40668 40682 40737 40821 40842 40853 40859 40793 40757 40636 40458 40181 39813 39499 39162 38884 38623 38398 38216 38072 37914 37748 37590 37435 37310 37174 37024 36813 36564 36321 36147 35945 35760 35592 35460 35333 35222 35133 35038 34950 34887 34816 34732 34591 34428 34278 34168 34042 33956 33896 33818 33734 33684 33635 33573 33508 33468 33412 33373 33269 33148 33028 32941 32856 32752 32642 32507 32434 32591 33070 33656 34084 34455 34773 35052 35293 35376 35406 35427 35442 35425 35418 35419 35424 35494 35542 35597 35639 35690 35746 35787 35836 35891 35927 35902 35830 35750 35639 35560 35491 35429 35356 35264 35171 35145 35132 35127 35129 35127 35140 35171 35232 35288 35453 35717 36040 36438 36877 37180 37149 37222 37214 37255 37464 37691 37858 37995 38099 38161 38139 38084 37993 37824 37656 37547 37479 37430 37399 37372 37378 37372 37331 37242 37119 36938 36752 36558 36407 36286 36131 35994 35880 35779 35707 35636 35582 35510 35481 35395 35321 35255 35179 35100 34982 34867 34757 34661 34578 34478 34394 34290 34200 34125 34026 33945 33853 33771 33691 33590 33459 33333 33190 33086 32962 32887 32785 32684 32599 32506 32435 32352 32291 32205 32128 32001 31879 31750 31653 31578 31488 31401 31323 31231 31175 31101 31039 30986 30954 30892 30804 30716 30640 30563 30527 30472 30439 30400 30367 30329 30315 30297 30277 30292 30273 30221 30166 30139 30121 30092 30088 30082 30067 30029 30020 29983 29936 29884 29829 29749 29649 29541 29453 29373 29320 29272 29214 29181 29194 29213 29277 29320 29374 29445 29503 29552 29588 29602 29633 29657 29722 29747 29790 29808 29837 29848 29879 29914 29936 29969 29987 29958 29921 29872 29857 29935 29903 29946 29978 30006 30015 29987 29970 29961 29990 29998 29986 29982 29995 30005 30016 30012 30030 30020 30024 30033 30035 30055 30062 30086 30108 30150 30164 30160 30145 30140 30146 30139 30153 30160 30183 30176 30181 30196 30202 30203 30210 30208 30230 30237 30229 30235 30228 30220 30237 30249 30268 30273 30288 30288 30308 30319 30329 30318 30329 30329 30360 30354 30343 30312 30301 30292 30289 30297 30289 30295 30305 30318 30330 30340 30343 30351 30363 30370 30368 30364 30339 30333 30319 30324 30326 30327 30339 30347 30351 30355 30372 30398 30395 30413 30415 30416 30406 30379 30366 30350 30357 30362 30370 30387 30403 30395 30414 30414 30416 30419 30453 30483 30486 30461 30419 30409 30386 30384 30387 30391 30386 30394 30392 30390 30402 30410 30416 30425 30427 30429 30415 30383 30350 30343 30342 30326 30350 30350 30355 30352 30356 30369 30375 30395 30405 30422 30433 30420 30411 30382 30366 30349 30360 30355 30363 30374 30374 30384 30379 30392 30398 30406 30421 30420 30442 30442 30439 30416 30365 30333 30325 30307 30317 30315 30302 30307 30305 30305 30311 30305 30324 30321 30331 30341 30340 30313 30313 30287 30280 30273 30282 30275 30276 30282 30285 30298 30311 30326 30319 30323 30347 30363 30351 30331 30319 30295 30308 30307 30323 30323 30325 30329 30338 30343 30361 30375 30378 30386 30402 30402 30386 30357 30352 30338 30330 30340 30352 30343 30359 30360 30377 30392 30396 30413 30431 30448 30447 30438 30421 30395 30386 30394 30392 30403 30405 30417 30418 30426 30444 30448 30457 30478 30481 30497 30508 30504 30475 30458 30451 30441 30454 30457 30458 30475 30462 30486 30495 30519 30523 30547 30563 30561 30589 30603 30582 30578 30562 30564 30580 30586 30601 30624 30607 30631 30645 30665 30674 30685 30700 30717 30735 30741 30749 30741 30733 30718 30707 30714 30717 30734 30731 30738 30745 30746 30756 30751 30766 30772 30792 30792 30786 30810 30788 30787 30755 30755 30738 30738 30742 30732 30729 30734 30728 30740 30740 30744 30740 30757 30765 30761 30763 30740 30721 30720 30716 30718 30723 30726 30729 30736 30739 30743 30755 30764 30755 30781 30799 30802 30785 30760 30743 30747 30752 30751 30740 30764 30746 30753 30759 30769 30782 30778 30793 30798 30788 30782 30753 30733 30704 30696 30698 30700 30682 30685 30670 30676 30686 30705 30711 30735 30740 30738 30733 30706 30679 30650 30625 30638 30632 30622 30622 30636 30624 30635 30642 30640 30659 30667 30673 30684 30693 30669 30658 30644 30658 30655 30666 30666 30645 30633 30637 30621 30626 30626 30657 30683 30638 30586 30547 30632 30693 30719 30772 30833 30874 30868 30857 30820 30794 30785 30774 30781 30754 30751 30765 30754 30753 30728 30697 30682 30664 30663 30666 30669 30673 30660 30667 30685 30682 30699 30705 30718 30709 30729 30717 30694 30689 30671 30665 30659 30675 30676 30664 30690 30695 30695 30707 30734 30746 30761 30774 30769 30760 30740 30739 30707 30703 30727 30720 30722 30730 30738 30740 30766 30775 30791 30794 30823 30842 30840 30831 30814 30791 30797 30797 30807 30808 30830 30821 30833 30853 30870 30910 30962 30995 31063 31104 31138 31218 31304 31434 31512 31529 31516 31467 31404 31342 31303 31258 31230 31210 31192 31145 31104 31066 31049 31033 31040 31024 30983 30988 30978 30975 30976 30972 30997 31158 31365 31713 32503 33420 34239 34868 35477 36074 36436 36567 36621 36593 36494 36538 36705 36973 37162 37324 37536 37748 38239 38457 38639 39055 39230 39049 38719 38377 38009 37691 37378 37130 36928 36941 36998 37062 37119 37189 37214 37163 37077 37082 37097 37134 37199 37349 37540 37681 37764 37761 37759 37741 37633 37504 37292 37096 36940 36849 36754 36723 36738 36813 36837 36951 36883 36851 36806 36693 36565 36402 36245 36048 35834 35658 35538 35481 35485 35626 35736 35934 35976 36157 36271 36411 36477 36488 36424 36337 36224 36154 36033 35931 35827 35871 35875 35881 35978 36092 36204 36155 36132 36070 35970 35907 35909 35896 35918 35958 36035 36057 36137 36250 36430 36649 36812 37013 37169 37368 37522 37698 37820 38163 38378 38577 38650 38901 39113 39280 39324 39410 39539 39667 39729 39823 39930 39987 40019 40007 40052 40074 40057 40097 40165 40132 40113 40095 40069 40118 40081 40108 40047 40154 40304 40537 40730 40841 40969 41030 41033 41000 41106 41143 41122 41175 41226 41187 41214 41338 41254 41297 41192 41191 41136 41121 41093 40998 40980 40945 40913 40864 40880 40787 40848 40777 40738 40560 40487 40266 40069 39904 39813 39710 39601 39553 39549 39403 39363 39261 39198 39145 39127 39173 39338 39535 39545 39622 39595 39615 39429 39262 38977 38758 38671 38622 38941 39053 39059 38868 38445 38268 38028 37750 37532 37317 37082 36904 36775 36671 36541 36389 36356 36148 35953 35764 35612 35520 35388 35382 35336 35315 35291 35215 35154 35087 35035 34921 34692 34530 34343 34334 34192 34110 34079 33993 33956 34000 33941 34088 34094 34120 34101 34003 34051 34009 33972 33956 33936 33853 33803 33776 33763 33696 33689 33657 33629 33587 33486 33396 33272 33225 33153 33104 33016 32985 32874 32831 32781 32710 32695 32666 32751 32991 33378 33902 34486 34966 35391 35720 35966 36173 36399 36579 36716 36800 36897 36976 36968 36884 36801 36696 36654 36555 36516 36463 36421 36588 36904 37223 37546 37883 38117 38335 38470 38644 38728 38790 38831 38891 39043 39101 39254 39146 39169 39097 39102 39061 39119 39071 39126 39131 39373 39380 39517 39554 39704 39657 39835 39819 39884 39927 39905 39891 39869 39839 39727 39753 39709 39658 39607 39553 39551 39503 39527 39429 39447 39390 39369 39347 39322 39234 39176 39138 39053 38982 38953 38980 38958 38934 38937 38852 38873 38913 39021 39565 39551 39595 39635 39736 39699 39624 39439 39282 39086 38911 38720 38559 38397 38206 37987 37716 37369 37178 36919 36699 36517 36412 36228 36137 35991 35872 35735 35592 35497 35424 35301 35148 34960 34813 34697 34621 34539 34389 34353 34258 34187 34114 34035 34024 33937 33840 33769 33650 33500 33448 33381 33258 33215 33155 33094 32962 32940 32874 32876 32742 32822 32694 32757 32726 32684 32645 32659 32648 32654 32592 32610 32523 32581 32547 32485 32453 32381 32314 32269 32285 32181 32216 32153 32207 32106 32101 32084 32009 32002 31931 31970 31964 31906 31898 31921 31887 31994 31982 32081 32054 32131 32147 32159 32217 32223 32211 32183 32199 32147 32121 32116 32066 32031 32061 32008 32047 31979 32031 32020 32063 32023 31969 31975 31910 31982 31961 31927 31961 31943 31962 31918 31962 31954 31972 31986 31992 31952 31950 31949 31958 31941 31915 31879 31850 31918 31924 31925 31993 31921 32125 32098 32210 32189 32285 32245 32324 32293 32310 32318 32381 32360 32367 32300 32301 32284 32265 32219 32151 32107 32083 32037 31995 31964 31953 31881 31891 31850 31901 31853 31876 31826 31826 31785 31833 31785 31740 31814 31701 31720 31670 31659 31656 31609 31602 31522 31511 31451 31403 31323 31200 31197 31164 31121 31086 31129 31245 31431 31530 31558 31593 31586 31602 31546 31557 31492 31522 31460 31425 31368 31322 31218 31187 31225 31508 31675 32036 32075 32169 32296 32332 32534 32964 33366 34021 34332 34811 35101 35609 35756 36423 37021 37597 37649 38529 38487 38718 38699 38718 38705 38750 38818 38894 38860 38857 38936 38932 39001 39076 39171 39425 39817 40052 40364 40697 40606 40943 41037 41035 41108 41187 41176 41204 41160 41199 41153 41108 41125 40855 40582 40276 40071 39799 39570 39280 38997 38789 38555 38305 38164 37940 37772 37596 37346 37224 36893 36746 36361 36093 35815 35523 35394 35634 35979 36529 36587 37194 37098 37520 37504 38139 38261 38541 38609 38704 38864 38977 39011 39013 39000 38808 38883 38916 38963 39011 39054 39118 39060 39077 39191 39228 39182 39388 39384 39292 39292 39340 39257 39235 38998 38748 38553 38438 38446 38536 38445 39002 38834 38975 39045 39062 38886 38977 38930 38944 38860 38872 38916 39070 39034 39105 39078 38951 39263 39258 39369 39365 39311 39493 39462 39487 39592 39341 39347 39441 39367 39403 39425 39389 39376 39450 39485 39550 39438 39476 39305 39290 39175 39411 39318 39339 39292 39147 38862 38712 38462 38304 38049 37940 37592 37358 37085 36755 36619 36418 36252 36073 35881 35709 35637 35325 35521 35498 35315 35302 35168 35122 35090 35074 35099 35039 34973 34883 34836 34713 34713 34669 34646 34492 34538 34387 34477 34459 34553 34702 34817 34931 34949 35006 34963 35016 34971 34968 34850 34636 34380 34204 34181 34334 34449 34470 34447 34375 34464 34246 34360 34282 34074 34128 33927 33846 33774 33674 33605 33596 33556 33656 33636 33614 33688 33588 33695 33677 33869 33850 34005 33944 34016 34002 34020 34057 34033 34003 33988 33897 33929 33791 33666 33629 33764 33721 33680 33770 33764 33824 33732 33811 33807 33806 33871 33789 33821 33741 33733 33940 34001 34051 34093 34152 34221 34233 34264 34247 34379 34503 34558 34573 34610 34616 34652 34669 34666 34743 34799 34848 34878 34962 34961 34863 34607 34171 34293 34418 34527 34740 34825 34939 34951 35053 35092 35286 35269 35329 35448 35463 35505 35506 35558 35567 35537 35600 35571 35599 35508 35677 35667 35804 35782 35755 35760 35735 35753 35755 35766 35739 35710 35741 35733 35768 35774 35821 35765 35818 35736 35685 35675 35666 35668 35656 35679 35696 35680 35685 35796 35858 35920 35897 35885 35857 35804 35930 35904 35950 35998 36003 36087 36050 36080 36073 36029 35977 35867 35750 35533 35481 35245 35283 35249 35134 35143 34989 34879 34711 34692 34513 34527 34415 34409 34362 34266 34333 34338 34357 34398 34482 34454 34539 34467 34514 34481 34590 34615 34758 34813 34946 34983 35067 35118 35195 35345 35446 35647 35697 35760 35866 35814 35898 35880 35978 36018 36231 36396 36644 36746 37066 37027 36896 36849 36750 36732 36641 36598 36540 36388 36374 36375 36315 36253 36222 36109 35986 35889 35798 35750 35768 35777 35755 35820 35802 35845 35895 35986 35973 36003 35968 35952 35923 35938 35896 35824 35788 35756 35800 35726 35766 35652 35733 35679 35580 35465 35418 35315 35236 35005 35341 35291 35386 35412 35344 35448 35413 35328 35374 35265 35296 35211 35201 35158 35284 35315 35370 35351 35311 35307 35302 35232 35234 35042 35156 35142 35100 35188 35230 35264 35283 35410 35423 35501 35466 35506 35398 35442 35185 35324 35259 35317 35364 35418 35440 35398 35430 35503 35507 35517 35387 35368 35239 35176 35126 35110 35182 35133 35177 35156 35227 35265 35290 35289 35232 35169 35164 35079 35109 35048 34930 35046 34970 35117 35019 35170 35109 35212 35101 35149 35090 35194 35124 35219 35216 35264 35364 35477 35502 35554 35546 35654 35647 35648 35640 35585 35631 35679 35740 35799 35845 35839 35889 35863 35907 35888 35877 35868 35783 35827 35852 35873 35948 35915 35975 36032 36030 36083 36037 36085 36060 36052 36032 36003 36007 36005 36019 36038 36051 36042 36052 36054 36080 36051 36010 35941 35879 35841 35778 35737 35736 35694 35695 35641 35656 35633 35693 35673 35738 35619 35642 35501 35635 35503 35502 35484 35479 35535 35659 35655 35735 35784 35783 35731 35749 35727 35680 35650 35655 35692 35695 35711 35703 35714 35693 35708 35652 35583 35524 35446 35415 35391 35362 35337 35327 35308 35290 35296 35252 35247 35161 35075 34978 34911 34900 34839 34818 34767 34753 34719 34693 34693 34662 34648 34560 34531 34469 34460 34435 34400 34405 34392 34345 34401 34342 34427 34338 34209 33520 33572 33709 33920 33944 34221 34349 34608 34832 35343 35647 36077 36348 36784 36754 36923 36915 37136 37310 37484 37643 37704 37650 37825 37787 37833 37855 37838 37925 37845 38004 37980 38004 38073 38048 37940 38001 37932 38126 38242 38599 38421 38569 38288 38266 37862 37907 37929 38284 38856 39336 39527 39681 39690 39687 39556 39585 39632 39680 39896 39783 40068 39879 40151 40243 40468 40590 40706 40658 40591 40453 40240 40042 39904 39869 39788 39692 39832 39742 39870 39895 40132 40015 39954 39758 39631 39530 39513 39178 39177 39059 38807 38719 38666 38753 38482 38512 38185 38176 38231 38284 38136 38141 38083 38078 38178 38457 38628 38597 38586 38492 38244 38006 37869 37699 37607 37642 37721 37693 37954 38544 39019 39204 39324 39134 39133 38961 38862 38597 38516 38546 38430 38437 38456 38226 38136 38271 38702 38842 39380 39562 40003 40038 40238 40001 39780 39695 39440 39270 39175 39136 38951 38787 38532 38314 38103 37960 37737 37856 37748 37729 37698 37781 37570 37646 37464 37542 37430 37404 37319 37398 37457 38121 38426 38721 38641 38977 38789 38788 38947 39051 39147 39118 39307 39381 39403 39628 39731 40011 39953 40073 40210 40136 40235 40087 40273 40080 39826 39952 39787 39761 39710 39725 39673 39691 39679 39676 39653 39638 39491 39492 39311 39227 39131 39167 39131 39142 39152 38984 39088 39043 39120 39128 39075 39280 39162 39312 39410 39060 39195 39102 38967 39129 39157 39145 39335 39291 39258 39169 39071 39025 39023 39087 39133 39223 39188 39132 39007 38930 38827 38704 38435 38240 38026 37821 37628 37460 37273 37126 36919 36751 36655 36516 36375 36193 35944 35757 35538 35342 35270 35130 35086 34975 34847 34810 34706 34640 34505 34430 34189 34023 33893 33739 33815 33759 33721 33935 34063 34232 34306 34366 34228 34079 33894 33816 33708 33578 33511 33431 33359 33371 33288 33228 33220 33070 33041 32964 32917 32899 32829 32889 32935 32960 32930 32977 32955 32995 33095 33019 33060 33009 32979 33018 33038 33132 33131 33126 33169 33139 33119 33158 33129 33110 33094 33104 33105 33078 33081 33146 33199 33293 33389 33476 33557 33621 33725 33928 33910 34132 34187 34298 34394 34517 34696 34809 34876 35048 35098 35211 35158 35236 35252 35254 35398 35448 35398 35577 35652 35818 35883 35950 36074 36092 36290 36270 36265 36368 36278 36353 36274 36271 36313 36173 36208 36216 36132 36190 36186 36204 36198 36217 36273 36248 36284 36248 36320 36322 36445 36358 36283 36140 36184 36123 36151 36143 36106 36106 36109 35991 36092 35983 36015 35953 36044 36028 36001 36080 36133 36176 36192 36151 36101 36037 36057 35825 35777 35590 35599 35549 35454 35475 35464 35406 35550 35611 35774 35982 36061 36084 36146 36137 36121 36190 36225 35955 36058 35832 35866 35911 35696 35638 35705 35523 35544 35455 35414 35558 35550 35681 35604 35733 35858 35732 35781 35545 35537 35318 35377 35280 35324 35235 35284 35331 35389 35293 35337 35377 35445 35353 35507 35372 35535 35579 35521 35555 35504 35308 35450 35246 35133 35007 35005 35004 34905 35037 35053 35044 35203 35158 35320 35381 35414 35280 35366 35254 35307 35232 35315 35275 35208 35195 35291 35298 35282 35331 35307 35190 35260 35152 35270 35130 35224 35210 35233 35097 35179 35293 35361 35190 35380 35426 35479 35410 35573 35437 35452 35398 35503 35470 35471 35500 35457 35452 35495 35479 35603 35685 35786 35614 35744 35674 35535 35512 35580 35649 35614 35547 35562 35743 35622 35791 35803 35826 35886 35902 35941 35990 35907 36003 36017 35928 35793 35718 35707 35633 35552 35511 35420 35345 35233 35139 35067 35021 34981 34975 35006 34992 35006 34950 34985 34893 34959 34986 34982 34975 34975 34946 34889 34815 34824 34811 34817 34795 34711 34682 34633 34598 34573 34615 34737 34864 34734 34973 35050 35064 35075 34989 34910 34733 34750 34699 34665 34746 34771 34741 34837 34935 34822 34805 34831 35002 35123 35003 35182 35408 35265 35610 35860 36260 36599 36639 36836 36930 36925 37143 37152 37440 37542 37492 37537 37607 37436 37496 37596 37814 37962 38255 38399 38746 38812 38963 39022 39053 39224 39309 39291 39303 39264 39248 39445 39415 39473 39362 39459 39464 39482 39637 39537 39661 39710 39688 39782 39631 39744 39428 39486 39495 39367 39275 38990 38784 38474 38317 38219 37994 37881 37796 37701 37701 37582 37561 37505 37411 37401 37088 37115 36866 36857 36779 36699 36692 36591 36483 36647 36515 36402 36252 36054 36064 35997 35896 35920 35833 35759 35814 35745 35767 35687 35527 35366 35317 35251 35172 35100 35078 35132 35032 35046 34932 34893 34782 34617 34549 34482 34427 34491 34512 34633 34619 34745 34791 34841 34773 34690 34643 34656 34637 34709 34677 34580 34663 34584 34604 34590 34611 34539 34575 34523 34698 34564 34844 34907 34848 35200 35155 35326 35459 35348 35418 35277 35305 35313 35189 35342 35359 35594 35662 35880 36157 36378 36249 36581 36491 36801 37083 37117 37017 37245 37273 37576 37665 38007 37912 37974 38000 37963 37757 37923 38279 38211 38435 38412 38570 38527 38883 38914 39060 39022 39226 39367 39510 39854 39826 39979 39994 40097 40327 40367 40078 40207 40286 40198 40376 40319 40380 40430 40489 40620 40572 40675 40624 40542 40563 40454 40436 40428 40452 40424 40450 40261 40451 40362 40321 40279 40321 40193 40155 40087 40028 39980 40053 39998 39990 40052 39902 39950 39934 39869 39853 39615 39429 39167 38899 38687 38412 38253 37976 37825 37656 37478 37182 36941 36635 36432 36211 36087 35876 35736 35578 35448 35325 35226 35026 34794 34530 34333 34113 33960 33824 33739 33605 33549 33499 33414 33334 33270 33114 32958 32828 32724 32670 32613 32571 32496 32429 32429 32351 32302 32304 32197 32104 31986 31965 31861 31868 31842 31887 31826 31865 31825 31837 31728 31643 31502 31510 31396 31387 31305 31307 31316 31403 31430 31372 31477 31363 31368 31278 31273 31196 31129 31104 31099 31037 31089 31161 31181 31099 31136 31244 31330 31303 31519 31620 31840 32253 32506 32507 32766 32815 33000 32963 33056 32963 33104 33035 33067 33112 33062 33112 32984 33173 33152 33068 33105 33049 32999 33008 32992 33004 32952 33038 32989 33022 33033 32946 32895 32871 32717 32827 32676 32729 32673 32706 32671 32683 32600 32620 32553 32537 32474 32482 32435 32451 32407 32431 32392 32329 32386 32369 32381 32222 31970 31805 31666 31602 31627 31629 31609 31655 31691 31795 31891 31855 31888 31880 31879 31937 31971 31988 31932 31948 31896 31825 31704 31717 31444 31516 31410 31267 31195 31202 31008 31311 31829 32003 32310 32238 32720 32779 32913 33047 32865 32891 32808 32760 32642 32371 32436 32183 32374 32259 32522 32435 32509 33031 33547 33556 33805 34006 33865 33857 34021 33867 33951 33902 33921 33939 33784 33885 33851 33883 33905 33802 33832 33749 33759 33788 33723 33712 33784 33854 33903 34162 34338 34487 34598 34514 34553 34492 34548 34504 34469 34549 34433 34444 34390 34411 34331 34387 34294 34229 34290 34232 34209 34167 34035 33991 33879 33842 33717 33744 33629 33608 33513 33514 33399 33315 33238 33121 33080 32994 32932 32889 32841 32817 32772 32727 32689 32622 32547 32416 32651 32703 32863 33000 32936 33187 33162 33128 33172 33141 33050 32948 32883 32745 32676 32571 32460 32475 32436 32357 32264 32278 32243 32170 32097 32019 31925 31958 31788 31889 31848 31726 31854 31846 31655 31836 31738 31649 31932 32123 32154 32629 32788 32903 33471 33481 33691 33745 34060 34039 33964 34101 34077 34166 34308 34232 34250 34354 34268 34297 34264 34109 34175 34015 33948 34059 33900 33955 33985 33854 33967 34013 33994 34031 34019 33938 33946 33923 33901 33986 34032 34105 34265 34242 34347 34436 34394 34329 34327 34266 34279 34269 34237 34316 34297 34458 34441 34530 34572 34489 34430 34444 34336 34490 34384 34406 34390 34246 34400 34330 34270 34297 34220 34225 34251 34136 34215 34192 34223 34254 34203 34239 34226 34135 34076 34050 33930 33964 33866 34037 34087 34131 34160 34251 34313 34363 34346 34356 34317 34316 34311 34367 34507 34777 35039 35216 35425 35503 35538 35544 35552 35524 35562 35584 35623 35558 35515 35460 35436 35346 35260 35129 35051 34926 34924 34858 34809 34767 34757 34626 34745 34774 34782 34658 34803 34738 34642 34792 34761 34833 34835 34819 34772 34741 34577 34435 34330 34239 34164 34169 34110 34212 34096 34152 34139 34332 34235 34274 34245 34149 34144 34060 34052 34107 34224 34471 34845 35155 35507 35943 36143 36394 36519 36809 36782 36928 37020 36958 37222 37448 38129 38661 38827 38750 38446 38050 37744 37425 37184 37036 36887 36814 36754 36637 36529 36372 36274 36175 36052 35928 35893 35807 35655 35600 35486 35360 35182 35021 34870 34750 34643 34597 34468 34377 34383 34232 34238 34139 34038 33889 33692 33526 33420 33292 33181 33144 33077 33003 32975 32906 32822 32684 32565 32489 32385 32427 32456 32325 32501 32692 32752 32765 32756 32728 32629 32615 32690 32692 32666 32650 32642 32678 32740 32825 32898 33048 33179 33421 33867 34542 35452 36362 36840 37073 37320 37372 37244 36969 36712 36453 36271 36084 35954 35758 35641 35376 35114 34837 34720 34570 34538 34639 34753 34787 34772 34737 34725 34674 34637 34540 34458 34295 34300 34178 34185 34004 33837 33682 33547 33424 33357 33277 33226 33150 33188 33166 33153 33167 33098 33043 33033 33034 32969 32912 32852 32819 32721 32649 32566 32530 32430 32460 32336 32321 32319 32254 32263 32268 32275 32272 32306 32414 32397 32424 32450 32477 32746 32702 32792 32835 32833 32774 32736 32643 32508 32415 32221 32113 31945 31814 31703 31606 31545 31457 31429 31417 31361 31389 31270 31312 31321 31265 31256 31131 31118 31058 31047 31014 30906 30828 30768 30561 30595 30628 30542 30723 30696 30737 30989 31009 31372 31414 31542 31786 31556 31805 31750 31649 31769 31622 31696 31612 31530 31468 31435 31310 31233 31107 30971 30977 30874 30938 30911 30840 30772 30697 30666 30593 30500 30402 30380 30334 30351 30401 30415 30517 30442 30437 30379 30326 30434 30342 30402 30314 30241 30216 30231 30170 30213 30247 30234 30355 30359 30360 30395 30397 30358 30415 30378 30352 30358 30289 30255 30314 30223 30377 30352 30206 30364 30213 30179 30095 30099 30099 30241 30571 30986 31881 32383 33104 34329 35147 35428 35509 35990 36505 36814 37297 37593 37732 38267 38565 39028 39291 39520 39734 39852 39853 39772 39653 39504 39407 39404 39380 39518 39791 40186 40223 40025 39820 39587 39438 39394 39455 39681 39544 39605 39633 39515 39402 39249 39064 38997 38855 38840 38769 38637 38609 38521 38387 38190 38024 37872 37725 37590 37485 37412 37408 37420 37423 37390 37376 37301 37252 37199 37114 37101 37037 37015 36969 36915 36847 36810 36764 36651 36484 36332 36163 36036 35985 35949 35886 35908 35875 35843 35729 35768 35617 35522 35334 35264 35111 35096 34956 34985 34890 34905 34707 34753 34514 34506 34228 34377 34384 34597 34970 35568 36387 36764 36529 36319 36080 35800 35646 35647 35576 35805 36117 36415 36661 36868 37145 37347 37468 37520 37488 37423 37334 37227 37098 37016 36892 36899 36749 36913 36807 36939 36808 36894 36758 36725 36622 36481 36459 36400 36426 36424 36493 36419 36566 36565 36644 36891 37296 37529 37739 37807 37888 37766 37787 37752 37842 37799 37845 37801 38045 38093 38343 38208 37936 37665 37502 37350 37252 37171 37125 37109 36995 36934 36830 36834 36807 36802 36791 36773 36669 36621 36598 36525 36426 36313 36194 36126 35992 35957 35899 35888 35888 35837 35794 35735 35636 35503 35327 35223 35126 35086 35107 35030 35037 34977 34915 34889 34806 34783 34692 34499 34396 34265 34238 34190 34131 34035 34095 34639 35416 36196 36976 37198 37374 37654 37882 37945 38104 38153 38108 38121 38078 38020 37963 37847 37753 37498 37273 37016 36606 36287 36262 36231 36256 36320 36353 36324 36269 36168 35981 35788 35627 35471 35343 35172 35013 34883 34744 34675 34600 34534 34426 34231 34035 33859 33785 33652 33567 33485 33436 33385 33315 33290 33210 33196 33105 33038 32914 32896 32795 32777 32702 32663 32549 32544 32481 32468 32421 32288 32165 32029 32018 31926 31865 31810 31744 31683 31649 31577 31555 31502 31410 31261 31247 31212 31290 31366 31456 31490 31524 31508 31511 31478 31500 31431 31375 31314 31292 31311 31372 31375 31472 31451 31496 31554 31553 31608 31699 31726 31711 31651 31635 31629 31694 31641 31710 31740 31832 31906 31943 32003 31879 31842 31732 31775 31711 31630 31595 31578 31557 31679 31810 31919 31937 31879 31727 31631 31510 31446 31339 31412 31634 31789 32000 32080 32125 32060 32058 31877 31831 31783 32110 32298 32451 32494 32604 32666 32662 32668 32540 32475 32439 32583 32854 33110 33276 33456 33489 33614 33653 33562 33576 33526 33361 33274 33125 33047 32934 32850 32754 32680 32626 32510 32641 32551 32708 32603 32628 32580 32678 32680 32757 32764 32724 32702 32703 32643 32760 32774 32887 32872 32912 32895 32863 32866 32736 32935 32848 32939 32774 32909 32844 32939 32896 32888 32875 32848 32933 32903 33031 33117 33139 33278 33257 33366 33243 33382 33197 33374 33228 33224 33222 33180 33280 33217 33182 33189 33286 33256 33169 33068 33034 33044 33044 33134 33154 33233 33135 33214 33174 33200 33216 33063 32998 32943 32843 32744 32763 32718 32805 32771 32789 32824 32764 32844 32766 32770 32565 32626 32565 32549 32522 32568 32453 32621 32503 33219 34185 34837 35069 35639 35948 36464 36727 36896 36973 36953 36916 36816 36693 36641 36486 36432 36137 36067 35836 35769 35703 35634 35605 35561 35497 35480 35566 35960 36740 37094 37293 37394 37517 37643 37825 37910 37976 38110 38163 38423 38370 38520 38317 38485 38491 38607 38698 38753 38824 38906 39005 39065 39228 39115 38860 38559 38225 37909 37621 37355 37080 36826 36560 36340 36113 35918 35744 35547 35293 35056 34814 34609 34379 34265 34035 33964 33838 33792 33660 33576 33531 33380 33264 33075 32943 32829 32669 32568 32507 32396 32424 32345 32320 32242 32156 32211 32062 31957 31791 31723 31641 31636 31560 31501 31387 31331 31232 31351 31451 31551 31556 31447 31340 31250 31181 31100 31054 31153 31057 31084 31083 31114 30949 31019 30945 30905 30781 30787 30766 30713 30734 30707 30743 30773 30746 30787 30749 30734 30697 30686 30623 30633 30641 30722 30907 30777 31179 31112 31235 31206 31120 31116 31076 31093 31237 31146 31139 31107 31086 31115 31214 31483 32011 32970 33911 34609 35082 35500 35866 35955 36142 36176 36283 36359 36434 36526 36520 36448 36434 36402 36289 36184 36053 35936 35763 35598 35480 35301 35199 35066 34973 34831 34732 34631 34476 34330 34191 34042 33925 33812 33744 33666 33569 33539 33437 33416 33340 33295 33210 33248 33506 33909 34389 34932 35384 35792 36177 36393 36544 36668 36680 36702 36884 37121 37357 37483 37537 37665 37611 37657 37628 37634 37636 37667 37615 37483 37430 37498 37495 37591 37647 37660 37724 37737 37722 37799 37758 37774 37628 37557 37477 37463 37452 37574 37617 37871 38133 38872 39211 39284 39414 39342 39436 39281 39098 38765 38431 38134 37747 37377 37069 36752 36468 36150 35757 35377 35046 34762 34562 34364 34182 34011 33810 33673 33516 33462 33260 33048 32812 32633 32531 32422 32413 32346 32323 32289 32175 32109 31959 31816 31555 31428 31226 31214 31152 31155 31092 31067 31150 31140 31213 31225 31224 31146 31025 30972 31043 31211 31447 31679 31728 31766 31663 31646 31523 31381 31163 30926 30747 30663 30561 30492 30447 30403 30345 30328 30259 30255 30219 30163 30106 30022 30009 30022 30015 30022 30002 29946 29909 29833 29792 29745 29685 29601 29501 29439 29435 29450 29444 29507 29673 29766 29740 29929 29932 30035 29999 30008 30002 30002 30015 29963 30194 30097 30210 30115 30095 30105 30102 30043 30020 29951 29906 29964 30004 30091 30154 30295 30318 30467 30618 30933 31321 31983 32833 34081 35092 35639 36057 36747 37233 37674 37769 37924 37982 38058 38041 37846 37693 37480 37309 37105 36951 36798 36667 36578 36494 36414 36321 36232 36114 36083 36035 36034 35988 35924 35831 35772 35649 35642 35527 35471 35310 35225 35063 34947 34847 34758 34660 34657 34580 34583 34619 34633 34662 34613 34572 34565 34711 34824 35127 35345 35744 35972 36266 36666 37061 37523 37887 38312 38515 38827 39091 39268 39219 39632 39700 39694 39930 39957 40098 39980 39969 40073 39978 39997 40085 40077 40112 40112 40120 40016 40104 39970 40024 39798 39824 39762 39777 39713 39792 39716 39692 39587 39607 39529 39583 39294 39197 39045 38896 38895 38827 38707 38767 38613 38750 38612 38695 38555 38484 38317 38207 37966 38105 37747 37924 37850 37794 37738 37836 37728 37703 37548 37353 37314 37149 37135 37121 37002 36955 36785 36755 36716 36733 36620 36411 36253 36123 36052 36008 36023 36037 35982 35991 35876 35899 35920 35844 35676 35523 35465 35409 35292 35331 35204 35097 35029 34984 34903 34869 34891 34633 34642 34511 34489 34418 34492 34474 34470 34449 34500 34407 34418 34343 34239 34115 33993 33919 33828 33774 33773 33729 33756 33691 33750 33713 33679 33634 33514 33484 33496 33439 33501 33430 33444 33505 33584 33603 33706 33747 33673 33691 33676 33609 33674 33515 33668 33571 33612 33607 33606 33547 33535 33475 33346 33319 33283 33230 33254 33228 33267 33278 33239 33281 33292 33308 33249 33231 33251 33103 33104 33029 33067 33002 33045 33070 33122 33086 33187 33180 33195 33225 33168 33177 33200 33255 33247 33377 33332 33451 33484 33573 33645 33681 33709 33687 33718 33805 33791 33719 33687 33618 33506 33541 33604 33492 33650 33703 33705 33784 33789 33811 33950 33934 33916 34024 33952 33990 34130 34207 34296 34340 34286 34235 34305 34477 34857 35677 36364 36998 37961 38390 38754 38829 38743 38527 38113 37674 37277 36874 36587 36281 36024 35848 35601 35460 35264 35192 34960 34793 34497 34369 34149 34015 33846 33777 33565 33518 33437 33281 33106 33122 33131 32927 32733 32685 32631 32656 32914 34720 35845 36021 36684 37023 37586 37896 37238 36686 36261 35869 35489 35092 35005 35110 35164 35151 35134 35223 35083 35003 35014 34976 34984 34907 34891 34824 34678 34683 34626 34677 34661 34669 34596 34445 34386 34295 34221 34199 34107 34111 34116 34105 34151 34178 34167 34137 34119 34152 34320 34418 34530 34794 34965 35149 35409 35454 35559 35589 35598 35789 35918 36128 36124 35890 35791 35699 35601 35543 35536 35549 35777 35858 36051 36147 36255 36298 36301 36376 36436 36446 36479 36474 36478 36442 36461 36393 36414 36286 36162 36054 35946 35872 35759 35685 35620 35505 35371 35283 35206 35170 35095 34931 34789 34669 34428 34410 34295 34236 34141 34099 34063 33968 33925 33888 33806 33715 33576 33434 33410 33297 33243 33101 33074 33045 33034 33067 33114 33228 33231 33238 33148 33075 32995 32946 32894 32802 32738 32682 32616 32609 32516 32481 32391 32258 32101 32005 31970 31985 31961 31939 31904 31916 31947 31943 31955 31966 31931 31857 31828 31835 31869 31894 31869 31895 31915 31905 31858 31849 31819 31807 31831 31777 31717 31672 31742 31799 31916 31989 31992 31700 31285 31071 31163 31339 31649 31959 32231 32401 32551 32633 32654 32750 32910 33104 33293 33413 33586 33707 33801 33813 33785 33734 33671 33681 33720 33772 33895 34014 34178 34328 34494 34569 34693 34716 34696 34559 34447 34322 34259 34229 34253 34278 34407 34551 34670 34868 35037 35297 35559 35890 36176 36456 36747 36848 36864 36763 36657 36521 36374 36226 36068 35880 35677 35521 35313 35084 34866 34657 34475 34346 34210 34072 33964 33883 33859 33776 33663 33539 33385 33278 33163 33101 33060 33040 33005 32971 32906 32823 32732 32652 32582 32518 32468 32411 32308 32204 32065 31951 31817 31706 31566 31447 31333 31221 31126 31068 31012 30981 30948 30875 30758 30679 30618 30577 30556 30525 30513 30488 30466 30435 30412 30370 30311 30249 30124 30085 30122 30256 30445 30601 30679 30818 30944 31180 31322 31489 31600 31655 31663 31613 31510 31415 31320 31233 31105 31001 30865 30750 30629 30520 30426 30349 30271 30186 30051 29943 29834 29740 29665 29603 29534 29482 29424 29370 29324 29259 29217 29181 29133 29046 28972 28891 28856 28823 28783 28764 28756 28747 28725 28732 28728 28737 28745 28719 28671 28647 28655 28651 28660 28661 28671 28679 28683 28680 28699 28703 28707 28685 28636 28590 28563 28581 28584 28592 28596 28599 28603 28610 28626 28633 28649 28639 28596 28537 28514 28507 28510 28507 28498 28505 28498 28497 28491 28496 28493 28505 28482 28442 28401 28379 28378 28371 28396 28389 28401 28374 28390 28403 28405 28405 28407 28391 28366 28321 28303 28297 28293 28312 28310 28312 28306 28302 28300 28290 28298 28313 28302 28274 28244 28217 28216 28215 28223 28236 28249 28241 28241 28254 28262 28266 28277 28291 28270 28245 28222 28214 28223 28240 28251 28253 28271 28272 28281 28288 28292 28315 28325 28333 28310 28280 28259 28249 28255 28263 28280 28287 28287 28297 28298 28314 28309 28333 28355 28353 28350 28315 28268 28257 28261 28261 28276 28294 28298 28297 28314 28325 28319 28325 28349 28348 28339 28309 28286 28243 28226 28225 28228 28230 28241 28241 28243 28243 28234 28234 28245 28247 28248 28240 28210 28168 28157 28157 28157 28183 28187 28185 28186 28197 28187 28220 28220 28229 28238 28230 28190 28164 28137 28144 28147 28160 28160 28164 28169 28176 28181 28192 28197 28206 28218 28227 28202 28175 28139 28111 28113 28119 28125 28122 28128 28128 28114 28095 28096 28098 28101 28094 28095 28072 28041 28000 27988 27984 27980 27995 28001 28008 28012 28007 27999 28005 28002 28008 28026 28029 27991 27950 27946 27929 27944 27952 27964 27971 27970 27989 27968 27980 28023 28072 28088 28090 28081 28093 28107 28135 28180 28192 28207 28213 28212 28199 28192 28221 28264 28354 28490 28639 28799 29115 29469 29792 30157 30467 30721 30864 30898 30886 30826 30787 30752 30706 30639 30607 30555 30510 30533 30536 30532 30554 30564 30593 30593 30602 30623 30646 30650 30689 30706 30744 30758 30782 30803 30800 30789 30801 30784 30783 30757 30729 30706 30696 30702 30684 30702 30664 30624 30542 30465 30377 30295 30210 30120 30032 29943 29875 29826 29788 29781 29771 29756 29706 29649 29595 29543 29548 29557 29582 29608 29644 29647 29636 29628 29617 29648 29711 29750 29748 29706 29620 29574 29535 29534 29564 29545 29562 29546 29541 29559 29571 29606 29638 29704 29718 29732 29694 29629 29602 29591 29605 29628 29662 29673 29669 29702 29710 29731 29745 29768 29800 29821 29891 29936 29880 29871 29819 29733 29644 29621 29642 29673 29804 29775 29745 29592 29470 29346 29219 29124 29049 29012 28941 28872 28985 29108 29152 29061 29015 29044 29087 29095 29092 29114 29108 29072 28991 28896 28807 28694 28517 28412 28346 28288 28275 28258 28267 28279 28266 28229 28160 28103 28076 28026 28002 28011 28016 28015 28010 28045 28093 28171 28344 28557 28763 28945 29076 29484 30610 32144 34123 36152 37490 37885 38128 38397 38625 38880 39171 39493 39731 39944 40123 40211 40230 40434 40671 40879 40959 41070 41150 41241 41300 41354 41419 41494 41531 41581 41653 41651 41678 41723 41744 41823 41978 42162 42415 42601 42862 43032 43090 43062 43024 43044 43108 43016 42890 42763 42633 42403 42155 41913 41660 41427 41212 41004 40850 40699 40545 40367 40216 39968 39666 39384 39100 38791 38490 38171 37839 37551 37286 37086 36916 36799 36683 36551 36380 36127 35933 35749 35604 35497 35443 35385 35387 35433 35549 35647 35756 35834 35894 35893 35792 35618 35490 35296 35102 34936 34792 34700 34542 34367 34171 33957 33766 33566 33397 33161 32908 32659 32447 32249 32098 31926 31782 31647 31529 31440 31368 31311 31216 31113 31019 30878 30708 30548 30429 30331 30257 30214 30156 30101 30057 30028 29985 29959 29910 29893 29880 29858 29804 29709 29649 29594 29588 29584 29600 29619 29625 29642 29632 29623 29624 29604 29609 29587 29512 29434 29359 29318 29289 29250 29232 29197 29187 29168 29152 29154 29140 29121 29098 29064 29021 28996 28970 28982 28989 29011 29011 29016 29017 29017 29031 29042 29076 29088 29113 29089 29049 29010 29026 29040 29052 29079 29086 29103 29096 29108 29128 29138 29138 29150 29169 29137 29103 29060 29047 29055 29051 29072 29094 29121 29123 29148 29156 29189 29190 29216 29255 29283 29287 29246 29222 29220 29221 29211 29227 29240 29226 29217 29214 29218 29213 29209 29210 29224 29233 29212 29175 29130 29104 29090 29100 29124 29139 29162 29154 29159 29171 29209 29219 29260 29280 29294 29270 29251 29256 29275 29308 29343 29360 29379 29418 29438 29462 29489 29507 29521 29552 29555 29524 29496 29467 29463 29485 29495 29468 29430 29407 29375 29379 29356 29361 29349 29368 29387 29414 29427 29452 29527 29579 29681 29776 29884 29980 30069 30149 30249 30350 30464 30608 30721 30890 31047 31182 31297 31365 31388 31329 31244 31153 31120 31097 31109 31056 30993 30909 30852 30783 30754 30724 30701 30670 30615 30575 30552 30516 30488 30483 30475 30503 30536 30574 30641 30664 30670 30646 30602 30554 30459 30375 30325 30284 30178 30155 30173 30147 30101 30040 29993 29918 29856 29821 29763 29714 29698 29646 29610 29592 29588 29608 29654 29689 29717 29765 29838 29917 30008 30014 30035 30033 30025 30001 30008 29965 29960 29932 29884 29861 29837 29836 29834 29843 29849 29841 29852 29861 29872 29915 29933 29924 29956 29989 30055 30114 30184 30244 30309 30370 30452 30558 30672 30860 31032 31239 31498 31713 31856 31943 31899 31795 31697 31605 31499 31398 31291 31197 31113 31070 31029 30979 30955 30949 30923 30858 30838 30816 30817 30798 30748 30732 30696 30688 30658 30645 30670 30683 30705 30720 30750 30731 30704 30697 30673 30667 30688 30713 30724 30702 30687 30662 30638 30619 30618 30600 30598 30623 30634 30614 30599 30590 30581 30589 30581 30605 30593 30593 30595 30593 30599 30579 30572 30570 30556 30534 30475 30431 30389 30372 30358 30339 30355 30327 30325 30316 30303 30292 30287 30282 30277 30246 30193 30150 30107 30085 30073 30075 30082 30076 30088 30089 30102 30109 30136 30143 30156 30164 30126 30105 30108 30120 30143 30188 30217 30230 30259 30297 30321 30369 30388 30417 30438 30408 30391 30384 30366 30369 30389 30415 30437 30451 30474 30502 30521 30547 30582 30623 30644 30641 30600 30573 30567 30549 30557 30580 30595 30613 30630 30644 30664 30676 30695 30730 30731 30742 30759 30743 30707 30680 30671 30660 30681 30707 30719 30736 30760 30768 30789 30808 30835 30846 30861 30878 30883 30877 30848 30837 30806 30811 30827 30835 30838 30851 30866 30894 30900 30909 30945 30957 30986 31014 31033 31063 31065 31059 31043 31037 31046 31061 31069 31092 31091 31097 31127 31120 31127 31147 31151 31177 31202 31192 31211 31204 31209 31187 31171 31161 31177 31239 31351 31439 31514 31573 31626 31679 31659 31585 31595 31618 31749 31840 31938 32007 31991 32056 32235 32705 33218 33547 33779 33970 34184 34446 34675 34918 35152 35372 35628 35793 35888 35989 36041 36081 36148 36235 36304 36430 36625 36776 37032 37178 37264 37291 37336 37291 37350 37298 37095 36895 36734 36543 36346 36183 36073 35971 35831 35666 35520 35468 35494 35507 35498 35470 35387 35283 35182 35128 34972 34951 34861 34821 34767 34735 34663 34656 34573 34606 34516 34508 34440 34342 34164 34034 33889 33744 33628 33525 33432 33312 33207 33175 33170 33167 33164 33196 33215 33269 33322 33375 33435 33445 33497 33572 33614 33683 33657 33687 33663 33768 33935 34449 35130 35716 36062 36178 36312 36483 36647 36733 36835 36919 36877 36901 36887 36865 36762 36634 36570 36504 36449 36413 36324 36311 36283 36297 36184 36039 35909 35760 35654 35620 35573 35608 35532 35594 35617 35595 35734 35697 35915 36066 36273 36464 36674 36865 37138 37327 37558 37607 37505 37577 37539 37529 37488 37558 37422 37379 37207 37073 36885 36782 36685 36721 36661 36733 36703 36734 36795 36936 37028 37114 37156 37083 37016 36879 36791 36716 36649 36555 36452 36285 36191 36098 36116 36219 36269 36303 36277 36255 36098 36075 36059 36096 36185 36276 36425 36541 36691 36653 36744 36760 36781 36740 36691 36586 36492 36350 36183 36020 35908 35775 35605 35490 35397 35331 35264 34964 34945 34693 34478 34131 33596 33539 33355 33412 33403 33538 33698 33889 33919 34120 34293 34391 34577 34668 34907 35061 35271 35443 35576 35744 35757 35804 35873 35801 35880 35844 35894 35836 35774 35680 35653 35531 35532 35557 35545 35589 35500 35575 35463 35432 35419 35336 35287 35154 35193 35087 35119 35083 35156 35185 35223 35170 35136 35072 34992 34930 34856 34773 34715 34650 34627 34619 34523 34660 34549 34527 34421 34275 34163 34028 33948 33915 33881 33830 33997 34347 34776 35161 35552 35786 35884 35883 36009 35983 36059 36124 36228 36309 36299 36212 36195 36220 36270 36303 36365 36103 36005 35840 35917 36073 36082 36000 35922 35822 35693 35547 35434 35317 35219 35136 35033 34879 34721 34586 34396 34308 34153 34044 33941 33797 33708 33568 33503 33307 33188 32975 32793 32559 32337 32193 32119 31986 31999 31820 31753 31662 31594 31529 31493 31335 31300 31254 31153 31069 30976 30879 30918 30916 30862 30824 30724 30676 30667 30613 30675 30618 30566 30504 30454 30446 30464 30429 30415 30380 30311 30376 30346 30388 30354 30345 30234 30138 29959 30120 30567 30856 31028 31174 31323 31532 31908 32583 33184 33779 34037 33965 33897 33860 33779 33663 33533 33373 33195 33016 32813 32508 32305 32347 32366 32397 32527 32691 32854 33111 33343 33617 33799 33959 34112 34178 34288 34397 34529 34572 34581 34624 34593 34619 34567 34541 34494 34523 34451 34419 34385 34303 34262 34231 34192 34147 34139 34056 33993 33902 33845 33841 33832 33811 33861 33875 33892 33998 34542 35071 35449 35927 36010 36112 36033 35760 35753 35730 36012 36098 36280 36228 36133 36061 35915 35841 35633 35567 35421 35366 35194 35174 35057 34962 34901 34789 34679 34583 34448 34388 34120 34112 33899 33797 33616 33446 33256 33068 32901 32778 32612 32554 32482 32400 32338 32286 32200 32150 32233 32188 32182 32118 32005 32093 32126 32205 32244 32230 32149 32144 32060 32034 31955 31926 31837 31791 31635 31537 31413 31278 31208 31143 31084 30991 31029 30908 30923 30863 31066 31291 31397 31454 31494 31533 31465 31539 31548 31521 31435 31447 31410 31387 31401 31418 31459 31476 31346 31453 31251 31298 31216 31164 31186 31119 31104 30996 30824 30731 30993 31424 31576 31682 31756 31815 31874 31892 31952 32087 32135 32349 32272 32299 32269 32258 32211 32106 31978 31959 31834 31865 31936 32047 32156 32182 32192 32106 32187 32245 32317 32366 32405 32445 32417 32394 32293 32242 32101 32160 32064 31995 32063 31942 31990 31890 31898 31924 31920 31902 31879 31787 31775 31778 31702 31684 31641 31634 31620 31624 31643 31591 31602 31602 31574 31543 31512 31487 31501 31411 31395 31357 31369 31361 31357 31293 31291 31262 31275 31225 31242 31282 31296 31359 31323 31384 31403 31425 31415 31403 31412 31394 31319 31294 31242 31204 31208 31184 31141 31161 31119 31087 30996 31017 30980 31051 31067 31075 31060 31063 31024 30998 30999 30936 30944 30932 30897 30885 30841 30751 30744 30747 30763 30828 30922 30999 31167 31257 31278 31293 31322 31238 31357 31340 31302 31350 31247 31135 31054 31102 30954 31000 30895 30921 30850 30927 30942 30919 31010 31097 31041 31073 31038 31105 31095 31117 31074 31209 31139 31242 31241 31183 31291 31350 31287 31307 31287 31283 31330 31320 31320 31410 31219 31439 31377 31462 31443 31434 31513 31504 31467 31532 31470 31486 31534 31686 31461 31936 31857 32012 32231 32166 32264 32454 32408 32482 32648 32639 32880 32746 32930 32848 32908 32962 32845 33010 32896 32818 32855 32774 32798 32786 32787 32855 32911 32951 32944 32963 32883 33005 32942 32977 32974 32891 32915 32921 32838 32937 32977 32763 32934 32786 32771 32765 32743 32700 32719 32657 32779 32732 32818 32791 32867 32907 32861 32909 32800 32898 32742 32870 32721 32901 32799 32906 32861 32880 32930 32799 32873 32796 32763 32790 32790 32764 32746 32769 32679 32704 32640 32759 32628 32589 32604 32373 32571 32369 32474 32436 32401 32365 32416 32405 32337 32355 32249 32285 32251 32315 32292 32374 32346 32314 32516 32373 32428 32382 32262 32196 32296 32282 32185 32218 32265 32243 32259 32279 32240 32217 32236 32255 32034 32255 32065 32121 32161 32185 32051 32286 32011 32365 32240 32334 32255 32296 32134 32299 32164 32205 32135 32085 32159 32067 32125 32087 32024 32058 31892 31911 31849 31796 31775 31707 31730 31780 31617 31723 31719 31679 31802 31658 31877 31794 31866 31875 31941 31927 31943 31960 31905 31940 31841 32026 31805 31964 31764 31886 31737 31877 31878 31942 31881 31914 31949 31962 32026 31853 31956 31967 31891 31863 31929 31752 31790 31835 31600 31710 31569 31702 31547 31635 31539 31731 31659 31760 31789 31907 31800 31923 31787 31835 31812 31868 31786 31792 31762 31762 31698 31749 31651 31645 31627 31544 31620 31453 31624 31509 31590 31481 31543 31457 31471 31491 31403 31419 31383 31298 31338 31309 31204 31265 31083 31175 31200 31184 31232 31040 31241 31150 31120 31365 31228 31332 31320 31157 31337 31402 31484 31433 31426 31431 31578 32345 32306 32734 32718 32822 33143 33321 33320 33634 33758 33920 33853 34472 34190 34625 34478 34613 34368 34620 34379 34456 34076 34099 33880 33881 33875 34015 34067 34006 33992 33822 33750 33727 33747 33721 33833 33733 33907 33937 33931 34093 34075 33990 34080 34051 33991 34190 34099 34299 34274 34332 34316 34386 34480 34497 34452 34515 34425 34485 34366 34513 34351 34394 34324 34363 34218 34277 34314 34218 34139 34265 34233 34216 34139 34218 34105 34097 34055 34129 33920 34240 34019 33985 33779 33856 33686 33744 33637 33610 33523 33412 33564 33293 33387 33287 33167 33054 32995 32803 32805 32769 32658 32583 32565 32470 32377 32482 32291 32287 32129 32144 31894 32027 31885 31782 31741 31731 31622 31664 31586 31608 31509 31387 31363 31200 31205 31058 31021 30992 30974 30921 30930 30869 30832 30766 30782 30679 30574 30505 30434 30456 30524 30439 30721 30635 30742 30732 30974 31173 31186 31341 31229 31149 31397 31238 31659 31183 31375 31191 31231 31236 31491 31488 31663 31697 31820 31871 31876 32297 32044 32130 32256 32393 32270 32625 32642 32488 32457 32741 32540 32422 32729 32683 32703 32654 32971 32812 32670 33028 32837 32767 32864 32788 32811 32724 32909 32776 32786 32967 32814 32724 32902 32796 32569 32780 32613 32704 32513 32747 32644 32842 32682 32730 32757 32822 32653 33030 32818 32857 32675 32912 32725 32883 32807 32866 32838 33106 32913 33407 33075 33345 33284 33353 33223 33291 33138 33199 33124 33012 33156 32999 33287 33192 33159 33247 33271 33171 33346 33204 33163 33123 33144 32948 33062 32932 32824 32833 32786 32742 32610 32643 32596 32398 32367 32214 32173 32142 32177 32205 32089 32144 32135 32173 32259 32210 32184 32162 32139 32168 32103 32248 32068 32304 32093 32300 32057 32492 32161 32393 32435 32248 32115 32290 32141 32206 32248 32232 32511 32335 32459 32284 32567 32543 32376 32425 32278 32240 32387 32193 32251 32266 32339 32237 32328 32273 32192 32361 32142 32065 31976 32244 31991 32181 32120 32187 32695 32527 32937 32767 33125 32818 32937 32846 32877 32867 32987 32953 32928 32961 32967 32838 32955 32818 32729 32756 32580 32623 32618 32607 32595 32645 32707 32588 32653 32702 32550 32357 31620 31464 31657 31984 32592 32591 32934 32965 33034 33154 33357 33333 33551 33714 33490 33593 33482 33626 33515 33647 33652 33670 33694 33767 33825 33734 33813 33890 33747 33843 33771 33873 33780 33887 33820 33794 33790 33852 33753 33895 33868 33609 33526 33494 33403 33377 33442 33446 33267 33579 33559 33577 33601 33560 33480 33407 33278 33205 33177 33133 33144 33059 33233 33155 33120 33261 33192 33166 33094 33088 32866 32881 32740 32726 32641 32634 32527 32550 32473 32510 32428 32478 32377 32379 32189 32355 32339 32173 32456 32236 32455 32461 32540 32480 32464 32505 32520 32517 32492 32381 32487 32387 32418 32441 32364 32328 32336 32302 32247 32142 32166 31922 31989 31789 32063 32045 32545 32649 32452 32563 32875 32611 32908 32916 33080 32914 33241 33129 33098 33406 33016 33119 33304 33543 33772 33824 34172 34030 34384 34211 34239 34223 34095 33958 34077 33943 33911 33927 34281 33612 34135 34024 34111 35017 34805 34720 34977 34944 35009 35420 35514 35664 36208 36121 36605 36723 36920 36896 37107 37105 37128 37165 37347 37462 37425 37562 37557 37512 37792 38426 38877 38675 38515 38224 38020 37809 37725 37551 37560 37288 37414 37336 37189 37110 36928 36827 36654 36582 36432 36425 36188 36222 36055 36020 35968 35892 35714 35609 35473 35397 35274 35130 35098 35083 34959 34800 34846 34708 34575 34497 34364 34357 34015 34168 34047 34089 34086 34178 34161 34037 34021 33943 33836 33755 33762 33654 33709 34028 33883 34125 34086 34193 34253 34134 34324 34230 34228 34159 34070 34495 34675 35358 35625 35929 36105 36116 36125 36239 36144 36176 36048 36058 36034 35899 35748 35840 35672 35561 35712 35653 35643 35815 35700 35723 35639 35433 35101 34848 34656 34741 34911 35143 35151 35224 35097 35092 35056 34889 34846 34658 34715 34486 34456 34448 34432 34319 34259 34201 34110 34083 34016 33928 33798 33674 33595 33537 33479 33398 33339 33227 33283 33022 33340 33442 33465 33502 33501 33428 33266 33296 33230 33174 33136 33108 33069 33024 32963 32905 32824 32754 32641 32546 32451 32341 32365 32287 32250 32201 32150 32078 32046 32048 31868 31836 31733 31678 31500 31620 31483 31484 31427 31386 31278 31296 31130 31138 30966 30819 30887 30682 30857 30731 30995 31056 31244 30981 31116 31084 31169 31098 31268 31107 31354 31304 31364 31282 31402 31414 31433 31359 31319 31293 31229 31317 31347 31336 31419 31385 31475 31371 31489 31575 31547 31465 31409 31333 31248 31260 31182 31117 31163 31138 31054 31250 31129 31206 31174 31249 30901 31322 31126 31475 31245 31535 31343 31585 31431 31666 31429 31734 31471 31775 31524 31849 31666 31997 31889 32137 32014 32372 32211 32692 32589 32843 32901 32910 32984 32841 32907 32853 32878 32969 32960 32957 32969 32899 32882 32776 32697 32620 32553 32464 32473 32507 32445 32611 32838 33184 33366 33524 33560 33487 33528 33676 33735 33807 34063 33818 33891 33801 33994 34025 34325 34551 34607 34699 34818 35015 34985 35092 35018 34898 34940 35029 35076 34935 34981 34819 34661 34668 34487 34444 34384 34274 34223 34167 34131 34069 33991 33946 33865 33769 33624 33533 33396 33308 33274 33149 33101 33057 32945 32915 32842 32807 32664 32531 32472 32318 32245 32131 32128 31969 31955 31944 31824 31770 31819 31647 31551 31458 31303 31269 31250 31100 31159 30957 31064 30978 30993 30888 30877 30750 30701 30630 30525 30522 30497 30409 30422 30359 30401 30368 30397 30423 30467 30412 30389 30293 30305 30279 30225 30214 30142 30195 30096 30204 30144 30167 30099 30093 29998 30014 29958 29976 29909 29934 29854 29875 29850 29879 29776 29966 29887 29976 29915 29987 30047 29999 30061 30020 30027 30049 29899 30039 29970 29974 29931 29919 30010 30120 30151 30268 30182 30269 30209 30326 30262 30356 30308 30325 30236 30231 30235 30175 30196 30208 30140 30186 30155 30129 30131 30121 30121 30067 30015 30036 29966 30020 29979 29929 29958 29928 29930 29935 29943 29911 29880 29836 29941 29833 29948 29938 29955 29869 30018 29897 30080 29980 30066 30018 30042 29953 29977 29942 29920 29928 29862 29907 29846 29907 29865 29902 29836 29889 29793 29861 29781 29763 29913 29826 29940 30019 29971 30013 30014 30090 30010 30105 30155 30043 30115 30108 30072 30187 30077 30237 30306 30354 30379 30474 30441 30545 30473 30567 30460 30543 30408 30476 30442 30497 30343 30571 30438 30492 30508 30553 30546 30497 30523 30478 30432 30489 30342 30522 30499 30404 30636 30443 30867 31071 31066 31120 31227 31102 31099 31068 31214 30957 31124 31151 31176 31107 31461 31313 31517 31388 31441 31531 31249 31257 31344 31185 31030 31320 31102 31382 31494 31535 31733 31671 31818 31771 31767 31703 31634 31642 31472 31582 31544 31471 31533 31452 31435 31307 31301 31306 31179 31175 31097 31084 31065 31044 31114 31065 30130 30363 30171 30549 30585 30899 31338 31628 32875 33317 35133 35738 35796 35767 35650 35650 35330 35371 35071 35159 35161 35349 35342 35283 35551 35495 35715 35695 35641 35754 35746 35769 35811 35772 35783 35731 35543 35524 35373 35300 35300 35104 35250 35143 35273 35220 35287 35319 35570 35608 36066 35430 36177 35869 36114 36128 36557 36657 37223 37336 37306 37168 37077 37042 36884 36715 36576 36386 36238 36146 36039 36004 35885 35906 35838 35739 35927 35853 35898 35828 35682 35461 35422 35320 35279 35212 35188 35078 35164 34995 34970 34812 34811 34567 34543 34197 34017 33793 33628 33470 33342 33241 33114 33105 32879 33042 32988 33126 33191 33235 33240 33217 33230 33176 33238 33151 33233 33123 33162 33018 33026 32947 32940 32768 32760 32585 32492 32514 32496 32508 32641 32764 32704 32762 32739 32790 32770 32843 32760 32542 32479 32326 32310 32342 32400 32674 33126 33410 33823 34047 34121 34107 34073 34040 33875 33827 33841 33801 33864 33938 33794 33893 33867 33905 33963 33990 33940 34044 33891 33898 33799 33757 33704 33605 33575 33496 33465 33354 33301 33257 33148 33099 33008 32937 32769 32621 32553 32409 32346 32282 32200 32185 32151 32174 32333 32640 32830 32937 33288 33389 33513 33798 34232 34583 35136 35620 35126 34856 34623 34762 34932 35131 35221 35274 35194 35145 35033 34975 34889 34836 34759 34710 34622 34544 34488 34443 34429 34396 34327 34251 34128 34105 33735 33812 33715 33588 33679 33542 33481 33539 33492 33450 33594 33505 33566 33556 33351 33440 33269 