35402 35485 35571 35646 35712 35772 35811 35846 35875 35893 35897 44829 44873 44932 44977 44971 44757 44025 43435 42754 42139 41649 41228 40910 40701 40565 40654 40739 40627 40298 40086 40071 40224 40234 40020 39685 39334 39137 38858 38803 38784 38773 38865 39027 39126 39143 39256 39304 39417 39694 39794 39767 39698 39530 39455 39462 39372 39209 39032 38863 38752 38630 38551 38497 38431 38381 38116 37744 37460 37282 37166 37100 37032 36968 36896 36816 36762 36715 36679 36641 36643 36547 36247 35985 35847 35775 35753 35786 35812 35802 35824 35837 35873 35920 35971 36008 36059 35962 35680 35533 35462 35449 35490 35552 35578 35615 35637 35680 35711 35748 35830 35825 35745 35738 35879 36138 36400 36660 36898 37330 38040 39022 39872 40655 41292 41588 41667 41462 40554 39773 39146 38585 37984 37355 36863 36552 36270 36053 35928 35799 35717 35620 35551 35478 35294 35048 34839 34706 34633 34619 34589 34569 34537 34526 34495 34505 34530 34551 34561 34581 34554 34415 34295 34240 34224 34243 34255 34245 34247 34243 34267 34288 34303 34322 34330 34364 34385 34288 34137 34034 34020 34046 34076 34093 34109 34109 34124 34135 34163 34187 34186 34215 34224 34127 33967 33873 33847 33854 33893 33934 33953 33990 34014 34047 34081 34130 34174 34195 34236 34190 34012 33881 33847 33882 33902 33960 33992 33997 34017 34024 34070 34099 34129 34156 34177 34184 34175 34077 34013 34039 34071 34091 34102 34049 34049 34046 34040 34062 34112 34148 34195 34248 34288 34205 34124 34144 34207 34269 34327 34361 34360 34354 34356 34354 34364 34378 34395 34362 34368 34254 34123 34026 34038 34091 34099 34127 34135 34129 34112 34087 34056 34073 34097 34122 34150 34078 33966 33882 33875 33898 33919 33981 33997 34019 34035 34065 34120 34155 34188 34226 34245 34114 34034 33972 33989 34008 34087 34144 34176 34190 34206 34238 34252 34280 34315 34361 34400 34308 34192 34165 34162 34187 34238 34260 34301 34306 34360 34439 34564 34826 35032 35194 35253 35224 35212 35229 35263 35267 35249 35226 35196 35186 35182 35199 35215 35227 35233 35217 35060 34897 34806 34793 34787 34817 34834 34823 34817 34826 34848 34861 34898 34918 34969 34957 34810 34649 34594 34586 34628 34669 34703 34744 34785 34812 34841 34907 34965 34994 35089 35263 35364 35314 35305 35366 35440 35525 35597 35694 35918 36188 35888 35641 35466 35433 35438 35470 35491 35436 35359 35333 35352 35403 35487 35576 35645 35692 35768 35841 35907 36001 36078 36164 36229 36276 36197 36112 36093 36143 36205 36283 36334 36367 36441 36362 36405 36509 36657 36754 36833 36883 36808 36646 36587 36585 36607 36668 36731 36795 36868 36921 37057 37319 38027 39929 42195 42955 43333 42055 41502 40309 40350 40490 40268 39329 38817 38249 37891 37694 37558 37431 37321 37217 37139 36936 36673 36439 33482 33468 33484 33511 33543 33598 33657 33737 33755 33678 33657 33692 33747 33809 33920 34001 34055 34111 34156 34224 34293 34336 34408 34396 34248 34175 34151 34202 34257 34323 34392 34423 34451 34464 34516 34554 34608 34661 34568 34445 34353 34339 34325 34373 34444 34489 34540 34548 34507 34546 34684 35027 35990 38594 39131 40546 40996 40076 38565 38081 37808 37715 37688 37669 37535 37426 37213 37118 36851 36545 36261 36094 35943 35943 35988 35948 35948 35951 35941 35969 36007 36177 36315 36409 36335 36154 36045 36057 36087 36093 36026 36165 36148 36064 36101 36093 36157 36166 36070 36009 35872 35606 35552 35477 35372 35699 35806 36227 36388 36592 36928 37195 37255 37220 37346 37310 37530 37544 37441 37350 37332 37319 37346 37293 37261 37210 37111 36995 36794 36612 36551 36583 36534 36535 36499 36571 36557 36582 36592 36608 36711 36738 36660 36525 36497 36455 36494 36349 36902 36958 37017 37098 37178 37291 37383 37514 37314 37344 37572 38074 38873 39404 40235 39959 40254 39713 39702 39147 39792 39465 39082 38699 38406 37966 37804 37645 37454 37378 37313 37243 37141 37095 36988 36928 36902 36661 36503 36145 36162 35956 35977 35801 35898 35923 35762 35827 35727 36071 35675 35914 35940 35474 35455 35546 35768 35993 36053 36477 36433 36505 36634 36660 36742 36822 36850 37224 37488 37673 37560 37447 37188 37414 37544 38126 38787 39204 39890 39993 40236 40161 40160 40323 40409 40451 40516 40597 40526 40699 40410 40118 39976 39745 39462 39168 38930 38562 38251 37884 37666 37566 37397 37366 37300 37175 37188 37042 37078 36913 36971 36920 36739 36700 36641 36787 37000 36925 37086 37090 37246 37197 37301 37395 37459 37416 37459 37374 37237 37158 37174 37227 37529 37790 38445 38928 39543 39937 40212 40527 40141 39725 39153 38390 38122 37784 37592 37438 37375 37114 37145 36958 36826 36794 36793 36688 36727 36555 36285 36092 35962 35840 35798 35834 35798 35749 35703 35623 35597 35585 35532 35665 35577 35343 35089 34904 34956 34926 34923 34827 35019 34923 34933 34942 34981 34943 34914 34959 34895 34686 34619 34553 34525 34511 34736 35340 36287 36979 37028 36647 36507 36399 36382 36559 36479 36401 36467 36468 36507 36576 36926 36830 36953 37037 37005 37045 37083 36923 36772 36672 36416 36286 36164 36151 36139 36411 36686 37269 37577 38407 39218 39760 40734 41231 41395 41296 41295 40762 40628 40724 40661 40644 40650 40726 40653 40709 40664 40721 40641 40469 40163 40052 40025 40152 40096 40227 40302 40346 40336 40331 40076 39903 39722 39619 39361 39063 38681 38456 38198 38124 37913 38086 37904 37882 37780 37737 37655 37575 37500 37400 37189 37027 36781 36798 36698 36584 36596 36514 36507 36621 36452 36589 36507 36558 36516 36435 36176 36205 36002 35989 35992 35951 36099 36009 36019 36143 36242 36212 36254 36323 36223 36106 35789 35831 35609 35582 35630 35530 35732 35646 35861 35790 35850 35729 35992 35949 36010 35856 35604 35584 35578 35591 35617 35565 35569 35690 35831 36018 35901 36012 36028 36042 35948 35788 35585 35558 35435 35493 35489 35469 35508 35341 35620 35518 35717 35683 35758 35796 35680 35431 35433 35382 35424 35466 35391 35567 35714 35569 35718 35823 35774 36043 35917 36064 35958 35881 35803 35875 35793 35912 36084 35999 36185 36094 36322 36186 36482 36280 36410 36429 36566 36345 36442 36323 36446 36318 36410 36403 36498 36501 36526 36668 36535 36687 36726 36921 36803 36848 36874 36687 37702 36950 37033 36979 37069 37253 37422 37568 37546 37559 37519 37631 37636 37648 37533 37462 37294 37281 37231 37244 37136 37168 37234 37176 37314 37198 37264 37164 37428 37297 37247 37078 37161 36971 37030 36881 36981 36968 36921 37068 36961 37111 37053 37150 37246 37335 37236 37116 36895 36863 36812 36900 36908 37009 37020 36987 37040 37036 37184 37133 37134 37028 36975 36769 36652 36546 36394 36292 36230 36269 36202 36337 36287 36302 36281 36293 36316 36368 36500 36596 36457 36306 36310 37087 37921 38131 37734 37491 37579 37351 37313 37279 37153 37262 37362 37341 37100 36864 36610 36461 36243 36162 36090 36063 35940 36012 35839 35994 35814 36266 36060 36432 36357 36249 36106 36011 35915 35956 36045 36077 35992 36194 36135 36348 36435 36459 36584 36656 36695 36627 36464 36357 36333 36269 36226 36245 36189 36265 36230 36297 36275 36435 36416 36590 36602 36663 36583 36454 36504 36354 36546 36464 36686 36763 36737 36775 36716 36741 36718 36740 36784 36761 36669 36560 36465 36387 36384 36373 36446 36285 36559 36570 36666 36634 36793 36720 36922 36931 36910 36745 36846 36710 36777 36715 36763 36762 36752 36715 36669 36688 36625 36650 36571 36800 36756 36892 36781 36738 36590 36630 36688 36646 36742 36691 36686 36599 36654 36845 36904 37078 36992 37185 37124 37202 37069 37100 36966 37039 37022 37059 37069 37073 36992 36911 37039 36982 37067 36980 36858 36806 36626 36475 36359 36251 36240 36309 36353 36443 36395 36463 36602 36627 36726 36798 36836 36716 36742 36582 36584 36556 36619 36660 36866 36902 36861 36965 36939 36957 36914 36811 36836 36747 36686 36425 36384 36221 36329 36333 36306 36290 36292 36188 36225 36178 36149 36113 36077 36066 36062 36107 35981 35783 35770 35645 35691 35724 35799 35813 35909 35873 36000 36008 36010 36031 36002 36051 36000 35803 35841 35772 35879 35944 35993 36086 36312 36478 36525 36541 36605 36622 36630 36549 36666 36527 36591 36466 36421 36389 36391 36385 36370 36340 36308 36379 36326 36325 36269 36220 36241 36244 36417 36644 37100 37887 38629 39021 39135 39434 39016 38904 38392 38349 38224 38167 38124 38079 38029 37956 37772 37644 37489 37486 37374 37337 37352 37298 37190 37107 37063 37074 37006 36980 37012 36990 37122 37061 37139 37221 37347 37395 37468 37536 37531 37572 37576 37609 37715 37759 37789 37880 37824 37770 37727 37604 37490 37410 37268 37169 37130 37084 37054 37053 37007 37040 37033 37047 37003 36830 36696 36563 36583 36569 36590 36657 36631 36765 36685 36850 36877 36933 36992 37017 36917 36785 36705 36689 36597 36665 36633 36665 36574 36540 36483 36475 36534 36576 36699 36631 36567 36395 36364 36390 36479 36470 36468 36515 36537 36521 36613 36660 36701 36679 36669 36541 36399 36312 36302 36286 36317 36358 36313 36433 36407 36403 36485 36476 36495 36471 36434 36332 36189 36213 36219 36266 36307 36364 36376 36399 36357 36402 36381 36407 36437 36348 36223 36237 36261 36295 36253 36261 36352 36367 36488 36482 36545 36517 36550 36537 36511 36363 36414 36386 36488 36524 36609 36712 36882 37104 37196 37270 37383 37556 39207 40968 41425 41035 41889 42145 43011 43085 43097 42640 42303 41452 41349 43082 42985 42757 41961 41416 41182 40900 40402 40354 40028 39776 39499 39326 39216 39130 39028 38979 38919 38679 38441 38165 37997 37908 37760 37634 37532 37417 37392 37841 38167 38964 39627 39885 39955 40325 40574 40778 40465 40040 39413 39037 38713 38613 38497 38274 38300 38109 38064 37582 37301 37069 36858 36696 36687 36650 36573 36651 36540 36684 37571 38229 38429 38193 37490 37177 37096 37388 37639 37924 38126 38087 37676 37338 37255 37153 37144 36955 36702 36400 36208 36113 35931 36020 35921 35876 35887 35852 36010 36048 36236 36249 36128 36035 36001 35970 36006 35910 35878 35832 35787 35751 35674 35673 35684 35682 35583 35477 35424 35426 35393 35484 35533 35580 35630 35714 35742 35837 35845 35903 35870 35788 35773 35705 35707 35673 35787 35830 35840 35803 35895 35919 35911 36035 36004 35977 35900 35914 35958 35989 36085 36094 36171 36272 36356 36515 36576 36696 36622 36564 36444 36442 36447 36430 36431 36671 38015 38693 39352 39129 39107 39698 40290 40540 40946 41109 41084 41001 40771 40632 40497 40372 40366 40586 40974 41861 42363 42317 42506 42941 43433 42978 42416 42239 41232 40923 41317 40519 39996 40116 39852 39875 39655 39576 40347 41001 41212 41407 40696 40701 40446 40188 39890 39748 39521 39180 38840 38608 38385 38319 38244 38218 38151 38125 38050 38022 38032 37992 37868 37607 37397 37260 37100 37030 37007 37176 37290 37426 37572 37639 37771 38133 38342 38432 38438 38451 38466 38966 39559 40509 40924 41487 41580 41893 41945 42315 42612 42753 42798 42893 42998 43144 43343 43741 43671 43689 43705 43715 43558 43819 43726 43713 43714 43795 43780 43884 44095 44223 44424 44537 44584 44591 44599 44492 44265 44014 43719 43649 43646 43808 44019 43692 43283 42946 42596 41977 41884 41998 42133 42040 42139 41999 41615 41464 41314 41211 41061 41373 41091 40919 41293 41356 41076 40905 40058 40664 39854 39502 39282 38939 38944 38649 38712 38504 38627 38502 38412 38203 37747 37329 37017 36816 36744 36637 36624 36516 36416 36377 36298 36289 36189 36217 36080 35904 35825 35871 35965 35843 35822 35868 36109 36172 36254 36458 36599 36835 36719 36752 36550 36478 36299 36300 36536 36821 37157 37327 37197 37021 36691 36641 36465 36295 36070 35972 35770 35950 35839 36031 36020 35886 35991 35921 35984 35923 35990 35743 35935 35877 35733 35884 35865 35929 35972 35977 35900 35865 35859 35862 35778 35639 35610 35459 35377 35255 35098 35079 35090 35088 35090 35157 35139 35204 35374 35332 35115 35456 35507 35511 35496 35680 35674 35630 35661 35766 35777 35868 35884 35968 36165 36174 36200 36198 36248 36242 36240 36301 36330 36346 36355 36347 36365 36254 36664 36689 36638 36729 36681 36701 36778 36696 36657 36687 36637 36566 36519 36437 36270 36126 35981 36067 36104 36120 36118 36075 36100 36071 36109 36158 36168 36133 36017 35929 35833 35737 35745 35766 35792 35788 35768 35716 35638 35690 35659 35744 35705 35582 35498 35445 35455 35466 35532 35600 35589 35601 35611 35621 35670 35728 35692 35549 35388 35344 35330 35316 35376 35389 35441 35502 35542 35575 35672 35763 35817 36200 37575 38782 39664 40528 40021 39002 38420 38128 38027 37850 37931 38113 38067 37904 37747 37611 37503 37373 37276 37264 37176 37110 37084 37405 37528 37869 37949 37863 37772 37690 37657 37718 37807 37876 37944 37937 37929 37880 37862 37855 37838 37732 37541 37400 37283 37195 37192 37130 37102 37043 37039 37034 37045 37076 37108 37024 36912 36811 36775 36717 36740 36773 36850 36883 36907 36949 37026 37085 37172 37137 37002 36949 36914 36987 37124 37270 37399 37510 37612 37675 37758 37786 37756 37731 37639 37515 37432 37442 37692 37885 38096 38462 39157 40049 40701 41236 41763 41656 41444 41369 41224 41230 41204 41094 41047 41061 41071 41103 41142 41038 40903 40735 40390 39988 39674 39408 39278 39226 39220 39340 39537 39660 39701 39744 39943 40019 40210 40777 41775 41361 41666 41369 40487 39775 39420 39144 38983 38899 38756 38633 38481 38227 37890 37575 37407 37296 37311 37335 37273 37752 37976 38108 37972 37924 37958 37832 37527 37110 37251 36830 36974 37012 37052 37036 37012 36999 36963 37000 37078 37040 36839 36683 36592 36513 36552 36565 36610 36649 36667 36755 36722 36787 36828 36829 36784 36550 36373 36303 36225 36121 36254 36202 36386 36406 36307 36384 36373 36394 36433 36352 36371 36256 36194 36172 36152 36195 36232 36268 36346 36437 36484 36569 36661 36595 36637 36532 36494 36514 36553 36580 36640 36714 36780 36873 36953 36988 37059 37102 37126 37024 37063 37014 36973 36991 37017 37135 37074 37107 37045 37104 37145 36995 37122 37121 36949 37031 36975 37088 37086 37074 37149 37252 37221 37369 37346 37545 37558 37702 37629 37640 37596 37646 37595 37668 37648 37707 37750 37850 37774 37979 37870 37844 37716 37446 37337 37173 37197 37273 37340 37246 37514 37345 37618 37638 37803 37902 37791 37783 37768 37651 37774 37676 37732 37746 37837 37888 37928 38107 38008 38252 38142 38052 37858 37902 37705 37834 37592 37674 37689 37529 37700 37754 37904 38043 38120 37933 37770 37665 37484 37615 37562 37695 37721 37740 37780 37764 37872 38064 38017 37992 37859 37994 37936 37947 37986 38054 38162 38254 38504 38742 38960 39082 39374 39551 39417 39729 39564 40021 40114 40078 39957 40292 40443 40430 40472 40498 40447 40289 39933 39697 39547 39421 39275 39257 39234 39231 39170 39186 39148 39061 38915 38911 38841 38602 38495 38467 38478 38615 38406 38593 38491 38538 38659 38758 38844 39055 39052 39315 39314 39499 40125 40272 40312 39852 39298 38962 38757 38663 38550 38556 38301 38162 37731 37595 37431 37247 37181 37078 37029 36944 36835 36771 36726 36706 36679 36568 36217 36237 36063 36230 36203 36303 36272 36271 36209 36268 36248 36271 36181 36062 35898 35770 35853 35962 36102 36467 36671 36891 37073 37158 37386 37314 37445 37335 37199 37207 37424 37796 38172 38304 38427 37973 37919 37972 37785 37764 37598 37416 37023 36864 36714 36627 36525 36480 36368 36351 36315 36312 36297 36285 36249 36140 36055 35895 35882 35866 35798 35735 35614 35475 35298 35412 35439 35474 35480 35378 35327 35205 35136 35185 35301 35331 35442 35503 35609 35668 35720 35787 35803 35829 35728 35797 35793 35814 35755 35869 35992 36091 36058 36182 36277 36367 36454 36403 36381 36260 36218 36225 36195 36300 36270 36310 36381 36505 36535 36538 36615 36497 36457 36418 36469 36683 36872 37073 37204 37321 37376 37466 37569 37705 37734 37700 37664 37682 37693 37757 37817 37961 38079 38180 38214 38297 38265 38460 38354 38308 38179 38105 38162 38126 38089 38175 38139 38209 38156 38213 38246 38283 38368 38308 38349 38242 38262 38421 38588 38935 39218 39234 39457 39373 39427 39572 39652 39772 39687 39608 39466 39468 39416 39420 39408 39362 39215 39143 39071 39018 38981 38995 38857 38762 38604 38521 38437 38441 38433 38402 38411 38432 38449 38452 38468 38457 38389 38143 38041 37925 37809 37897 37884 37894 37940 37906 37948 37986 38024 38056 38076 37931 37681 37543 37432 37342 37302 37272 37278 37323 37431 37780 38624 39353 40109 40503 39927 39162 38712 38260 38048 37921 37787 37680 37457 37324 37076 37135 37321 36936 37102 36930 36795 36816 36747 36737 36813 36757 36848 36797 37033 37056 37266 37063 36965 36765 36618 36468 36369 36402 36440 36479 36406 36412 36409 36400 36433 36371 36152 36105 35996 35914 36041 36032 36153 36181 36184 36176 36195 36316 36376 36396 36150 36228 36331 36421 36254 36412 36579 36724 36671 36904 36973 37006 37035 37238 37198 36981 36940 36819 36775 36730 36751 36777 36602 37012 37125 37297 37498 37558 37635 37723 37763 37914 37830 37803 37806 37786 37779 37738 37651 37640 37641 37576 37486 37379 37233 37137 37133 37156 37153 37189 37263 37316 37284 37292 37343 37370 37340 37325 37264 37311 37334 37432 37463 37489 37508 37564 37654 37692 37691 37798 37749 37657 37673 37575 37594 37480 37587 37632 37607 37711 37661 37682 37758 37745 37736 37692 37535 37526 37529 37554 37545 37543 37598 37605 37677 37697 37693 37716 37680 37531 37461 37446 37401 37424 37612 37721 37793 37945 37998 37963 38072 38044 38017 37886 37667 37553 37397 37348 37312 37326 37381 37420 37531 37521 37567 37536 37505 37345 37244 37092 37044 37023 37076 37128 37111 37203 37142 37181 37122 37098 37019 36890 36655 36537 36541 36572 36558 36524 36745 36704 36834 36845 36871 36936 36892 36939 36671 36651 36501 36460 36402 36440 36495 36584 36726 36699 36956 37001 37228 37375 37487 37491 37485 37586 37597 37750 37879 38122 38129 38376 38460 38560 38449 38513 38487 38421 38297 38233 38345 38360 38762 39288 39826 40495 40931 41232 41029 40488 40291 40087 39734 39684 40205 40329 40305 40171 40076 39838 39558 39244 39085 38929 38846 38732 38551 38346 38141 38039 37925 37941 37892 37888 37838 37824 37789 37800 37958 37833 37796 37687 37613 37605 37585 37594 37712 38133 38448 38803 39192 39633 39731 39602 39613 39703 39849 39827 39916 39826 39876 39933 39969 40082 40145 40121 40140 40115 40044 39917 39741 39545 39584 39505 39455 39479 39520 39593 39457 39482 39443 38981 38696 38587 38440 38134 37866 37556 37468 37182 37075 36966 36925 36930 36886 36899 36843 36769 36823 36668 36673 36528 36504 36525 36828 36891 37000 37093 37224 37577 37873 37967 38293 38449 38538 38508 38397 38041 38079 38189 38618 38851 38792 38463 37917 37774 37604 37491 37462 37353 37134 36878 36637 36394 36281 36128 36096 36014 36021 35855 35845 35732 35681 35547 35525 35367 35188 35107 34940 34902 35020 35002 34991 34977 35079 35215 35254 35302 35457 35420 35377 35297 35132 35282 35312 35407 35471 35505 35532 35477 35555 35471 35519 35597 35494 35504 35586 35925 36992 37207 37733 38082 38506 38454 37612 37391 37717 37993 37853 38426 38310 37762 37453 37080 36895 36797 36647 36666 36547 36505 36613 36639 36842 37008 37498 37524 37495 37642 37387 37396 37514 37473 37546 37711 37825 37972 38215 38161 38145 37927 37972 37926 37854 37814 37817 38066 38206 38182 38064 37878 37559 37699 37506 37327 36981 36662 36522 36433 36492 36504 36590 36607 36627 36720 36866 37251 37514 37596 37809 37877 37896 38277 38574 38841 39019 38937 38564 38123 37884 37724 37512 37199 36848 36506 36261 36106 35949 35710 35872 35847 35851 35759 35831 35764 35766 35514 35288 35244 35125 35220 35175 35222 35196 35209 35244 35239 35252 35254 35180 34983 34937 34837 34730 34807 34764 34847 34991 35329 35466 35843 36161 36906 36895 37440 37805 37793 37583 37491 37382 36989 36737 36685 36604 36571 36435 36387 36258 36084 35850 35666 35660 35596 35476 35488 35572 35580 35530 35513 35473 35406 35296 35083 34814 34607 34369 34216 34103 33989 33982 33972 33936 33801 33691 33608 33601 33506 33363 33181 33185 33200 33213 33315 33308 33350 33304 33340 33338 33314 33327 33303 33410 34016 34981 35850 37017 36918 36010 35697 35490 35265 35085 34844 34660 34463 34083 33872 33785 33740 33772 33851 33949 34022 34139 34193 34263 34307 34337 34409 34404 34388 34363 34410 34485 34630 34685 34721 34731 34722 34659 34656 34650 34617 34519 34352 34365 34375 34389 34399 34653 34801 34871 34955 35028 35089 35342 35330 35309 35173 35085 35015 35016 35061 35005 35144 35123 35213 35076 35159 35052 35155 35004 35067 35016 35196 35201 35259 35318 35376 35399 35448 35492 35448 35564 35559 35572 35495 35402 35555 35595 35970 36179 36474 36475 36539 36501 36343 36296 36201 36020 35987 35861 35676 35895 35823 35975 36000 36028 36008 36102 36006 36062 36065 36069 35915 35998 35885 36258 36371 36596 36750 38073 38248 38889 39679 40379 40565 40690 40575 40659 40596 40176 40006 39817 39614 39651 39558 39426 39456 39372 39353 39307 38993 38498 38317 38149 38034 37941 37896 37883 37766 37685 37730 37637 37617 37497 37286 36983 36899 36771 36801 37008 37273 37706 38282 38921 39026 38753 38370 37999 37741 37579 37511 37207 37069 36808 36646 36427 36274 36202 36177 36026 36106 36136 35872 35742 35577 35637 35640 35629 35701 35740 35805 35727 35771 35849 35840 35649 35603 35444 35312 35311 35248 35439 35490 35606 35611 35602 35637 35675 35674 35689 35505 35618 35532 35561 35478 35486 35497 35491 35535 35542 35556 35545 35601 35546 35447 35331 35278 35280 35286 35306 35432 35461 35444 35457 35579 35617 35606 35423 35274 35199 35368 35326 35489 35564 35658 35663 35646 35687 35653 35838 35760 35537 35515 35517 35546 35587 35634 35717 35722 35758 35999 36067 36063 36039 36030 35836 35731 35794 36182 36433 36500 36403 36425 36395 36384 36242 36261 36315 36138 35922 35874 35932 35989 35968 35960 36016 36038 35957 36066 36083 36124 36123 36105 36024 35859 35900 35755 35983 36011 36089 36145 36167 36221 36150 36149 36200 36050 36151 36081 36235 36248 36422 36500 36612 36658 36809 37073 37350 37909 38719 39012 38957 39291 39583 39678 39849 39850 39716 39578 39373 39029 38859 38737 38510 38207 38034 37992 37914 37792 37649 37455 37327 37381 37514 37459 37182 37081 36881 36637 36513 36458 36446 36508 36441 36249 36422 36482 36928 37631 38804 39631 39395 39815 40131 39380 38619 38342 38058 37939 38018 37838 37794 37504 37365 37013 36725 36478 36389 36272 36144 36387 36305 36376 36326 36405 36313 36381 36183 35935 35785 35830 35769 35787 35818 35778 35790 35744 35707 35650 35733 35787 35635 35478 35378 35381 35373 35461 35470 35419 35526 35665 35782 36023 36149 36109 35869 35715 35629 35633 35697 35844 36026 36406 37281 37813 38171 38639 38810 38430 37739 37328 37259 37026 36872 36691 36582 36364 36302 36154 36149 36070 35967 35944 35786 35736 35631 35587 35605 35705 35799 35897 35920 36024 36086 36168 36681 36807 37543 38969 39405 39710 40532 41191 41815 42069 42864 42990 43122 43004 42941 42826 42282 42109 42601 43465 43725 42620 42692 41819 41158 40676 40018 40183 40028 39882 39758 39110 38864 38573 38430 38342 38248 38073 37925 37776 37708 37583 37534 37316 37050 36807 36598 36668 36738 36875 37092 37873 38848 39345 39597 39423 38978 38466 37803 37407 37119 36921 36778 36673 36547 36462 36382 36287 36221 36162 36136 36004 35848 35796 35793 35836 35841 35862 35899 35928 35980 36085 36192 36191 36246 36132 36071 36027 36043 35986 35968 35946 35865 35800 35600 35607 35841 35826 35800 35672 35519 35381 35294 35272 35229 35320 35380 35379 35344 35366 35486 35602 35679 35577 35386 35268 35168 35052 35111 35182 35099 35186 35210 35165 35190 35210 35360 35245 35151 35038 34999 34976 34930 34857 34993 35138 35282 35405 35473 35545 35574 35553 35419 35308 35275 35331 35380 35461 35537 35565 35658 35685 35743 35707 35754 35768 35671 35627 35600 35547 35712 35838 35909 35918 35867 35840 35894 35950 35949 35889 35820 35624 35660 35756 35923 36119 36272 36287 36455 36502 36539 36567 36668 36636 36510 36768 36611 36848 36863 36914 36941 36855 36790 36824 36761 36948 37089 37072 37096 37114 37048 37020 37017 37106 37027 37079 36942 36943 36938 36945 37089 36954 36874 36793 36721 36633 36648 36647 36639 36683 36600 36926 37133 37246 37388 37401 37165 37136 37025 36982 36862 36847 36786 36643 36587 36659 36658 36670 36614 36482 36492 36360 36392 36413 36474 36444 36399 36380 36382 36436 36460 36423 36405 36238 36155 36063 36003 35991 36041 36070 36223 36134 36309 36252 36245 36267 36220 36080 35836 35940 36032 36156 36206 36326 36370 36410 36423 36550 36566 36449 36273 36067 36035 35969 36007 36037 36087 36161 36128 36127 36198 36184 36198 36126 36011 36004 36158 36456 36603 36582 36519 36605 36580 36557 36460 36407 36295 36192 36131 36210 36486 36979 37176 37393 37517 37472 37324 37256 37338 37272 37219 36994 36790 36614 36411 36293 36264 36205 36129 36137 36089 36130 36164 36229 36215 35924 36212 36471 36372 36611 36755 36834 37187 37001 37569 37640 37456 37549 37427 37241 37441 37026 37119 37581 37129 37529 37373 37472 37673 37386 37406 37586 37452 37797 37161 37169 37091 37109 37119 37388 37257 37467 37452 37470 37412 37480 37239 37041 37042 36916 36887 36857 36984 36950 37023 36975 37045 37075 37107 37020 36918 36717 36650 36556 36580 36577 36633 36675 36701 36768 36836 36931 36934 36934 36831 36740 36812 36756 36891 36983 37027 36990 37023 37019 37050 36894 37079 37016 36885 36772 36764 36734 36875 36920 37093 37146 37366 37353 37671 37768 37782 37826 37689 37598 37624 37409 37394 37381 37292 37287 37308 37116 37497 37509 37515 37258 37103 37077 37059 37064 37117 37176 37282 37405 37509 37557 37546 37577 37516 37412 37185 37226 37225 37281 37381 37358 37426 37560 37534 37578 37648 37668 37466 37297 37111 36922 36757 36865 36861 37014 37074 37059 37051 36957 36908 36761 36615 36561 36441 36448 36509 36557 36563 36642 36609 36608 36635 36677 36610 36525 36379 36283 36406 36352 36449 36627 36651 36657 36641 36692 36590 36643 36622 36384 36271 36114 36066 36120 36239 36478 36586 36710 36714 36698 36629 36777 36594 36368 36173 36091 36321 36521 36714 36962 37130 37520 37834 38003 38189 38167 38073 37699 37340 37322 37413 37375 37506 37632 37681 37779 37830 38054 37940 37847 37926 37738 37822 37678 37692 37641 37394 37398 37521 37583 37666 37759 37754 37464 37202 36961 36807 36885 36802 36908 36793 36841 36815 36808 36691 36762 36579 36406 36250 36202 36020 36164 36109 36308 36440 36511 36498 36877 38184 40016 40705 41039 40949 40676 40199 40114 39767 39489 38939 38578 38213 38039 37891 37673 37341 36955 36740 36411 36361 36227 36156 36048 36029 35940 35885 35978 35943 35830 35728 35651 35646 35618 35712 35680 35747 35680 35678 35619 35687 35727 35629 35446 35278 35388 35338 35440 35448 35537 35442 35516 35506 35584 35625 35593 35435 35386 35358 35424 35371 35586 35556 35677 35720 35686 35710 35770 35781 35708 35499 35404 35366 35318 35402 35471 35510 35517 35565 35582 35605 35678 35652 35416 35521 35519 35553 35611 35638 35673 35653 35817 35928 35837 36123 36132 36105 35994 35854 35880 35804 35890 35870 35845 35906 35928 36079 36151 36218 36008 36103 35970 35944 36015 35907 36139 35896 36587 36515 36763 36761 36864 36956 36603 36578 36541 36506 36581 36605 36692 36669 36734 36773 36769 36873 36856 36795 36624 36571 36537 36526 36574 36681 36674 36736 36725 36701 36768 36787 36814 36679 36569 36497 36516 36398 36509 36435 36436 36499 36414 36423 36380 36271 36072 35970 36010 35977 36071 36082 36066 36110 36190 36208 36133 36436 36468 36578 36663 37024 37572 38404 39313 40173 40015 39630 39129 38823 38567 38316 38043 37780 37537 37262 37187 37220 37184 37182 37284 37366 37327 37375 37415 37293 37029 36974 37012 36922 37023 37189 37145 37174 37202 37264 37182 37355 37059 36941 36742 36819 36771 36815 36941 36958 36918 37012 37122 37212 37226 37146 36949 36926 36922 36845 36828 36879 37011 36951 37110 37058 37152 37156 37095 37076 36990 36890 36863 36983 37143 37146 37071 37047 36971 37009 37004 36880 36672 36529 36374 36345 36434 36447 36577 36612 36597 36804 36719 36840 36745 36856 36710 36818 36815 36883 36830 36983 36975 36953 36900 36999 37159 37123 37051 36915 36815 36828 36742 36818 36717 36918 36868 37040 37023 37076 37069 37003 36958 36802 36928 36958 36961 37092 37267 37311 37267 37406 37425 37414 37424 37239 37230 37132 37168 37217 37237 37240 37216 37292 37412 37394 37391 37512 37442 37253 37306 37400 37449 37345 37516 37541 37474 37551 37648 37586 37558 37367 37181 37119 37217 37308 37345 37293 37399 37371 37342 37443 37539 37579 37357 37193 37146 37232 37219 37303 37344 37319 37287 37286 37315 37356 37461 37250 37180 37116 37176 37245 37353 37474 37491 37542 37398 37572 37589 37626 37495 37254 37179 37108 37070 37118 37198 37175 37180 37047 36976 37088 37213 37175 37100 36960 36994 36915 36889 37167 37387 37413 37352 37328 37375 37378 37471 37461 37386 37214 37358 37385 37346 37399 37393 37457 37448 37401 37550 37488 37577 37432 37273 37287 37259 37252 37190 37177 37157 37132 37057 37026 37157 37120 37016 36817 36791 36747 36684 36762 36897 36970 36933 36999 37106 37138 37182 37185 37224 37179 37188 37106 37332 37347 37557 37638 37687 37682 37643 37516 37634 37498 37538 37583 37635 37708 37600 37967 37918 38254 38327 38434 38383 38484 38214 38281 38168 38471 38617 39096 39475 39763 39593 39161 39004 38942 38942 38725 38311 38055 38012 37821 37788 37661 37539 37602 37533 37641 37633 37530 37520 37244 37108 37060 37058 37146 37214 37529 37577 37575 37462 37792 37711 38011 37879 37922 37760 37680 37760 37702 37758 37778 37772 37735 37793 37715 37766 37596 37368 37194 37074 37150 36992 37199 37154 37205 37083 37135 37216 37228 37257 37231 37061 37083 37026 36867 36875 37133 37153 37262 37358 37336 37418 37398 37228 36867 36876 36789 36774 36763 36800 36839 36949 36915 36769 36655 36603 36567 36405 36310 36191 36074 36193 36522 36852 37040 37430 37704 37879 37976 38264 38344 38452 38144 37818 37720 37679 37645 37625 37602 37571 37463 37394 37332 37418 37484 37390 37279 37237 37247 37296 37355 37400 37441 37469 37486 37529 37593 37614 37525 37449 37340 37495 37697 37580 37591 37547 37513 37526 37409 37522 37505 37558 37454 37281 37291 37236 37299 37287 37369 37271 37442 37391 37421 37372 37674 37534 37493 37269 37201 36948 37099 37406 37500 37732 37777 37724 38253 37934 38379 38311 38230 38228 38050 38073 38066 38233 38198 38279 38349 38290 38351 39927 41052 41298 40722 40083 39394 39038 38887 38898 38799 38643 38534 38483 38495 38540 38633 38499 38175 37932 37900 37993 38050 38037 38491 39594 40866 41797 42130 42113 41930 41076 41307 41811 42109 42106 41713 41164 40849 40425 40337 40180 40232 40259 40095 40024 39627 39531 39220 39212 39117 39042 39004 38878 38922 38873 38740 38703 38516 38243 37983 37918 37835 37838 37874 37871 37860 37898 37866 37906 37875 37766 37592 37389 37256 37117 37019 36966 36984 37075 37180 37352 37311 37671 38891 39837 39942 39391 38628 38126 37938 37759 37714 37606 37399 37249 37072 37224 36961 36990 37080 36873 36895 36780 36790 36729 37157 37146 37314 37368 37488 37415 37345 37231 37002 36912 36847 36869 36895 36849 36755 36797 36777 36724 36613 36705 36726 36441 36439 36447 36500 36542 36564 36626 36612 36635 36600 36758 36757 36832 36597 36568 36433 36440 36465 36570 36630 36564 36455 36406 36507 36569 36618 36577 36555 36345 36444 36343 36515 36537 36575 36520 36533 36495 36613 36527 36822 36460 36712 36630 36702 36715 36769 36821 36805 36954 37002 37120 37186 37182 37246 37215 37034 37111 37037 37159 37120 37117 37236 37227 37203 37124 37121 37108 37030 37101 37356 37371 37893 37577 37761 37669 37837 37651 37622 37644 37561 37401 37233 37083 37008 36947 36992 37050 37214 37354 37490 37451 37589 37646 37577 37481 37258 37137 36935 37016 36939 36974 36966 36948 36960 36875 36967 36956 36837 36526 36484 36347 36466 36523 36484 36595 36615 36773 36665 37016 37084 37218 37134 37138 37099 37020 37175 36962 37085 37071 37020 37024 36928 37007 36896 36679 36563 36444 36341 36308 36271 36254 36220 36327 36233 36356 36349 36261 36167 35840 36023 35923 36367 35922 36605 36882 36879 36827 36864 37023 36780 36900 37016 36467 36544 36380 36213 36649 36537 37019 36938 36818 36898 36948 36981 36846 37013 36608 36643 36556 36620 36844 36816 36776 36819 36861 36823 36884 36880 36776 36589 36567 36578 36593 36621 36665 36678 36693 36705 36777 36695 36847 36616 36650 36490 36556 36568 36663 36715 36876 36800 36952 36868 37037 37150 37369 37615 37311 37428 37473 37439 37514 37559 37514 37649 37606 37552 37535 37616 37567 37471 37308 37344 37397 37400 37409 37417 37442 37443 37578 37487 37426 37567 37463 37485 37550 37651 37623 37686 37767 37765 38001 37915 37941 37953 37874 37840 37688 37732 37695 37798 37793 37871 37875 37936 37953 38083 38066 38198 38117 37976 37951 37881 38034 38073 38121 38153 38266 38254 38366 38296 38228 38438 38463 38278 38104 37989 38046 37993 37909 37838 37893 38042 38074 38109 38074 37999 37860 37662 37502 37397 37274 37401 37389 37259 37472 37324 37565 38196 38068 38422 37954 37725 37715 37501 37627 37563 37384 37850 37724 37902 37902 37851 37877 37678 37274 37223 36905 36888 36964 37059 37242 37376 37486 37679 37856 38058 38223 38282 38177 38161 38320 38603 38790 39225 39389 39229 39122 38878 38638 38488 38447 38247 38024 37769 37582 37433 37339 37320 37254 37199 37396 37519 37572 37558 37612 37501 37386 37178 37148 37028 37057 37111 37057 37113 37041 37095 37215 37209 37238 37195 37115 37045 37040 37133 37152 37181 37198 37133 37037 37018 37063 37108 37164 37153 37112 37079 37183 37260 37269 37398 37383 37468 37561 37664 37733 38008 38444 39314 40292 40828 41034 40789 40462 40096 39606 39395 39199 39048 38969 38945 38895 38715 38443 38133 37775 37486 37166 37211 37342 37826 37843 38039 38455 38308 38282 38256 37813 37764 38005 37838 38991 39008 38793 38578 38512 38467 38359 38299 38029 37556 37357 37042 36947 36898 36814 36808 36812 36828 36842 36801 36837 36795 36712 36705 36795 36818 36883 36870 36989 36916 36879 36820 36802 36665 36652 36599 36312 36249 36082 36021 35949 35969 35981 36002 36032 36026 36030 36120 36232 35977 35966 35904 35792 36002 35985 36085 36200 36082 36405 36507 36744 36771 36688 36575 36318 36373 36334 36230 36612 36516 36615 36619 36483 36629 36434 36834 36828 36497 36804 36729 36595 37041 36865 37231 37065 37223 37394 37334 37303 37254 37033 37016 36852 37382 37853 37118 37581 37226 37428 37398 37562 37497 37635 37350 37227 37171 37178 37199 37292 37532 37482 37525 37471 37567 37546 37531 37393 37214 37154 37089 37067 37095 37024 37015 36937 37015 36980 37068 37038 37038 36969 36833 36899 36963 37034 37154 37191 37261 37283 37309 37264 37354 37306 37219 37043 36904 36967 36982 37006 37125 37069 37261 37245 37214 37357 37401 37327 37121 37117 37017 36969 37033 36918 37015 37063 36935 37041 36984 37010 37021 36773 36735 36533 36612 36578 36660 36850 36876 36846 36949 36946 36979 37122 37074 36803 36758 36784 36650 36689 36767 36702 36704 36679 36592 36631 36627 36556 36321 36294 36220 36310 36308 36335 36450 36390 36414 36514 36484 36554 36581 36442 36265 36314 36283 36332 36549 36619 36715 36887 36800 36907 36930 36920 36824 36547 36542 36426 36431 36400 36388 36448 36512 36392 36676 36636 36781 36659 36573 36362 36273 36320 36306 36403 36351 36375 36487 36490 36660 36628 36715 36638 36448 36322 36320 36308 36372 36331 36285 36282 36213 36198 36237 36306 36184 36140 36008 36110 36087 36109 36167 36296 36345 36390 36504 36598 36615 36654 36303 36590 36512 36599 36690 36715 36741 36738 36648 36718 36647 36670 36616 36498 36285 36206 36229 36300 36354 36374 36437 36349 36485 36514 36614 36532 36468 36396 36422 36463 36387 36539 36546 36581 36575 36569 36594 36606 36507 36626 36407 36220 36248 36319 36314 36413 36351 36499 36536 36614 36669 36857 36760 36690 36626 36496 36581 36564 36643 36664 36551 36638 36547 36766 36743 36858 36785 36600 36550 36590 36554 36623 36626 36672 36758 36881 36892 37119 37153 36948 36738 36529 36373 36357 36326 36255 36383 36415 36416 36519 36433 36580 36485 36516 36200 36182 36132 36209 36268 36031 36335 36295 36084 36552 36416 36903 36498 36659 36553 36419 36514 36563 36727 36786 36815 36789 36922 36941 36952 36864 36641 36652 36585 36651 36706 36728 36735 36723 36682 36654 36645 36729 36528 36621 36429 36377 36421 36351 36502 36530 36549 36601 36625 36696 36631 36649 36629 36330 36269 36416 36467 36602 36501 36780 36754 36515 36964 36792 37183 37196 37061 37001 36818 36898 36948 36901 36837 36901 36843 36966 36935 37065 36968 36846 36665 36759 36782 36836 36999 36949 37209 37115 37384 37404 37534 37482 37289 37084 37167 37147 37164 37203 37364 37408 37414 37385 37265 37245 37134 37053 36773 36809 36789 36887 36936 37005 37225 37248 37459 37329 37476 37447 37603 37427 37367 37549 37441 37728 37729 37762 38122 38152 38337 38573 38546 38775 38587 38253 38101 38139 37867 37774 37631 37640 37453 37629 37497 37451 37465 37192 36994 36725 36702 36584 36622 36655 36634 36621 36691 36636 36725 36812 36686 36495 36444 36377 36348 36341 36274 36301 36438 36578 36527 36534 36704 36526 36746 36511 36707 36510 36954 36912 37098 37059 36987 37038 37043 37239 37224 36904 36772 36726 36788 36874 36919 36949 37035 36996 37024 37067 37032 36957 36670 36657 36539 36657 36655 36606 36725 36685 36662 36696 36743 36533 36820 36815 36643 36556 36451 36450 36459 36436 36697 36639 36849 36808 36840 36801 36818 36792 36810 36724 36960 37340 37799 38040 38406 38823 38935 39240 39341 39738 39746 39581 39588 39719 39775 39940 39789 40009 40112 39808 39864 39758 39776 39433 39062 38683 38395 38039 37961 37937 37886 37945 38171 38610 39005 39229 39195 38899 38683 38281 38162 38179 37812 37946 38138 38028 38222 37970 37972 38007 37856 37476 37504 37503 37411 37493 37372 37451 37897 38251 38487 38814 38711 38597 38112 38020 37512 37566 37323 37490 37372 37274 37194 37295 37081 37459 37346 37238 36829 36516 36329 36428 36372 36520 36462 36679 36640 36897 36910 37001 36781 36825 36653 36587 36470 36450 36448 36471 36588 36545 36490 36378 36451 36517 36293 36331 36212 36154 36090 36101 36122 36152 36124 36158 36177 36121 36208 35981 35865 35567 35667 35558 35635 35604 35552 35614 35619 35512 35614 35568 35571 35391 35305 35174 35173 35142 35276 35313 35373 35408 35490 35591 35650 35779 35603 35693 35687 35713 35969 35915 35999 35952 35944 35846 35968 36000 35953 35784 35800 35743 35788 35766 36028 36073 36264 36384 36366 36689 36573 37113 37122 37191 37105 37038 36949 37109 37089 37130 37490 37477 37497 37634 37535 37667 37626 37431 37277 37123 36991 36929 36930 36809 37035 36988 36829 36894 36915 36822 36724 37290 37083 37564 37334 37656 37760 37820 37863 37946 37938 37922 38073 37890 37850 37886 37780 37757 37720 37703 37809 38306 38107 38245 38258 38283 38294 38174 38075 37848 37791 37836 37949 38273 38353 38364 38269 38243 38252 38181 37957 37718 37543 37313 37174 37212 37355 37553 37754 37869 37869 37862 37863 37761 37517 37337 37265 37135 37079 37000 36961 36892 36797 36812 36840 36778 36735 36693 36506 36133 36078 36149 36207 36205 36198 36283 36292 36206 36209 36252 36285 36336 36141 35992 35924 35955 36006 36073 36091 36267 36281 36275 36268 36266 36329 36321 36210 36081 36008 36016 36063 36081 36216 36291 36371 36524 36686 36831 36970 37050 36992 36935 36921 36970 37167 37382 37595 37748 37816 37933 37985 38016 38040 38044 37843 37713 37681 37694 37738 37846 37940 37989 37981 37959 37941 37931 37914 37930 37871 37826 37829 37952 38098 38077 38020 37918 37813 37708 37625 37549 37468 37421 37250 37086 36944 36837 36793 36776 36838 36874 36967 36994 37028 37137 37244 37303 37295 37211 37137 37101 37057 37014 37003 37023 37048 37042 37041 37101 37154 37272 37275 37124 37107 37075 37099 37115 37122 37123 37113 37141 37175 37235 37341 37445 37424 37438 37474 37549 37705 37816 37879 37904 37920 38025 38086 38155 38265 38203 38061 38051 38088 38168 38254 38357 38462 38512 38614 38355 38076 38096 38391 38538 38514 38502 38491 38495 38537 38545 38578 38623 38625 38653 38654 38671 38617 38544 38452 38325 38208 38097 38052 37946 37824 37702 37610 37565 37512 37528 37482 37355 37277 37182 37093 37098 37149 37158 37154 37199 37209 37156 37085 36999 36791 36471 36154 35912 35763 35619 35532 35500 35471 35470 35488 35446 35402 35384 35204 34996 34857 34833 34851 34846 34878 34880 34928 35002 35273 35594 36062 36463 36601 36323 36147 36071 36017 35956 35823 35658 35532 35463 35416 35391 35382 35391 35366 35268 35205 35202 35240 35286 35335 35322 35325 35308 35305 35322 35307 35289 35248 35157 35164 35187 35256 35311 35341 35359 35378 35350 35350 35350 35386 35388 35360 35270 35205 35218 35265 35315 35381 35400 35438 35472 35481 35503 35530 35547 35486 35432 35485 35614 35703 35870 35990 36128 36249 36416 36567 36753 36896 36979 36919 36855 36829 36838 36845 36884 36877 36856 36847 36832 36791 36786 36742 36619 36457 36327 36264 36217 36218 36215 36199 36223 36232 36241 36223 36236 36220 36142 36103 36108 36117 36146 36138 36198 36259 36286 36365 36418 36483 36546 36500 36435 36421 36420 36612 36954 37059 36981 36904 36868 36852 36848 36847 36726 36560 36469 36434 36399 36425 36426 36359 36318 36279 36242 36216 36168 36078 35900 35789 35727 35720 35712 35704 35688 35665 35630 35617 35560 35528 35501 35315 35110 34976 34950 34932 34950 34943 34926 34933 34951 34983 35011 35014 34988 34834 34707 34637 34610 34641 34661 34695 34700 34695 34728 34747 34786 34882 34957 34945 34948 35013 35157 35304 35483 35693 35807 35894 35944 36035 36082 36107 36138 36122 36041 35964 35950 35959 35977 36012 36058 36101 36122 36155 36178 36202 36237 36271 36248 36196 36192 36208 36251 36358 36423 36516 36600 36682 36739 36822 36852 36905 36886 36833 36763 36701 36659 36658 36678 36696 36697 36693 36718 36747 36780 36801 36834 36867 36801 36694 36622 36564 36531 36514 36512 36517 36491 36516 36493 36496 36496 36554 36572 36504 36403 36329 36300 36258 36258 36254 36198 36207 36201 36172 36148 36128 36105 36087 35988 35877 35852 35865 35926 35970 35966 35997 36032 36042 36083 36118 36154 36163 36165 36085 36025 36031 36070 36129 36167 36206 36234 36245 36281 36304 36335 36361 36389 36319 36204 36153 36144 36178 36222 36242 36251 36269 36279 36279 36301 36302 36317 36323 36207 36086 35995 35982 35986 35993 35981 35986 35952 35966 35972 35986 35999 36018 36019 35936 35841 35798 35774 35803 35822 35838 35825 35847 35845 35865 35885 35918 35958 35939 35840 35794 35811 35836 35872 35915 35937 35967 35986 36024 36062 36091 36142 36155 36091 36050 36034 36078 36129 36192 36251 36314 36365 36427 36452 36476 36489 36480 36400 36257 36222 36195 36204 36246 36275 36290 36312 36337 36343 36365 36389 36404 36429 36362 36310 36272 36275 36293 36325 36345 36341 36372 36322 36256 36239 36215 36237 36270 36213 36157 36240 36289 36315 36314 36251 36236 36269 36312 36336 36340 36356 36364 36334 36281 36255 36285 36359 36436 36494 36556 36600 36667 36698 36719 36728 36756 36729 36626 36574 36542 36552 36586 36578 36585 36594 36596 36605 36629 36639 36656 36681 36638 36522 36473 36429 36450 36475 36492 36501 36513 36509 36499 36484 36491 36489 36507 36466 36338 36276 36262 36276 36296 36323 36326 36346 36385 36438 36488 36544 36593 36633 36573 36456 36422 36437 36473 36522 36541 36566 36579 36618 36636 36677 36707 36735 36773 36706 36623 36622 36636 36656 36707 36719 36748 36743 36756 36795 36812 36843 36855 36884 36820 36739 36698 36723 36750 36790 36805 36790 36793 36799 36806 36809 36823 36833 36856 36839 36729 36675 36660 36678 36710 36729 36749 36750 36769 36772 36784 36789 36796 36824 36812 36720 36658 36632 36655 36674 36700 36731 36729 36751 36776 36797 36849 36894 36925 36928 36834 36773 36775 36779 36814 36870 36892 36914 36921 36961 36978 37018 37038 37055 37033 36932 36889 36881 36896 36923 36951 36967 36966 36973 36975 36981 36985 37001 37037 36957 36856 36802 36809 36827 36841 36876 36883 36900 36905 36932 36942 36969 37009 37012 36920 36812 36768 36773 36779 36811 36817 36813 36824 36842 36858 36891 36917 36947 36961 36845 36752 36703 36712 36726 36732 36763 36758 36756 36764 36770 36789 36797 36819 36825 36692 36594 36570 36570 36609 36623 36610 36601 36621 36613 36630 36639 36649 36672 36624 36506 36447 36426 36431 36456 36477 36492 36490 36499 36534 36554 36563 36595 36616 36541 36430 36397 36388 36417 36444 36461 36491 36482 36508 36534 36555 36594 36624 36618 36522 36452 36448 36487 36525 36548 36569 36579 36599 36605 36646 36682 36703 36711 36712 36624 36541 36549 36566 36604 36644 36655 36647 36673 36694 36719 36755 36784 36806 36822 36739 36654 36636 36660 36691 36748 36766 36765 36788 36812 36833 36864 36893 36907 36931 36920 36793 36729 36742 36758 36795 36821 36813 36835 36866 36882 36911 36929 36954 36966 37001 36907 36812 36783 36802 36827 36854 36868 36869 36892 36895 36923 36939 36971 36978 37017 36974 36859 36793 36786 36805 36842 36873 36878 36885 36873 36900 36911 36934 36956 36988 36973 36850 36786 36768 36789 36828 36882 36894 36897 36924 36935 36960 37000 37034 37051 37058 36939 36856 36826 36848 36874 36927 36951 36964 36986 36997 37025 37051 37066 37103 37119 37026 36911 36868 36883 36915 36947 36959 36950 36922 36908 36906 36889 36874 36846 36842 36758 36630 36536 36508 36540 36575 36593 36613 36643 36690 36743 36813 36869 36902 36961 36962 36822 36701 36646 36610 36530 36449 36389 36331 36295 36275 36302 36319 36343 36396 36393 36284 36173 36134 36139 36158 36181 36181 36099 36130 36168 36225 36234 36223 36229 36205 36132 36051 36036 36035 36072 36094 36085 36070 36058 36092 36102 36145 36179 36223 36168 36049 36001 36014 36034 36062 36086 36097 36110 36135 36160 36179 36202 36225 36211 36085 36010 35992 35986 35992 36003 35994 35975 35986 35991 35991 36020 36047 36051 35983 35842 35800 35799 35827 35875 35883 35895 35901 35903 35915 35942 35957 35970 35980 35893 35788 35735 35728 35724 35746 35755 35758 35742 35759 35764 35748 35718 35683 35665 35625 35544 35532 35525 35551 35577 35605 35608 35612 35622 35639 35645 35655 35641 35656 35646 35607 35586 35616 35660 35716 35779 35821 35870 35918 35984 36070 36143 36192 36236 36234 36162 36166 36205 36260 36333 36389 36444 36471 36516 36528 36557 36588 36624 36669 36676 36569 36510 36522 36567 36633 36676 36700 36726 36755 36786 36824 36837 36852 36899 36910 36817 36709 36677 36715 36751 36794 36830 36853 36885 36908 36946 36990 37002 37043 37071 37042 36918 36860 36849 36866 36910 36932 36947 36956 36960 36987 36996 37004 37041 37031 37045 36958 36841 36784 36781 36796 36830 36827 36844 36842 36860 36869 36883 36907 36908 36934 36916 36790 36708 36657 36657 36700 36741 36759 36752 36779 36774 36818 36846 36852 36878 36841 36680 36574 36554 36562 36584 36597 36616 36595 36582 36616 36627 36640 36666 36687 36688 36548 36428 36412 36412 36454 36449 36458 36473 36467 36464 36512 36539 36558 36562 36534 36380 36309 36299 36314 36353 36376 36394 36407 36428 36462 36519 36537 36570 36608 36607 36455 36390 36406 36420 36467 36463 36485 36465 36488 36486 36506 36526 36548 36582 36580 36447 36333 36304 36322 36324 36343 36354 36343 36343 36349 36374 36396 36416 36440 36469 36407 36282 36222 36245 36279 36311 36339 36345 36369 36370 36379 36417 36415 36462 36487 36493 36388 36302 36287 36299 36355 36410 36421 36447 36484 36495 36536 36577 36616 36635 36680 36647 36515 36467 36464 36507 36558 36571 36595 36600 36611 36645 36686 36720 36766 36813 36831 36704 36627 36610 36635 36674 36729 36759 36774 36825 36868 36921 36963 37007 37040 37059 36948 36816 36767 36764 36774 36813 36838 36841 36835 36862 36893 36925 36953 36981 37024 37036 36910 36794 36756 36781 36794 36858 36896 36931 36960 36996 37039 37063 37073 37112 37115 37143 37064 36919 36843 36834 36802 36719 36660 36635 36662 36699 36767 36833 36905 36945 36954 36937 36907 36776 36616 36535 36505 36496 36477 36425 36351 36311 36272 36234 36188 36165 36159 36210 36276 36225 36131 36061 35931 35839 35847 35827 35788 35764 35740 35748 35737 35723 35723 35724 35715 35679 35673 35558 35479 35473 35471 35477 35484 35478 35460 35461 35449 35448 35452 35460 35449 35472 35473 35373 35330 35335 35367 35388 35414 35413 35415 35424 35433 35443 35437 35431 35437 35462 35392 35275 35245 35247 35269 35285 35331 35353 35344 35352 35356 35367 35385 35402 35413 35400 35296 35247 35211 35228 35247 35269 35286 35276 35256 35255 35251 35271 35285 35300 35330 35291 35194 35164 35138 35151 35166 35188 35216 35220 35221 35253 35272 35295 35327 35361 35393 35323 35282 35250 35248 35274 35297 35328 35332 35337 35348 35347 35373 35376 35398 35392 35410 35367 35280 35268 35298 35331 35359 35384 35406 35451 35474 35497 35530 35543 35552 35582 35567 35499 35452 35442 35463 35506 35540 35554 35577 35613 35640 35663 35681 35723 35736 35768 35746 35669 35639 35635 35645 35675 35725 35779 35814 35849 35907 35944 35980 36023 36052 36080 36054 35961 35942 35939 35964 35996 36011 36042 36067 36095 36122 36159 36165 36186 36221 36241 36232 36153 36102 36081 36113 36153 36197 36212 36226 36247 36275 36278 36292 36313 36320 36334 36326 36253 36106 35932 35809 35738 35713 35789 35900 35968 36027 36071 36105 36074 36061 36064 36061 36043 36062 35995 35973 35950 35906 35888 35858 35867 35854 35859 35896 35929 35940 35955 35938 35944 35974 35991 35941 35905 35913 35913 35901 35926 35934 35921 35946 35967 35978 36006 36034 36060 36065 36097 36021 35945 35921 35913 35927 35946 35960 35989 35995 36003 36020 36037 36071 36084 36102 36110 36100 36008 35949 35926 35921 35951 35981 35983 36003 36012 36017 36041 36048 36082 36085 36104 36122 36103 35999 35944 35922 35944 35959 35985 36002 36028 36047 36077 36089 36107 36112 36132 36155 36159 36167 36082 36019 35994 36011 36030 36037 36081 36091 36102 36106 36119 36129 36140 36155 36170 36175 36178 36105 35997 35968 35969 35985 36018 36027 36040 36061 36060 36053 36060 36076 36075 36067 36052 36041 36018 35889 35818 35799 35791 35801 35824 35817 35810 35819 35828 35832 35846 35859 35861 35890 35900 35935 35852 35774 35742 35746 35773 35793 35822 35841 35841 35878 35898 35921 35939 35953 35968 35990 36009 35977 35889 35872 35872 35919 35985 36073 36186 36281 36396 36530 36642 36715 36754 36752 36664 36456 36276 36240 36216 36288 36376 36516 36652 36760 36777 36726 36749 36753 36911 37030 37170 37275 37438 37468 37406 37337 37453 37403 37460 37638 37775 37827 37870 37970 38104 38221 38365 38464 38555 38608 38573 38466 38400 38393 38390 38451 38539 38613 38632 38601 38619 38622 38636 38656 38678 38701 38717 38638 38545 38524 38539 38587 38686 38813 38949 39048 39148 39211 39283 39367 39424 39493 39511 39447 39189 38937 38736 38575 38541 38631 38698 38616 38485 38315 38385 38546 38572 38931 40088 41231 41792 41848 41801 41819 41651 41994 42336 42513 42704 42962 42978 42606 42135 41940 41756 41465 40995 40605 40207 39901 39682 39492 39374 39248 39113 39011 38863 38745 38733 38689 38734 38681 38435 38209 38104 37973 37904 37850 37835 37811 37840 37904 37878 37805 37633 37508 37475 37417 37357 37337 37368 37406 37525 37764 37837 37717 37751 37854 37932 37980 38074 38019 37872 37763 37666 37442 37363 37251 37368 37482 37516 37634 37782 37895 37877 38182 38495 38629 38728 38723 38726 38639 38516 38422 38367 38283 38173 37970 37793 37599 37445 37363 37283 37089 36875 36722 36584 36506 36465 36464 36518 36564 36673 36736 36844 36972 37240 39536 40676 41020 41228 40809 40821 40368 40283 40051 39844 39655 39510 39358 39284 39287 39208 39132 39129 38815 38885 38953 39009 39110 39190 39236 39231 39206 39138 39003 38852 38736 38669 38561 38301 38095 37929 37815 37734 37653 37602 37606 37601 37655 37655 37694 37823 37939 38050 37956 37811 37613 37518 37459 37452 37369 37370 37379 37391 37342 37338 37386 37393 37301 37253 37002 36776 36657 36677 36739 36817 36929 36890 36975 36915 36990 37055 37103 37095 37068 36892 36651 36499 36397 36323 36307 36270 36278 36281 36234 36195 36211 36276 36342 36354 36346 36221 36168 36085 36056 36119 36212 36273 36274 36279 36284 36305 36334 36364 36423 36497 36425 36337 36316 36365 36549 36578 36580 36701 36832 36967 37121 37244 37291 37322 37322 37185 36972 36845 36796 36759 36775 36869 37025 37210 37552 38004 38450 38859 39213 39484 39481 38882 38312 37917 37649 37497 37404 37295 37187 37020 36848 36655 36484 36317 36174 36036 35812 35528 35348 35225 35137 35086 35076 35010 34990 34957 34936 34934 34939 34930 34945 34850 34728 34624 34596 34632 34661 34702 34693 34692 34702 34696 34720 34768 34794 34805 34768 34632 34585 34595 34649 34703 34766 34792 34802 34806 34831 34828 34826 34839 34860 34844 34701 34644 34649 34658 34703 34746 34783 34809 34828 34819 34858 34884 34922 34957 34967 34868 34754 34728 34731 34748 34800 34816 34837 34820 34844 34841 34845 34851 34866 34892 34850 34750 34685 34686 34712 34751 34807 34825 34855 34866 34907 34949 34975 35019 35025 34993 34863 34831 34832 34850 34880 34884 34868 34853 34865 34895 34918 34958 34983 34973 34938 34804 34703 34646 34621 34625 34641 34629 34616 34596 34585 34583 34594 34600 34599 34610 34585 34462 34396 34392 34437 34475 34487 34525 34553 34572 34617 34687 34775 34956 35049 35237 35383 35396 35446 35460 35486 35525 35529 35567 35548 35572 35618 35612 35665 35703 35760 35839 35874 35868 35795 35790 35816 35854 35886 35873 35837 35821 35823 35835 35891 35945 35968 36030 36015 35921 35838 35827 35847 35894 35936 35969 35991 36002 35999 36008 36038 36044 36055 36076 36027 35943 35878 35865 35884 35928 35963 35994 36030 36034 36098 36126 36145 36119 36118 36132 36067 35904 35792 35783 35781 35771 35779 35780 35789 35795 35799 35820 35877 35931 35958 35942 35849 35679 35598 35595 35597 35645 35692 35671 35664 35696 35669 35672 35695 35720 35770 35821 35863 35757 35672 35590 35574 35596 35658 35666 35670 35647 35640 35645 35629 35632 35640 35649 35622 35525 35527 35458 35461 35516 35563 35580 35572 35548 35552 35641 35663 35696 35696 35802 35843 35596 35590 35538 35542 35539 35556 35572 35598 35618 35639 35669 35702 35735 35764 35790 35780 35637 35544 35541 35568 35600 35651 35691 35720 35718 35762 35799 35818 35845 35878 35891 35911 35824 35707 35693 35714 35741 35797 35811 35827 35851 35871 35893 35940 35967 36003 36037 36061 36026 35921 35892 35911 35970 36026 36089 36114 36167 36175 36211 36235 36211 36165 36235 36316 36449 36361 36291 36344 36442 36543 36637 36802 36983 37136 37241 37430 37590 37720 37745 37723 37782 37809 37836 37790 37858 38108 38453 38827 38908 38938 38767 38486 38139 37915 37697 37551 37441 37254 37067 37001 36986 36988 36974 36884 36821 36710 36619 36555 36531 36505 36460 36508 36425 36246 36120 36134 36108 36141 36239 36135 36039 35951 35838 35822 35801 35748 35800 35774 35757 35852 35981 36132 36259 36472 36485 36517 36500 36467 36479 36547 36560 36683 36619 36545 36398 36396 36446 36381 36443 36441 36471 36524 36545 36691 36607 36685 36676 36643 36604 36578 36620 36694 36815 36780 36952 36970 37010 37060 37387 37870 38313 38573 38550 38198 37725 37593 37531 37555 37588 37589 37927 38293 38195 38111 38017 37871 37745 37583 37442 37223 37138 37056 37007 36902 36875 36918 36829 36852 36644 37151 37149 37070 37096 36949 36871 36695 36713 36757 36748 36859 36833 36996 36934 37069 37032 37002 36982 36961 36914 36692 36564 36616 36722 36790 36865 36864 36879 36975 36970 36857 36724 36551 36527 36780 36487 36776 36804 36892 37259 37424 37812 38015 38209 38986 39490 40017 40085 39923 39569 39088 38557 38262 38101 37890 37732 37563 37424 37230 37072 36967 36866 36744 36716 36719 36565 36360 36151 35980 35892 35917 35979 36168 36391 36429 36422 36575 36564 36642 36727 36616 36846 36963 37143 37280 37460 37551 37570 37670 37493 37267 37078 36922 36725 36816 36214 36894 37082 37020 36899 37335 37209 37228 37224 37382 37225 37618 37438 37608 37545 37528 37285 37340 37140 37227 37052 37434 37294 37268 37349 37295 37433 37445 37540 37421 37302 37009 37265 36942 37003 36851 36970 37006 37182 37513 37339 37496 37586 37518 37528 37315 37082 37133 37114 36999 37196 37220 37150 37137 37187 37188 37128 37216 37261 37127 37214 37098 37056 37130 37094 37149 37153 37169 37137 37136 37255 37235 37213 37290 37026 37068 37074 36996 37057 37099 37113 36966 37078 37064 37059 37061 37159 37315 37183 37465 37369 37352 37287 37271 37277 37360 37397 37425 37531 37408 37514 37484 37464 37414 37271 37315 37325 37404 37534 37490 37600 37474 37349 37330 37291 37336 37364 37472 37297 37253 37217 37311 37260 37424 37372 37380 37322 37338 37362 37465 37488 37348 37495 37110 36840 36687 36759 36759 36899 37034 37050 37320 37385 37504 37623 37653 37630 37458 37356 37360 37333 37333 37300 37313 37352 37405 37623 37693 37754 37796 37820 37667 37592 37501 37424 37437 37312 37271 37175 37112 37071 37074 37104 37033 37189 36972 36781 36653 36532 36463 36368 36173 36481 36338 36582 36681 36889 36925 36874 36906 36874 37149 37008 37102 37407 37622 37905 38036 38050 38046 37937 37891 37753 37751 37428 37126 36843 36843 37057 37041 37105 37028 37371 37284 37274 37203 37099 36888 36710 36694 36669 36784 36740 36844 36833 37176 37314 37367 37547 37542 37462 37305 37154 37052 36990 36779 37019 37039 37024 36950 36817 36938 36931 36889 36967 36932 36806 36784 36795 36820 36759 36625 36751 36726 36901 36965 37031 37047 37205 37030 37072 36845 37012 37098 37102 37239 37247 37328 37511 37532 37576 37614 37608 37502 37510 37323 37260 37199 37072 37080 37021 37046 36965 37047 37030 37037 36998 36936 36714 36563 36472 36344 36395 36580 36525 36790 36718 36912 36946 37037 37053 37129 36977 36913 36765 36861 36868 36996 37021 37065 37058 37152 37047 37152 37048 36917 36656 36678 36621 36762 36731 36817 36741 36869 36794 36843 36935 36847 36891 36702 36664 36570 36699 36674 36755 36796 36804 36838 36837 36844 36792 36949 36913 36858 36589 36472 36491 36294 36580 36616 36704 36685 36736 36846 36788 36821 36787 36627 36493 36461 36428 36427 36521 36458 36641 36632 36692 36964 37046 37311 37093 36980 36895 36749 36953 36714 37177 37161 37095 37208 37176 37175 37272 37354 37181 37000 37001 37052 36949 37171 37104 37165 37225 37274 37187 37231 37250 37304 37083 36988 36883 36942 36924 36605 37123 37101 37274 37290 37310 37181 37276 37194 37016 36880 36815 36776 36753 36966 37024 36971 37123 37121 37073 37102 37009 36870 36645 36514 36480 36568 36620 36755 36936 36937 36944 37000 37040 37104 36984 36940 36803 36749 36682 36545 36828 36754 37020 36914 37082 37011 36997 36962 36941 36933 36702 36673 36721 36736 36715 36780 36800 36820 36848 36775 36903 36928 36835 36538 36737 36721 36730 36856 36931 36972 37072 37034 37054 37035 37039 36861 36740 36567 36680 36640 36749 36693 36778 36682 36832 36788 36850 36822 36814 36658 36707 36764 36743 37409 37992 38499 38479 38259 38242 38167 38165 38185 38143 37397 37524 36898 36496 36086 36129 36034 35860 35873 35800 35861 35859 35861 35871 35731 35773 35821 35801 35919 36043 36181 36082 36209 36150 36260 36103 36405 36156 36128 35800 35816 35994 35920 35991 36252 36133 36436 36182 36177 36311 36101 36553 36355 35924 36310 36191 36511 36451 36431 36399 36479 36720 36632 36911 36815 36807 36717 36572 36503 36280 36672 36674 36699 36808 36947 36501 37066 37153 37540 37536 37800 38413 38715 39212 39312 39146 39245 38966 38941 38832 38667 38505 38537 38424 38077 37858 37629 37565 37600 37698 37652 37625 37578 37495 37561 37679 37767 37913 37673 37649 37508 37486 37448 37341 37266 37176 37159 37186 37158 37185 37283 37378 37422 37344 37367 37471 37471 37512 37545 37496 37559 37554 37519 37571 37690 37656 37580 37409 37315 37287 37255 37325 37367 37410 37442 37395 37508 37519 37506 37459 37333 37353 37244 37220 37201 37283 37226 37148 37127 37060 37166 37296 37424 37282 37297 37302 37107 37274 37237 37441 37476 37478 37502 37554 37521 37522 37477 37327 37201 36984 36871 36777 36812 36868 36950 36936 36984 37021 37046 37010 37014 36879 36703 36629 36678 36585 36725 36772 36963 37056 37559 38320 38981 39479 39180 38633 38372 38288 38270 38264 38350 38437 38616 38776 38998 39191 39244 39213 39145 38951 38757 38734 38758 38917 39146 39347 39607 39769 39928 40035 39957 39466 39169 39014 38968 38941 38907 38916 38968 39078 39186 39284 39400 39513 39669 39784 39736 39568 39484 39592 39942 40080 40918 41486 40821 40182 39893 39794 39464 39218 38886 38675 38456 38354 38321 38314 38304 38338 38325 38337 38353 38303 38222 38099 37944 37830 37719 37713 37734 37708 37851 37867 37865 37817 37775 37778 37701 37514 37385 37273 37234 37164 37114 37152 37161 37291 37270 37276 37328 37233 37101 36894 36895 36783 36839 36806 36888 36877 37016 37022 37174 37204 37227 37295 37113 37012 36821 36804 36904 36839 36913 36901 36839 36882 36803 36922 36833 36516 36350 36386 36392 36442 36477 36599 36474 36720 36700 36870 36862 36883 36653 36536 36528 36394 36500 36481 36459 36493 36632 36692 36736 36683 36681 36618 36480 36425 36288 36308 36191 36245 36281 36377 36378 36421 36543 36657 36571 36468 36519 36667 36750 36806 36907 37046 37252 37555 37790 37962 38189 38553 39181 39667 40017 40024 39862 39630 39300 38955 38824 38697 38563 38508 38354 38037 37897 37709 37671 37679 37775 37863 37949 37947 38004 37994 38088 37963 38047 38021 37888 37850 37846 37833 37846 37744 37618 37491 37476 37131 37020 36873 36760 36639 36530 36508 36741 36814 36817 36722 36816 36788 36502 36357 36417 36466 36546 36687 36747 36825 36968 37029 36999 36970 37045 36841 36740 36622 36551 36611 36618 36629 36673 36703 36774 36827 36824 36689 36482 36405 36403 36341 36313 36402 36521 36467 36593 36526 36584 36632 36667 36422 36324 36400 36359 36493 36526 36473 36555 36547 36536 36473 36561 36577 36537 36490 36511 36670 36627 36947 37175 37364 37507 37522 37543 37509 37716 37540 37468 37370 37234 37302 37223 37214 37183 37246 37227 37360 37307 37439 37368 37268 37308 37629 37925 38218 38538 38729 38979 39065 39120 39120 39137 39198 39056 39041 38939 38904 38874 38883 38929 38976 38998 39164 39322 39430 39518 39517 39472 39417 39505 39416 39265 39311 39310 39292 39325 39345 39323 39314 39233 38947 38660 38484 38353 38321 38172 38166 38047 38052 38090 38143 38161 38299 38088 38072 37914 37940 37961 37970 38068 38132 38120 38232 38229 38289 38355 38444 38403 38419 38396 38449 38560 38448 38701 38729 38789 38786 38697 38727 38641 38645 38393 38280 38140 38148 38100 38175 38119 38139 38104 38096 38099 38199 38178 38064 37911 37948 38002 38125 38223 38319 38421 38275 38440 38389 38463 38499 38426 38452 38401 38338 38308 38400 38460 38601 38606 38663 38671 38718 38715 38762 38787 38745 38574 38444 38366 38309 38298 38290 38368 38540 38897 39326 39746 40320 40587 40363 40129 39749 39494 39639 39198 39445 39397 39256 39346 39229 39168 39189 39141 38952 38942 39029 38887 38661 38571 38335 38175 38021 37989 38145 38258 38257 38185 37955 37770 37613 37696 37697 37693 37762 37737 37694 37686 38061 38076 37980 38235 38331 38043 38238 38113 38280 38226 38351 38431 38490 38466 38548 38610 38477 38578 38410 38266 38170 38135 38089 38206 38134 38210 38186 38288 38313 38357 38340 38343 38235 38067 37989 37888 37948 37920 37948 37948 37944 38145 37906 38329 38177 38312 38191 37995 38030 38013 38069 38180 38127 38166 38280 38297 38260 38386 38344 38454 38205 38084 37798 38146 37997 38079 37988 38132 38005 38013 38082 38162 38202 38314 38181 38170 38055 38037 37971 37987 38032 38049 38001 37892 38248 38125 38194 38178 37988 37802 37811 37682 37728 37701 37812 37792 37791 37791 37720 37750 37792 37823 37815 37636 37660 37596 37583 37570 37596 37554 37480 37484 37488 37517 37601 37588 37727 37858 38080 38214 38339 38499 38653 38885 39004 39426 39579 39970 39997 40046 39893 39934 39781 39572 39521 39409 39480 39364 39303 39334 39343 39373 39471 39498 39535 39611 39469 39380 39303 39210 39234 39221 39237 39051 39236 39189 39241 39086 39192 39080 38915 38880 38825 38791 38769 38800 38979 38960 38981 38995 39102 39152 39151 38890 38851 38504 38462 38423 38332 38319 38045 38291 38020 38361 38344 38577 38558 38403 38171 38045 37892 37800 37754 37796 37752 37745 37862 37695 37835 37692 37673 37374 37266 37151 37154 37105 37349 37333 37341 37284 37357 37414 37363 37552 37484 37404 37345 37247 37304 37348 37379 37564 37617 37629 37679 37718 37863 38105 38236 38097 38111 38100 38239 38228 38270 38245 38241 38234 38342 38449 38513 38600 38529 38353 38281 38234 38257 38222 38267 38363 38548 38629 38690 38861 38989 39095 38983 38822 38748 38789 38866 38888 38911 38841 39065 38954 38809 38691 38568 38295 38375 37988 37950 37748 37643 37526 37482 37508 37470 37499 37395 37367 37294 37396 37234 37098 36919 36808 36706 36756 36726 36716 36677 36707 36720 36902 36959 37027 37035 37028 37153 37195 37346 37518 37711 37846 38162 38295 38378 38407 38401 38418 38416 38170 38074 38037 37947 38039 38186 38350 38443 38497 38543 38548 38502 38533 38457 38261 38101 37997 37989 37917 38047 38208 38360 38508 38516 38438 38366 38411 38497 38273 38265 38186 38094 38230 38347 38363 38325 38237 38121 37989 37956 37881 37782 37614 37382 37343 37225 37262 37270 37255 37272 37322 37286 37301 37185 37146 36972 36972 36730 36738 36668 36691 36560 36648 36530 36659 36574 36563 36529 36493 36501 36508 36272 36137 36226 36220 36285 36206 36392 36315 36405 36396 36336 36338 36239 36291 36178 36239 36117 36115 36106 36035 36136 36120 36134 36162 36153 36231 36237 36313 36187 36094 35953 35918 35925 35953 36033 36066 36203 36190 36262 36265 36355 36410 36594 36535 36573 36577 36641 36631 36658 36680 36649 36694 36668 36764 36742 36729 36869 37136 37077 36858 36952 36703 36586 37181 37518 37548 38345 38028 38086 38404 38289 39005 38972 38616 38510 38409 38497 38567 38863 38796 38760 39227 39039 39152 39227 39214 39174 38830 38639 38548 38452 38419 38261 38668 38769 38798 38766 38879 38975 38964 39110 38931 38736 38792 38790 38654 38795 38909 38997 39025 39046 39114 39072 39048 39159 39163 39004 38980 39275 39509 40035 40685 41160 41445 41804 42236 42590 42941 43060 43118 43715 44093 44485 44496 44239 43948 43628 43419 43165 42882 42607 42322 42071 41742 41211 40573 39952 39591 39396 39266 39185 39095 38990 38840 38884 38745 38803 38702 38568 38334 38108 38059 38128 38050 38083 38889 38444 39048 39032 39339 39222 39123 38765 38429 38198 38061 37992 37936 37934 38150 38207 38241 38406 38445 38608 38614 38526 38478 38378 38163 37950 37608 37433 37440 37415 37303 37338 37333 37356 37401 37193 36918 36587 36550 36533 36541 36532 36591 36603 36760 36727 36809 36766 36755 36648 36526 36360 36317 36210 36157 36285 36548 36540 36646 36814 36611 36552 36519 36484 36586 36434 36314 36412 36143 36591 36510 36620 36620 36371 36971 36990 37011 36953 37006 36799 36894 36878 36970 37041 37122 37144 37236 37198 37240 37367 37232 37583 37534 37545 37610 37734 37897 37916 38085 38126 38175 38332 38245 38471 38483 38470 38505 38361 38333 38308 38397 38406 38457 38436 38425 38539 38343 38602 38914 39048 38795 38755 38722 38623 38471 38591 38673 38746 38833 38787 38759 38909 38942 38754 38788 38756 38346 38588 38379 38609 38457 38404 38576 38476 38509 38309 38523 38635 38338 38335 38330 38097 38037 38045 38008 37966 38362 38177 38552 38583 38453 38636 38559 38449 38155 38031 37879 37808 37660 37917 37921 37868 37955 38081 38237 38048 38248 38044 37970 37805 38027 37932 38188 38076 38219 38525 38592 38367 38497 38632 38588 38311 38193 37829 37898 38210 38231 38294 38384 38165 38314 38232 38375 38286 38240 38083 37703 37514 37315 37362 37462 37443 37628 37758 37763 37757 37728 37737 37486 37773 37261 37512 37413 37351 37378 37358 37452 37502 37660 37535 37555 37657 37605 37468 37432 37122 37276 37312 37239 37278 37404 37344 37550 37455 37648 37579 37640 37490 37436 37468 37419 37502 37466 37564 37382 37634 37527 37724 37726 37713 37803 37662 37436 37549 37501 37498 37846 37727 37952 38031 37796 38203 38077 38384 38363 38205 38035 38012 37933 38092 38126 38286 38408 38330 38531 38565 38544 38449 38487 38072 37867 37968 37756 38170 38046 38098 38065 38093 38095 38015 38278 38390 38320 38481 38199 38472 38215 38343 38493 38436 38437 38623 38815 38871 39014 39258 39007 38763 38752 38817 39499 39367 40118 40284 40089 39989 39902 39922 39500 39602 39335 38946 38461 38229 37890 37920 37705 37833 37699 37659 37569 37562 37535 37387 37187 36961 37095 37026 37122 37320 37243 37425 37947 37700 38193 38200 38187 38091 37814 37657 37446 37691 37484 37849 37802 37760 37757 37841 37658 37459 37530 37215 37048 36820 36839 36689 36764 37108 37072 37334 37220 37350 37116 37417 37258 37068 36955 36850 36721 37000 36863 37064 36883 37220 37317 37471 37303 37371 37273 37060 36836 36961 36770 37039 36956 37187 37053 36940 37135 37010 36972 36957 36933 36892 36430 36935 36889 36686 36861 36602 36933 36807 36874 37112 36981 37458 37087 37243 37046 37129 37044 36952 37018 36956 37063 37002 36930 36871 37092 37634 37624 37681 37540 37562 37675 37936 38077 38259 38168 38253 38139 38089 38763 38700 38772 38428 38198 38200 38226 38282 38316 38407 38472 38413 38384 38420 38395 38508 38376 38113 37937 37823 37855 37700 37493 37351 37268 37286 37358 37467 37588 37700 37728 37607 37539 37562 37911 38343 38790 39367 39479 39845 39734 39619 39543 39593 39569 39252 38889 38615 38567 38678 38807 38837 38911 39018 39099 39075 38983 38977 38815 38547 38197 38122 38033 37938 37865 37709 37531 37364 37252 37076 37037 36874 36804 36621 36623 36546 36567 36691 36778 36613 36431 36378 36426 36355 36478 36560 36582 36387 36314 36217 36306 36398 36470 36528 36666 36579 37118 37752 37764 37820 37754 37540 37370 37327 37274 37419 37721 37571 37736 37730 37685 37765 37795 37885 37718 37602 37403 37224 37075 36925 36817 37191 37072 37511 37844 38174 38079 38064 37958 37654 37267 37245 37044 37190 37151 37355 36956 37004 37281 37400 37406 37435 37412 36992 37172 37040 36992 37063 37228 37105 37121 37192 37395 36888 37613 37736 37619 37305 37427 37051 37007 37488 37295 37430 37601 37488 37616 37707 37799 38040 38079 37998 37888 37750 37464 37168 37200 36967 36708 36980 36936 36721 36836 37268 37231 37114 37315 37218 37427 37325 37536 37719 37806 38038 37969 38052 37962 37860 37648 37648 37403 37625 37725 37838 37755 37763 37936 37986 37975 38106 38051 37951 38035 37916 37953 37987 37855 38156 38116 38199 38469 38489 38576 38498 38268 38097 37828 38063 37998 38259 38390 38328 38614 38637 38881 38845 38935 38828 38664 38331 37988 37879 37682 37750 37746 37659 37502 37526 37569 37492 37747 37644 37613 37724 37813 37874 38123 38087 38355 38249 38085 39029 38514 38976 38892 38494 38542 38790 38579 38658 38706 38509 38709 38600 38626 38663 38545 38542 38399 38349 38195 38075 38029 37882 37902 37983 37877 38096 38109 38122 38134 38118 38049 38040 37912 38041 37968 38219 38243 38229 38186 38387 38347 38276 38268 38050 37841 37839 37696 37880 37879 37945 38311 38486 38712 38623 38553 38469 38249 37980 38319 37936 38504 38557 38445 38660 38717 38784 38846 38732 38685 38601 38410 38550 38566 38764 38889 38858 38814 38798 38465 38436 38275 38088 37990 37771 37747 37736 37769 37833 37830 37716 37902 37758 37951 37869 37974 37885 37778 37677 37844 37735 38023 38137 37910 38436 38304 38438 38293 38548 38255 38138 38107 38093 37848 37922 37838 37931 37853 37895 38040 37791 38147 37789 37772 37707 37624 37594 37609 37533 37729 37483 38057 37862 38240 37864 38084 37937 38049 38406 38491 38477 38682 38588 38770 38640 38954 38977 38864 38749 38474 38545 38466 38440 38665 38582 38608 38700 38556 38804 38688 38666 38353 38395 38187 38065 38329 38255 38385 38158 38584 38372 39413 40291 40422 41031 40815 41543 40705 40693 40577 40801 40757 40753 40779 40602 40573 40412 39930 39523 39220 38958 38674 38883 38619 38942 38756 38697 38097 38751 38689 38564 38146 38052 37856 37851 37841 37753 37871 37989 37940 38147 37999 38115 37856 37739 37627 37835 37913 38223 38218 38596 38868 39514 40434 41151 40971 40795 40653 40229 39877 39313 38932 39368 39170 39202 39039 39022 39025 39041 38804 38564 38315 38240 38211 38233 38324 38316 38307 38189 38295 38329 38369 38314 38016 37967 37849 37818 37707 37679 37638 37608 37581 37566 37526 37527 37468 37319 37185 37117 37341 37595 37551 37466 37619 37285 37864 38136 38165 38151 37839 37748 37554 37542 37576 37684 38034 37671 38175 38117 38256 38193 38329 38024 37801 37674 37489 37762 37759 37676 37525 37489 37537 37463 37469 37408 37318 37334 37434 37443 37527 37919 37986 38087 38227 38241 38354 38453 38323 38496 38210 38196 38302 38156 38350 38336 38447 38341 38601 38416 38495 38487 38406 38514 38209 38363 38399 38374 38443 38625 38500 38734 38724 38804 38977 39049 38922 38689 38731 38558 38830 39029 38698 38947 39065 39105 39141 39138 39221 39253 39021 38899 38581 38797 38696 38626 38588 38467 38459 38376 38273 38346 38180 38252 38261 39279 38745 38765 38961 38715 38680 39356 38739 39192 39401 39339 39225 39011 38891 38813 38802 38811 39045 38833 39199 38639 39203 38895 39082 38858 39057 38759 38589 38275 38377 38360 38403 38469 38668 38538 38847 38681 38784 38375 38632 38127 38325 38307 38478 38721 38887 39068 39185 39109 39033 39451 39574 38852 38869 38752 38737 38700 38873 38405 39030 39225 39317 39722 39559 39378 38915 38904 38520 38867 38620 38771 38821 38154 38816 38973 38751 39075 38791 38913 38640 38574 38420 38694 39069 38828 38859 39140 39409 39061 39450 39096 38947 38905 38476 38533 38216 38415 38215 38395 38262 38201 38246 38349 38338 38212 38115 37854 38039 37872 38197 38239 38192 38924 38850 38888 39172 38931 39175 38758 38506 38521 38392 38594 38482 38752 38732 38944 38789 39207 38980 39107 39040 38868 38445 38599 38570 38400 38640 38580 38746 38834 38528 39157 38658 39021 38745 38737 38683 38837 38920 38834 39004 39065 39093 38795 39032 38911 38824 38532 38816 38391 38731 38582 38677 38940 38864 38874 39074 38895 39072 38960 38879 38650 38684 38546 38716 38602 38785 38715 38942 38795 39255 38948 39181 38953 38525 38551 38167 38407 38271 38666 38658 38545 38911 38798 38849 38957 38929 38580 38596 38432 38462 38419 38598 38417 38753 38688 38635 39067 38731 38892 38704 38788 38336 38580 38232 38682 38470 38897 38722 39022 38997 39039 39139 38776 38712 38396 38491 38486 38628 38749 38472 39120 38954 39034 39246 38924 39049 38676 38423 38387 38433 38532 38237 38752 38518 38580 38744 38620 39016 38716 38345 38443 38225 38437 38423 38597 38375 38566 38484 38631 38507 38814 38715 38579 38275 38302 38089 38304 38390 38477 38389 38464 38397 38215 38565 38531 38206 38080 37870 38264 38182 38570 38568 38668 38678 38661 38747 39052 38872 38594 38375 38349 38189 38546 38635 38592 38973 38443 38806 38752 38763 38636 38551 38198 38288 38128 38268 38436 38508 38617 38438 38738 38675 38879 38835 38593 38350 38189 38431 38378 38610 38540 38442 38623 38476 38916 38879 38938 38650 38617 38547 38734 38671 38735 38742 38431 38698 38925 39011 38959 38941 38529 38604 38371 38475 38522 38454 38834 39305 39917 40473 40423 40721 40179 40132 39984 38971 39218 38696 38901 38818 38964 38801 38750 38858 38624 38738 38589 38579 38164 38469 38325 38709 38827 38771 39086 38870 39193 39149 38932 39121 38767 38923 38712 38893 39080 38808 39088 39409 39022 39428 39417 39165 39164 38996 38688 38653 38713 38643 38955 38945 38842 38973 39011 39079 39148 38836 39039 38390 38868 38443 38874 38853 39049 39074 39103 39310 39083 39184 39222 39312 39105 39312 39401 39603 39824 40346 40899 41210 41076 41600 41254 41260 40949 40373 39796 39451 39279 39219 39007 38959 38844 38812 38764 38745 38748 38559 38432 38328 38137 38221 38188 38202 38015 38215 38154 38207 38140 38209 38044 37964 37791 37638 37791 37698 37923 37762 37825 37655 37971 37821 37935 38350 38255 38156 38134 38101 38228 38166 38309 38400 38406 38982 38797 38983 38900 38951 38688 38511 38338 38303 38279 38271 38198 38276 38267 38313 38424 38576 38650 38420 38274 37963 37782 37585 37636 37794 37898 38035 38031 38009 37917 37998 37816 37519 37469 37249 37290 37242 37242 37274 37320 37374 37400 37554 37417 37447 37127 36884 36822 36828 36548 36978 36656 37546 37464 37790 37799 37860 38000 37871 37808 37656 37838 37980 37960 38198 38248 38259 38301 38543 38470 38854 38642 38673 38181 37997 37558 37384 37215 37254 37197 37002 37227 37231 37193 36866 36810 36665 36763 36743 36901 36734 37008 37008 37079 36896 37146 36962 37089 36982 36791 36750 36865 36920 37205 37208 37353 37298 37463 37699 37685 37870 37427 37572 37447 37372 37525 37584 37658 37556 37642 37716 37807 37943 38001 37570 37750 37694 37723 37987 37700 38178 38125 38036 38404 38252 38638 38413 38488 38234 37947 38362 38151 38724 38630 38563 38810 38717 38914 38671 38877 38415 38133 38128 38032 38163 38308 38020 38484 38371 38790 38685 38711 38687 38451 38335 38198 38212 38312 38349 38288 38217 38677 38412 38488 38971 38562 38780 38418 38243 38411 38377 38542 38819 38899 38650 39028 38756 39261 38984 38916 38719 38300 38655 38444 38413 38535 38619 38625 38802 38842 38842 39048 38840 38865 38504 38367 38688 38566 38708 38951 38955 38736 39032 38941 39042 38799 38679 38513 38268 38499 38297 38556 38580 38797 38854 39003 39046 38982 39121 38780 38565 38699 38785 38858 38775 38855 38940 38943 39162 39161 39394 39170 39104 39691 38964 38781 38806 38630 38831 38251 38377 38627 39453 38827 40672 40254 40185 39532 39080 39218 38873 38638 38949 38644 38930 39003 38892 39239 39137 39473 38996 39033 38572 38972 38912 38993 38945 39544 39098 39635 39554 39567 39604 39522 38803 39079 38935 39563 39492 40413 40332 40917 40451 41090 41032 41042 41059 40129 40283 40263 39594 39089 39610 38719 39796 39589 40410 41871 41968 41421 41236 40391 40239 39765 39769 39544 39249 39114 39238 39320 39321 39504 39376 39378 39355 39313 39211 39433 40333 40056 40414 40104 39981 39837 39754 39674 39692 39583 39192 39104 38743 38744 38509 38659 38488 38410 38389 38365 38148 38343 38214 38015 37588 37631 37506 37626 37471 37852 37971 38079 38179 38461 38526 38631 38504 38260 38045 37783 37368 37427 37280 37282 37235 37171 37187 37256 37261 37205 37170 36838 36534 36451 36230 36428 36502 36841 37181 37130 37480 37611 37778 37716 37349 37223 37008 36942 36937 36967 36901 36813 36991 37628 37485 37861 37836 37534 37337 37223 37207 37202 37258 37375 37408 37499 37489 37449 37402 37388 37299 37077 36881 36815 36831 36888 37002 37115 37165 37234 37319 37455 37547 37493 37287 37029 36954 36889 36817 36792 36782 36719 36756 36800 36849 36854 36868 36860 36750 36655 36563 36606 36627 36657 36634 36708 36673 36704 36757 36883 37002 36837 36668 36598 36672 36765 36849 36964 36891 36981 37083 37251 37454 37651 37842 37786 37270 37858 38021 38244 38339 38790 38723 38846 38858 38926 38873 38942 39062 38781 38626 38678 38669 38689 38583 38693 38690 38606 38697 38719 38741 38698 38619 38201 38085 38189 38135 38173 38056 38360 38421 38319 38229 38384 38511 38361 38268 38250 38006 38204 38074 37958 38515 38267 38579 38500 38558 38518 38682 38751 38491 38676 38368 38682 38592 38650 38777 38688 39343 38951 39274 39281 39263 39184 38867 38743 38540 38493 38531 38576 38566 38761 38613 38833 38807 38874 38627 38698 38310 38357 38061 38367 38255 38330 38339 38150 38380 38553 38424 38899 38712 38873 38734 38271 38400 38159 38170 38487 38333 38406 38575 38335 38713 38460 38557 38786 38461 38172 38207 38188 38159 37997 38462 38488 38536 38476 38405 38487 38319 38352 37702 38226 37706 38236 38128 37938 38325 38013 38230 38023 38259 38225 38351 38147 38166 37924 38280 37915 38105 38226 38319 38138 38455 38297 38353 38262 38333 37914 37849 37771 37655 37874 37714 38144 37849 38139 38265 38328 38465 38596 38315 38200 38020 37870 38059 37987 38221 38189 38341 38262 38446 38464 38437 38595 38261 38211 38267 38116 38274 38174 38577 38222 38436 38624 38632 38696 38440 38553 38037 38090 38142 38330 38246 38462 38499 38288 38680 38402 38922 38621 39038 38445 38494 38619 38659 38339 38346 38481 38422 38562 38872 38581 38635 38813 38597 38397 38490 38403 38448 38435 38724 38675 38649 38830 38716 38564 38656 38538 38113 37945 37825 37706 37642 37825 37925 38093 38291 38432 38395 38708 38252 38007 38062 37616 38136 38120 38005 38244 38327 38251 38238 38576 38449 38308 37988 37948 37835 37873 37866 38044 38009 38036 38075 38176 38157 38280 38197 38114 37828 37859 37928 37956 38070 38030 38408 38394 38350 38266 38455 38433 38255 37954 38168 37889 37854 38118 38133 38369 38097 38451 38147 38546 38271 38528 37907 38107 37898 38047 38121 37954 38250 38335 38276 38308 38601 38646 38256 38247 37980 37985 37660 38364 37950 38402 38581 38348 38456 38514 38680 38255 38668 38304 38027 38032 38327 38227 38357 38646 38581 38575 38513 38717 38844 38687 38183 38218 38072 38230 38461 38537 38505 38596 38427 38539 38525 38399 38886 38311 38471 38078 38184 38032 38372 38111 38540 38423 38411 38485 38580 38481 38580 38285 38065 37919 38196 38113 38219 38318 38365 38267 38501 38776 38383 38348 38448 38233 37995 38272 38077 38355 38410 38650 38275 38683 38632 38687 38858 38303 38343 38115 38238 38250 38342 38249 38487 38349 38410 38526 38632 38654 38578 38309 38273 37999 38007 38121 38024 38091 38096 38094 38184 38100 38003 37979 37753 37410 37529 37645 37461 37732 37905 37997 37789 38122 37884 38079 38335 38151 38253 37696 38011 37777 38054 38212 38350 38593 38234 38843 38592 38540 39026 38662 38580 38054 38403 37965 38890 38917 39060 39426 39142 38850 38999 39005 39017 38814 38413 38336 38409 38410 38366 38537 38273 38390 38312 38149 38082 38059 37829 37774 37418 37884 37751 38364 38242 39098 39752 39494 40126 40291 39975 40260 39662 39255 38714 38376 38211 38126 38105 38126 37937 37954 37754 37825 37686 37883 37894 37510 37674 37667 37562 37799 37542 37610 37513 37598 37461 37701 37743 37285 37346 37289 37167 37118 37347 37208 37255 37332 37465 37284 37595 37519 37427 37053 37169 36758 36840 36909 36731 36838 36828 36890 36945 36927 36892 37091 37069 37021 36997 37817 38853 39030 39860 39390 40327 39901 39710 39559 39688 39460 38935 38687 38312 38048 38019 37960 38486 39120 39584 40218 40642 40487 39884 39117 38858 38391 38315 37598 37964 37625 38036 38249 38235 38102 37716 37998 37733 37682 37640 37400 37650 37540 37461 37375 37537 37853 37849 37755 37455 37296 36983 37005 36803 37072 37105 36977 37266 37548 37273 38008 38027 37731 37416 37386 37072 37620 37501 37865 37557 37871 37700 37715 37540 37468 37068 36832 36750 36226 37055 37334 37461 37774 37766 38153 38442 38304 38850 38131 38989 37990 38038 37488 37682 37576 37664 37841 38318 38678 39165 39198 39152 38797 38474 38221 38113 38114 38089 37875 37842 37735 37509 37475 37366 37225 37172 37002 37111 37436 37634 38268 38468 38426 38156 37984 37888 37907 37906 37706 37530 37221 37381 37467 37627 37903 37735 37691 37650 38569 38024 39363 38675 38499 38101 37944 37513 37411 37830 37712 38089 38184 38123 38248 38450 38525 38324 38169 38238 38071 38298 38336 38365 38388 38288 38128 38509 38526 38604 38543 38288 37974 38024 37991 38131 38283 38010 38200 38160 38139 37905 38212 38143 37954 37778 37431 37780 37875 38044 38125 38207 38129 38181 38167 38128 38203 37850 37903 37976 37739 37896 37954 37937 38170 37929 37830 38112 37672 37970 37885 37870 37647 37550 37448 37549 37598 37895 37914 38006 37769 37972 37960 37907 37931 37890 37754 37575 37631 37755 37790 37801 37974 37869 37984 38044 38188 38197 38016 37802 37765 37762 37782 37723 37784 37726 37899 37952 37985 38227 38032 37938 37692 37599 37548 37347 37568 37517 37749 37697 37666 37943 37900 37926 38089 37975 37979 37648 37850 37803 37960 37896 37971 37977 37917 37879 37863 37919 37835 38196 38178 38531 38534 38690 38714 38787 38989 39234 39328 39338 39508 39359 39142 39142 39277 38886 38654 38500 38390 38680 38976 39476 39616 39864 39871 39648 39442 39204 38899 38594 38451 38215 38230 38119 38217 38099 37948 37928 37811 37601 37432 37476 37258 37468 37981 38447 38987 39252 39474 39671 39736 40203 40258 40370 40311 40855 41260 41256 41601 42121 42318 42580 42676 42671 42452 42806 42915 43778 44364 44802 44720 44717 44491 43789 43914 44279 44705 44841 44328 45371 45402 45032 44900 44861 44988 45018 44970 44629 44963 45047 45169 45327 44800 45472 45379 44941 44880 44589 44427 44273 44133 44056 43528 43079 42834 42649 42348 41807 41330 40824 40386 40258 40081 40036 39839 39634 39353 39263 39182 39068 38920 38503 38075 37889 37840 37923 38311 38541 39412 39794 39638 39470 39478 39355 38784 38321 38243 38060 38192 38029 38280 38398 38713 38736 38638 38851 38547 38878 38603 38910 38267 38207 37933 37578 37811 37564 37764 37608 37692 37673 37632 37697 37822 37561 37402 37498 37388 37448 37593 37831 38236 38505 38202 38589 38498 38835 38861 38757 38399 38224 38117 38019 38275 38324 38462 38456 38463 38586 38630 38750 38468 38297 37844 37924 37837 37812 37902 38055 38060 38169 38185 37987 38216 38203 38327 38117 37805 37652 37626 37744 37565 37954 37948 38120 38134 38266 39175 39499 40092 40715 39797 40202 39337 39798 39821 39726 40072 39421 40196 39620 40071 40327 39808 40103 40005 39726 39731 39538 39381 39638 40089 39940 39967 39763 40113 39956 39977 40432 40115 39932 40094 39530 39364 39296 39093 39269 39301 39189 39299 39130 39071 38729 38727 38469 37986 38238 38233 38161 38276 38231 38438 37996 38422 38376 38306 38568 38528 38537 38352 38171 38123 38336 38480 38695 38695 38588 38800 38902 38790 38891 38961 38691 38331 38040 38114 38367 38501 38474 38669 38435 38599 38460 38783 39127 38757 38467 38156 38173 38175 38030 38553 38354 38817 38846 38840 38884 38883 38956 38783 38388 38479 38044 38444 38570 38934 38853 39094 40058 40616 40598 40474 40067 40071 39656 39235 38835 38649 38534 38378 38197 37906 37782 37731 37779 37683 37838 37835 37692 37349 37141 37095 37016 36955 37016 36892 37014 36847 36864 36822 36759 36652 36583 36503 36253 36239 35986 36006 36075 36063 35985 36046 36003 35921 35865 35823 35889 36103 36381 36644 36973 37301 37300 37384 37605 37719 37799 37788 37828 38070 38248 38256 38110 37936 37856 37713 37667 37739 37880 38312 38993 39794 40105 39972 39876 39666 39719 39508 39659 39602 39390 39755 39365 39262 39243 39076 38827 38975 38916 38761 38580 38510 38095 37925 37692 37770 37650 37621 37524 37769 37696 38089 38304 38516 38926 38884 38949 38898 38766 38572 38930 39029 39209 39045 39454 38919 39683 39558 39293 40049 39714 40036 39955 39737 39513 39545 39587 39421 39783 39675 39541 39547 39330 39070 39314 39290 39180 39507 39231 39467 39532 40109 40053 40069 40196 39952 40051 40197 40209 40450 40485 40020 39944 39511 39255 39117 39279 39226 39268 39452 39290 39504 39636 39817 39798 39688 39354 39237 39129 39041 38967 38970 39066 39128 39032 39141 39038 38954 39026 38939 38757 38533 38317 38084 38047 38054 37954 38013 37965 38049 37964 38040 37952 37987 37922 37832 37536 37418 37332 37306 37386 37415 37411 37356 37419 37278 37407 37381 37371 37390 37182 36978 36878 36894 37129 37173 37291 37582 37724 37859 37726 37756 37625 37681 37349 37314 37282 37337 37757 38441 39163 39572 39818 39806 39317 39079 38678 38654 38567 38601 38585 38647 38469 38377 38302 38427 38534 38758 39289 39688 39997 40495 40599 40549 40187 39795 39276 39346 39207 39301 39130 39745 39928 40403 40796 41049 41182 41273 41221 40937 40308 40148 40028 40231 40309 40171 40573 40459 40389 40245 39661 39841 39720 39593 39429 39120 38901 38616 38667 38680 38628 38662 38548 38543 38690 38409 38913 38677 38753 38466 38334 38308 37629 38184 38209 38316 38048 38744 38280 38865 38492 38960 38930 38773 38335 38230 37333 37893 38323 37593 38381 37946 38128 38269 38399 38412 38528 38326 38272 38140 38316 38210 38043 37971 38137 38468 38867 39271 39687 39939 40005 40182 40419 40447 40165 39888 39662 39460 39392 39288 39273 39192 39137 39116 39125 39247 39282 39272 39189 38911 38719 38561 38505 38481 38499 38566 38569 38625 38685 38818 39079 39320 39730 40231 39965 39405 38821 38611 38484 38418 38278 37909 37773 37589 37453 37432 37277 37238 37133 37011 36866 36779 36567 36433 36230 36045 36011 35955 35822 35531 36358 36681 37163 37431 37404 37320 37283 37211 37368 37360 37529 37112 37526 37630 37472 37436 37273 37107 36869 36588 36341 36274 36239 36564 36530 36392 36344 36395 36595 36598 36605 36498 36150 36300 36231 36508 36309 36356 36383 36512 36442 36997 36749 36783 36628 37020 36779 36673 36391 36310 36640 36610 36749 36423 37185 37147 37343 37505 37446 37145 37167 37076 37034 36785 36693 36807 36957 36925 37216 37110 37603 37669 37745 37938 37950 37849 38002 38183 38127 37753 37565 37458 37296 37475 37339 37523 37408 37582 37754 37572 37463 37553 37213 37577 37468 37676 37817 37653 37886 37675 38108 38054 38025 37966 37773 37622 37695 37302 37728 37791 38048 38178 38517 38400 38906 38792 38898 38958 38940 38802 38466 38096 38119 37759 38059 38076 37942 37951 38023 38046 37944 38337 38576 38584 38422 38465 38340 38391 38281 38285 38185 38354 38388 38749 38735 38817 38821 39052 38788 38917 38792 38756 39151 39002 39240 39338 39020 39316 39286 39117 39060 39218 39142 39216 38931 38731 38482 38764 38588 38962 38928 38827 39020 38749 38835 38693 38751 38727 38427 38420 38150 38348 38219 38154 38026 38254 38158 38603 38452 38750 38873 38839 38860 38809 38684 38927 38359 40525 41676 43058 42736 41856 41309 40659 40753 40215 40201 39727 39946 39037 38757 38873 38389 38945 38778 38819 38754 38508 38747 38701 38878 38888 38555 38532 38268 38043 38408 38398 38460 38492 38374 38606 39014 38700 38868 39997 39783 39433 39374 38498 38822 38858 38806 38804 38357 38617 38602 38544 38834 38788 38926 38583 38579 38472 38338 38433 38456 38310 38342 38240 38430 38399 38430 38382 38332 38398 38567 38495 38457 38390 38310 38345 38219 38518 38418 38592 38597 38417 38453 38463 38503 38503 38382 38278 38481 38040 38268 38048 38206 38126 38199 38271 38231 38366 38486 38472 38516 38326 38286 38024 38046 37924 37992 38085 38264 38085 38428 38748 38604 39023 38686 39136 38996 38672 38799 38719 38605 38959 39061 39104 39151 38755 38938 38789 39006 39217 39414 39202 39091 38873 38768 39155 38915 39061 39169 38977 39478 39418 39591 39819 39840 39814 39889 39560 39445 39289 39488 39338 39306 39304 39193 39326 39101 39252 39191 39011 39250 39208 38780 38926 39004 38938 39069 39065 39097 39156 39191 38960 39124 38903 38952 38858 38559 38330 38361 38404 38129 38388 37989 38781 38690 39047 38983 39103 39217 39064 38859 39082 39087 38870 39096 39235 39177 39297 39401 39515 39908 39536 39771 39769 39575 39484 39090 38637 39039 38849 39143 39018 38866 38976 39008 39095 39387 39473 39679 39666 39569 39348 39388 39064 39202 39002 39140 38849 39134 39249 39057 39165 39305 39009 39294 39058 39100 38926 38741 38656 38759 38653 38863 38410 39479 39139 39628 39494 39648 39408 39392 39060 39295 39020 39229 39253 39253 39308 39228 39339 39331 39268 39381 39300 39100 38937 38946 38850 38842 38938 38852 38979 38799 39147 39046 39389 39437 39588 39607 39485 39382 39154 38994 38688 38579 38434 38656 38547 38526 38456 38237 38196 38247 38114 38024 37890 37788 37815 37931 38064 38096 38068 38131 37923 38049 37988 37885 37824 37664 37370 37427 37360 37653 37661 37690 37765 37591 37802 37669 38211 38985 38669 39183 39020 38926 39238 38792 38863 39408 39521 39222 39803 39497 39710 39513 39549 39356 39357 39233 39143 39359 39211 39064 39315 39349 39326 39555 39443 39179 39498 39184 38928 38732 38938 38812 39020 38999 39158 38948 39002 39000 38894 39318 39069 39141 38926 38683 38668 38494 38794 38929 38813 38833 39124 39136 39022 39088 39362 38944 38982 38967 39148 39230 39187 39300 39175 39267 39242 39244 38984 39213 39181 39112 38819 38626 38664 38485 38860 38877 38798 39003 38920 39031 38806 39045 38797 38605 38310 38231 38172 38279 38276 38408 38203 38399 38584 38407 38767 38733 38980 38979 38609 38654 38683 38509 38887 38710 39034 38995 38944 38809 39251 38878 39445 38925 38673 38800 38783 38720 38788 39005 38905 39166 39007 39385 39257 39277 39138 39066 38712 38807 38728 38716 39322 38739 39137 38966 39059 39200 38844 39306 39034 38862 38694 38920 38807 38723 39191 39041 38888 39008 39167 39081 38910 39181 38872 38477 38665 38578 38603 39062 38793 39209 38985 39104 38836 39146 39335 39166 39076 39130 39002 38853 39209 39294 39156 39231 39124 39175 39240 38990 39647 39173 39141 38918 38668 39005 38994 39261 39257 39200 38906 39129 39294 39193 39194 38846 38835 38586 38766 38659 38973 39099 39188 39008 39294 39287 39320 38976 38990 38929 38966 39020 39121 39054 39152 39382 39918 39729 42113 40819 42760 41864 40921 40318 40018 39516 39281 39113 38619 39136 38951 39212 39211 39297 39094 38861 38888 38748 38739 38909 38875 39243 38941 39254 39118 38978 39397 39485 38925 38797 38470 38423 38117 38762 38803 38753 38761 38639 38693 38477 38833 38822 38713 38408 38088 37944 37982 37990 38144 37939 37927 37871 37781 37476 38073 38017 37823 37780 37480 37502 37523 37473 37325 37758 37627 37812 37756 37866 37789 37597 37300 37262 37801 37870 38161 38348 38735 39347 39146 39769 39827 40365 41444 41040 40944 40210 39682 38977 38913 38968 38931 39118 39141 38823 39149 39066 38830 38661 38331 38216 38280 38175 38324 38305 38453 38359 38462 38204 38202 38093 38159 37917 37743 37713 37673 37657 37665 37600 37894 37853 37705 37944 38404 39132 39605 39594 39720 40253 40396 40163 39907 39788 39378 39246 38744 38909 38916 39249 39392 39126 38825 38545 38576 38633 38396 38285 38647 38754 38707 38832 38967 39174 38996 38702 38387 38413 38108 38517 38392 38390 38084 38507 38445 38705 38639 38473 38144 37923 37376 38103 38264 38435 38586 38895 38651 38804 38895 39158 39102 39455 39282 38960 38679 38672 38637 38511 38796 38647 38720 38685 38660 38484 38680 38518 38392 38364 38117 37876 37869 37885 37987 38035 37970 38145 38003 37976 38018 38126 37792 37567 37504 37670 37440 37868 37707 37775 37545 37493 37392 37255 37582 37494 37474 37172 37067 36832 36855 36924 36988 37224 37498 37273 37538 37455 37693 37631 37635 37346 37136 37253 37193 37392 37363 37542 37459 37354 37392 37500 37598 37469 37870 37729 37678 37790 37874 38039 38168 38399 39016 39074 39179 38814 39645 39508 39594 39705 39322 39049 38608 38443 38398 38340 38389 38610 38692 38746 38958 39113 39253 39236 38889 38924 38864 38777 38840 38955 39058 38890 39166 38999 39146 38847 39333 39473 39796 39506 39202 38989 38959 38856 38966 38825 38996 38802 39052 38803 39091 39524 39562 40046 39600 39592 39812 40141 40173 40378 40155 39956 39562 39212 38730 38305 38119 37841 38022 37672 37392 36932 36989 36923 36823 36774 36564 36637 36460 36601 36614 36735 36450 36339 35879 36132 36050 36417 36422 36362 36504 36202 36438 36483 36531 36345 36588 36460 35958 35954 36054 35867 36114 36004 35984 36007 35779 36019 35972 36342 36194 36349 36135 35923 35663 35879 35747 35881 35977 35858 36018 36045 36017 36018 36096 35942 36181 36122 36032 35834 36145 36168 36214 36482 36639 36740 37116 37181 37182 37119 37599 37825 38012 38157 37894 38137 38060 38331 38384 38568 38606 38472 38771 38718 38965 38696 39064 38971 38840 38745 38819 38960 38795 38863 38940 38986 38863 39215 38965 39168 38966 39025 38887 38751 38488 38487 38685 38887 38458 38632 38814 38296 38963 38638 39123 39000 39879 39943 39920 39805 39668 39497 39499 39369 39369 39305 39417 39128 39119 38954 38658 38779 38590 38594 38152 38520 38163 38397 38598 38829 38620 38692 38745 38451 38749 38472 38842 38722 39158 40179 40482 39949 39507 39253 38850 38996 38461 38362 38119 37954 37627 37373 37122 36454 37426 36883 37122 37226 37182 37042 36997 37017 37135 37019 36693 37850 37399 37888 37493 37508 37580 37733 38113 38293 39301 40454 41158 41425 41761 42019 41662 41198 40323 39618 39121 38705 38550 38432 38206 38361 38331 38109 38232 38206 38462 38333 38035 37979 37516 37480 37333 37789 37774 38309 38045 38103 37996 37816 37679 37782 37883 37504 37444 37662 37720 38078 38547 38291 39289 39048 39455 39241 39441 39518 39492 39602 39786 39643 39280 39165 39083 38948 38667 38963 38683 38279 38122 37965 37794 37928 37709 37467 37487 37638 37255 37433 37154 37264 37088 37003 37224 36993 36973 36805 37097 36807 36810 36636 36531 36614 36554 36463 36493 36786 36777 36947 36936 37310 37545 37716 37880 37701 37534 37111 37905 37864 37975 37838 37624 37783 37735 37831 37747 37708 37755 37653 37694 37402 37562 37646 37712 37638 37736 37505 37592 37675 37788 37797 37821 38129 37949 37904 37459 37909 37813 37754 37571 37916 37770 37730 37707 37626 37638 37647 37868 37807 37687 37656 37353 37740 37599 37635 37676 37516 37579 37432 37729 37550 37937 38008 37828 37976 38003 37905 38192 38071 38002 38039 38157 38188 37853 38940 38643 39222 39220 39052 38993 38966 38706 38756 38782 38522 38918 38790 38633 38447 38836 38666 38516 39012 38961 38730 38986 38414 38385 38525 38464 38686 38518 38365 38520 38393 38368 38086 38731 38613 38743 38482 38592 38193 38175 38102 38426 38619 38567 38664 38415 38595 38646 38452 38266 38199 38333 38197 38100 38136 38112 37949 38165 38101 38261 38091 38348 38142 38290 38255 38239 38100 38171 38003 37878 37707 37796 37649 37660 37503 37574 37675 37587 37664 37613 37706 37710 37696 37867 37504 37405 37174 37353 37167 37075 37090 37145 37227 37315 37299 37536 37440 37494 37471 37536 37539 37462 37388 37416 37405 37513 37673 37612 37551 37641 37811 37903 37821 37786 38014 37963 37925 37893 37922 37920 38074 38094 38167 38557 39207 39461 40071 40291 40573 40729 40848 40858 40702 40565 40648 40711 40759 40882 40948 40981 40988 41033 41072 41070 41015 40922 40758 40513 40322 40223 40152 40108 40103 40083 40069 40041 40014 40016 39995 40000 40005 39897 39736 39654 39606 39616 39652 39711 39746 39791 39805 39812 39831 39841 39850 39812 39641 39476 39386 39365 39351 39363 39395 39429 39438 39439 39439 39459 39476 39479 39362 39194 39062 39017 39021 39045 39098 39159 39192 39217 39235 39272 39299 39347 39278 39076 38934 38884 38886 38904 38971 38992 39027 39061 39078 39070 39101 39104 39073 38895 38713 38598 38573 38592 38668 38727 38772 38779 38810 38807 38800 38806 38809 38745 38556 38414 38386 38407 38488 38555 38591 38608 38621 38658 38680 38715 38763 38850 38790 38631 38551 38526 38562 38592 38634 38734 38965 39359 39775 40140 40487 40588 40720 40534 39932 39522 39179 38841 38539 38226 38061 37881 37714 37481 37223 36983 36713 36489 36172 35834 35578 35513 35414 35380 35334 35321 35791 36880 37622 37577 37317 37197 36645 35898 35322 35024 35074 35167 35199 35254 35309 35361 35337 35355 35445 35549 35823 35868 36015 36043 36156 36179 36141 36209 36783 37127 37227 37124 37002 36892 36781 36639 36393 36267 36175 36186 36199 36199 36151 36180 36214 36218 36132 36128 36071 35963 35742 35374 34992 34711 34575 34308 34280 34381 34411 34320 34389 34425 34368 34381 34460 34396 34420 34427 34482 34460 34492 34582 34641 34694 34791 34839 34923 34884 34796 34690 34682 34717 34704 34683 34729 34690 34721 34816 34669 34955 34815 34913 34848 34746 34770 34681 34784 34802 34863 34859 34850 34847 34883 34865 34905 34888 34956 34973 34987 35077 35206 35313 35467 35562 35617 35650 35684 35676 35699 35694 35628 35464 35322 35221 35174 35119 35088 35032 34983 34924 34874 34808 34754 34775 34735 34622 34594 34578 34626 34609 34639 34692 34714 34751 34838 34893 34913 34942 35013 34914 34745 34676 34669 34762 34794 34824 34903 34886 34963 34945 35030 34934 34905 34892 34728 34658 34748 34799 34866 34922 34966 35103 35117 35201 35213 35191 35221 35292 35248 35254 35242 35416 35453 35507 35584 35663 36454 37733 38328 39660 39805 40231 40331 40449 40225 39746 38983 38657 38813 38703 38579 38610 38746 38671 38468 38170 37808 37320 36783 36380 36152 35981 35836 35753 35882 35832 35829 35888 35889 35841 35836 35754 35469 35233 35172 35020 35058 35118 35146 35179 34920 34773 34601 34778 34926 34936 35126 35052 34984 35026 35255 35230 35250 35150 35123 35314 35265 35542 35729 35683 35797 35498 35432 35525 35463 35529 35616 35349 35092 35009 35217 35340 35392 35562 36265 36446 36707 36891 36906 36834 36567 37244 37097 37238 37212 37273 37278 37318 37491 37107 37123 36929 36851 36822 36772 36877 36934 36741 36436 36725 36708 36684 36691 36314 36723 36703 36878 36995 37091 37214 37381 37324 37413 37378 37417 37263 37260 36962 36677 36707 36710 36861 37383 37719 37990 38233 38453 38610 38452 38239 37860 37527 37187 36963 36827 36738 36618 36491 36334 36172 36015 35860 35744 35648 35596 35566 35505 35491 35541 35602 35612 35685 35720 35816 36013 36141 36344 36668 37197 37703 38290 38604 38927 39120 39272 39342 39342 39265 39165 39039 38932 38780 38585 38346 38001 37831 37661 37475 37278 37248 37385 37428 37270 37090 37033 36989 36953 36795 36765 36745 36492 36458 37586 39970 41189 40410 40273 40187 39898 39611 39203 38749 38327 37977 37644 37437 37423 37426 37438 37327 37134 36896 36624 36506 36644 37047 37268 37221 37194 37195 37045 36829 36561 36192 35813 35739 35469 35368 35245 34870 34461 34133 33829 33291 33184 33031 33322 33444 33561 33744 33960 34289 34281 34230 33923 33709 33772 33772 33898 34140 34057 34001 34354 34047 34244 34449 34419 34035 33634 33287 32963 32864 33128 33138 33296 33832 33863 34166 35078 35235 35207 35119 34874 34505 34428 34042 33745 33809 33788 33939 34235 34880 35433 35947 36432 36709 37620 38265 37953 37801 38655 38693 38639 38738 38441 38614 38670 38192 38324 37915 37354 36852 36576 36223 35992 35762 35765 35434 35380 35232 35168 35081 34860 34836 34843 34583 34621 34412 34686 34556 34514 34580 34620 34736 35024 35012 35234 35049 35430 35417 35476 35527 35768 36027 36344 36323 36287 36288 36097 36419 36024 35682 35419 35175 35241 35014 35230 35284 35377 35514 35359 35870 35832 35792 35564 35318 35099 35420 35160 35699 35529 35981 35763 35956 35804 35937 35804 35905 35805 35775 35860 36269 36232 36298 36580 36445 36504 36597 36577 36519 36626 36431 36088 35210 35549 35306 35636 35402 35771 35342 36171 36034 36098 36102 35947 36162 35945 35612 35753 35860 36452 36583 36391 36978 36883 36696 37379 37000 37739 38028 37477 38352 37593 37811 38240 37875 37821 37610 37500 37391 37462 37423 37484 36943 36830 36618 36785 36861 36892 36944 36969 37013 36756 36967 36786 36929 36473 36516 36100 36470 36081 36706 36526 36895 36623 36805 36954 36339 36930 37424 37009 36986 37277 37079 37121 36553 37366 37534 37043 37745 37757 37336 37927 37861 37856 37865 37517 37667 37273 37765 37424 37635 37883 37914 38040 37927 38288 38228 37811 37824 37649 37723 37640 37806 37886 38151 38561 39020 39318 39276 38951 38553 38190 38166 38549 37896 37929 37867 37718 37459 37408 37444 37730 37636 37667 37571 37325 36860 37061 36790 37104 36975 37038 36845 37029 37050 36883 36993 36929 36893 36568 36632 36653 36380 36791 36909 36740 36839 37109 37018 36831 37220 37270 37036 36694 36801 36792 36702 37414 37282 37275 37160 37143 37143 36886 37248 37150 36908 36593 36523 36582 36598 36645 37037 36881 36885 36844 36829 37497 37398 37962 37679 37364 37091 37266 37255 37133 37404 37170 37627 37693 37289 37984 38052 37771 37708 37533 37037 37286 37098 37152 37120 37527 38048 39272 38695 40705 41102 41963 41577 40479 39649 39444 38980 39244 38377 38606 38576 38255 38188 38023 37787 37617 37330 36825 36404 36596 36640 36632 36980 37566 37756 38517 38633 38506 38716 38503 38959 38774 38779 38680 38498 38715 38951 38877 39017 38785 39153 38996 39079 39361 39265 38966 38789 38693 38595 38615 38289 38513 38373 38796 39031 39169 39423 39574 39253 39021 38504 38309 38253 37704 38222 38367 38109 38265 38043 38177 39611 40439 40901 40898 40732 41138 41104 41612 41295 42021 42046 42569 42392 42844 42710 42590 42990 41972 41666 40807 40433 40812 40207 40412 40337 40616 40157 40056 39966 39819 40260 39131 38877 38491 38573 38167 38520 38269 38472 38513 38417 38806 39243 39087 38756 38674 38440 38202 38894 38643 39131 38756 38968 38674 38445 38062 38507 38217 37760 37727 37619 37341 37449 37383 37553 37311 37721 37315 38305 37953 38628 38177 37722 37922 37805 37311 38320 38178 38028 38706 38583 38488 38837 39514 39104 38731 38591 38204 38444 38170 38328 38128 38145 38490 38281 38449 38247 38380 38042 37540 37816 37718 37741 37536 37600 38075 37988 38029 37867 37986 37962 37527 37355 37708 37545 37799 37920 38252 38293 38472 38782 39207 39273 39048 39383 39800 40208 40958 41768 42663 42789 42767 42420 41906 41521 41046 40516 39743 39331 38937 38533 38233 37892 37722 37627 37779 37810 37920 37936 37964 38024 37831 37680 37559 37281 37095 37206 37208 37197 37179 37114 37123 36976 36943 36828 36595 36418 36440 36309 36450 36375 36502 36585 36690 36604 36626 36645 36447 36275 36086 36061 36077 36043 35992 36056 36021 36032 35908 35868 35973 35897 35747 35637 35586 35487 35630 35674 35854 35693 35791 35756 35726 35686 35646 35451 35335 35117 35105 35140 35173 35219 35407 35507 35555 35745 35886 36066 35858 35720 35767 35900 35982 36075 36171 36267 36376 36474 36498 36736 36795 36757 36674 36622 36626 36725 36788 36714 36804 36777 36687 36508 36270 36130 35948 35983 36346 36909 37973 39221 40600 41520 41758 41327 41423 41227 41158 40910 40639 40129 39788 39579 39488 39170 39133 39008 38986 38988 38865 38797 38835 38280 38077 37666 37646 37390 37552 37638 37600 37711 37790 37486 37637 37217 37058 36627 36885 36938 37045 37082 36969 36855 36919 36969 36919 36913 36905 36309 36242 36205 36215 36475 36981 37140 37506 37520 37450 37315 37110 36936 36845 36516 36996 36901 36973 37016 37198 37069 37127 36920 37180 36918 36925 36811 36649 36537 36670 36633 37214 37141 37121 37100 36983 36977 36879 36756 36477 35938 36079 36138 37035 37038 37616 37686 37881 37793 37850 37811 37846 37477 37123 36632 36895 37860 37687 37537 37830 38159 37935 38005 37939 37864 37690 37476 37020 37114 37015 36985 37063 37070 37126 37149 37145 37181 37217 37240 36888 36818 36778 36868 36966 37398 37330 37644 37746 37767 37937 37979 38064 38022 37904 37975 38192 38283 38360 38395 38452 38482 38369 38437 38584 38874 38772 38444 38227 38282 38124 38110 38075 38058 38053 38363 38910 38995 39347 39197 38942 38845 38594 38457 38185 38059 37931 38094 37948 38194 38206 38281 38291 38152 37938 37926 38059 38094 38232 38303 39045 38843 39431 39754 40025 39884 39907 39661 39810 39336 39101 38852 38548 38609 38458 38692 38515 38677 38307 38132 37818 37834 37701 38060 37718 37861 37805 38025 38198 38487 39012 40353 41118 41672 42148 42596 42369 41352 40658 40016 39402 38620 38147 37849 37736 37666 37379 37299 36960 36942 36813 36864 36871 36948 36951 37089 37088 37106 37231 37033 37040 36891 36974 36806 36844 36783 37111 37207 37201 37439 37525 37756 37760 37584 38038 38211 38477 39012 39116 39285 39391 39807 39882 40272 40470 40772 40578 40265 40317 40391 40450 40436 40729 40746 40966 40902 40692 40394 39972 39269 38648 38508 38114 38216 38090 37897 38283 38282 38166 38393 38541 38470 38334 38031 37827 37727 37698 38023 38237 38571 38797 38883 38943 38778 38830 38610 38374 38215 38080 38076 38294 38257 38297 38157 38146 38176 38409 38516 38838 38785 38753 38814 38652 38759 38604 38558 38437 38531 38576 38653 38713 38914 38783 38959 39428 39770 40379 40713 40971 40545 39980 39442 39125 38987 38759 38353 37890 37567 37270 37142 36949 37023 37002 37067 37002 37093 37099 37037 36882 36648 36729 36668 36623 36559 36406 36326 36165 36176 36152 36261 36234 36172 35950 35900 35776 35860 35714 35787 35846 35869 35857 35907 35918 35931 35994 35802 35757 35765 35684 35725 35755 35827 35902 35849 35876 35914 35969 36005 35798 35691 35693 35777 35835 35921 35898 35980 35909 35956 35851 35905 35744 35697 35508 35614 35633 35692 35734 35866 35867 36224 36174 36206 36294 36264 36052 36024 36026 36025 36143 36115 36269 36203 36408 36318 36930 36816 36936 36643 36601 36693 36805 36884 36912 36927 37037 37220 37804 38086 37998 38387 38275 38471 38882 39074 39139 39301 39519 39763 40052 40220 40153 39772 39444 39087 38946 39161 39891 40613 41072 41379 41691 41331 41090 41108 41108 41826 42244 41610 41366 41054 40867 40703 40686 40543 40366 40588 40573 40494 40388 40726 40904 41042 41504 41233 41076 40800 40680 40589 40348 40644 40527 40214 40236 39743 39416 38960 38956 38995 38755 38483 38492 38320 38182 38200 38057 38017 37883 37734 37523 37565 37382 37646 37956 38205 38304 38448 38614 38872 38893 38717 38710 38268 38043 38009 37901 38136 38020 37994 37968 38430 38639 39028 39065 38726 38480 38284 38087 37956 37932 37652 37565 37468 37679 37988 37979 38065 37881 37658 37500 37312 37281 37187 37068 37443 37552 37551 37587 37518 37167 37121 36819 36833 36755 36755 36754 36845 36723 37231 37215 37335 37282 37222 36909 37000 36773 36682 36621 36555 36704 36800 36767 36725 36661 36664 36466 36385 36410 36305 36423 36338 36400 36310 36335 36371 36470 36660 36655 36465 36542 36448 36581 36749 36920 36959 37085 37062 37208 37160 37346 37325 37212 37082 37070 37051 36979 37111 37097 37240 37277 37363 37370 37375 37407 37239 37223 37210 37340 37364 37336 37503 37494 37611 37856 37730 37952 37818 37854 37569 37475 37378 37252 37676 37581 37627 37556 37591 37655 37689 37884 37671 37568 37387 37428 37416 37475 37481 37793 37750 37746 37967 37922 37965 37853 37587 37390 37312 37419 37343 37556 37566 37715 37775 37619 37763 37598 37636 37380 37146 37236 37077 37293 37256 37371 37349 37424 37626 37729 37821 37837 37588 37509 37478 37490 37560 37701 37799 37829 37883 37976 38037 38303 38115 37860 37696 37429 37446 37519 37536 37610 37546 37602 37795 37756 37880 37794 37781 37606 37357 37290 37323 37392 37472 37630 37686 37822 37870 38007 38058 38007 37861 37588 37371 37311 37371 37402 37514 37597 37716 37767 37827 37909 37976 37933 37771 37577 37592 37497 37613 37700 37731 37847 37819 37769 37664 37679 37582 37481 37339 37285 37204 37314 37314 37446 37469 37405 37376 37378 37395 37507 37464 37341 37265 37292 37387 37411 37526 37597 37624 37748 37734 37860 37889 38008 37842 37650 37554 37560 37705 37878 37942 38104 38096 38097 38169 38132 38031 38048 37784 37597 37439 37547 37700 38005 38325 38668 39225 40036 40452 40760 40949 41067 41035 40814 40154 39514 39005 38579 38275 38044 37797 37446 37205 36992 36824 36620 36432 36448 36359 36550 36650 36839 36858 37044 37210 37951 39389 40981 41424 41629 41427 40737 40369 40143 40027 40066 40038 39961 39849 39689 39536 39412 39232 39037 38933 38942 38961 39047 39165 39288 39402 39486 39573 39625 39719 39795 39712 39575 39476 39425 39370 39430 39568 39665 39723 39769 39820 39919 40019 39971 39789 39674 39767 39743 39842 39989 40108 40139 40204 40235 40377 40541 40786 41028 41748 41658 41141 40949 40738 40551 41128 41976 42280 42233 42018 41711 41252 40736 40440 40264 39926 39617 39446 39394 39409 39344 39410 39405 39379 39214 38893 38617 38667 38725 38741 38837 38934 38932 38966 39037 38854 38787 38924 38844 38643 38476 38461 38350 38301 38271 38223 38124 38290 38299 38412 38541 38434 38374 38199 38282 38225 38309 38372 38596 38623 38796 38730 38736 38679 38329 37937 37666 37419 37378 37424 37468 37527 37519 37394 37408 37334 37261 37187 36977 36899 36846 36817 36838 36869 36931 36922 36926 36957 37039 37051 37085 36996 36775 36818 36735 36745 36840 36878 36919 36774 36714 36639 36630 36674 36550 36407 36390 36473 36505 36583 36722 36739 36757 36869 36973 37087 37200 37179 37059 37135 37194 37172 37275 37241 37153 37099 37122 37029 37062 37067 37067 36842 36768 36705 36743 36788 36824 36906 37107 37199 37229 37309 37315 37400 37133 37022 36935 36815 36868 36850 36996 36954 36992 36967 36987 37063 37047 36971 36817 36891 36951 37004 36932 36986 36894 37070 37098 37053 37074 36990 36913 36773 36766 36743 36810 37008 37077 37173 37044 37111 37596 37602 38052 37879 37672 37454 37610 37720 37789 37829 37869 37880 37885 37867 37882 37830 37552 37288 37154 37033 37110 37397 37374 37744 37713 37794 37922 38396 38268 38203 38222 37971 37623 37866 37568 38459 38407 38614 38831 38612 38443 38746 38327 39057 38381 39066 38751 38992 39172 39301 39630 39265 39403 39555 39697 39651 39560 39597 39225 39044 39172 38900 39381 39260 39222 39246 39088 39295 39216 39169 38876 38723 38620 38617 38644 38718 39108 38879 39070 38954 39026 38972 38766 38462 38264 38234 38190 38062 38067 38045 38019 38085 38059 38096 38244 38113 37985 37779 37897 37959 37994 38309 38525 38415 38709 38865 38954 38862 38812 38418 38155 37988 37834 37809 37909 37894 38042 37944 38082 38101 38214 38161 37993 37880 37834 37885 37938 37895 38071 38125 38219 38191 38056 38046 38102 37830 37738 37602 37539 37529 37624 37672 37772 37881 37912 38009 38110 38114 38055 37946 37874 37993 38006 38046 38170 38149 38150 38189 38178 38270 38274 38073 37875 37917 37882 37888 37940 38133 38403 38705 38932 39009 39384 39372 39204 39069 38978 39182 39647 40045 40144 40690 40881 40822 41419 41500 41937 42225 42181 41742 41149 40923 40638 40399 39932 39518 39090 38825 38777 38909 38793 38930 38553 38448 38253 38350 38259 38299 38397 38378 38496 38477 38517 38557 38565 38310 38093 38076 38053 38064 38168 38235 38283 38265 38356 38448 38469 38301 38177 37997 38167 38256 38227 38221 38346 38319 38389 38345 38336 38422 38334 38087 37877 37838 37904 37927 37922 37936 38096 38138 38121 38237 38145 38087 37900 37807 38090 38187 38559 38978 39237 39162 39433 39358 39357 39385 39313 39283 38995 38622 38845 38801 38808 38763 39353 39185 39839 39887 40435 40154 40369 40573 40138 40082 40055 39977 40016 40327 40204 40254 40156 40043 40182 39987 39846 39272 38638 38029 37677 37438 37267 37094 37080 37008 36983 36968 36995 36997 36943 36860 36860 37049 37125 37287 37290 37417 37463 37631 37632 37674 37784 37828 37544 37414 37240 37132 37372 37337 37373 37405 37434 37483 37468 37451 37406 37470 37321 37046 37119 36975 37101 37299 37350 37411 37329 37421 37404 37479 37500 37282 37156 37079 37054 37083 37177 37195 37637 37898 38465 38697 38731 38615 38485 38112 38057 37901 37907 37824 37808 37791 37852 37839 37846 37793 37807 37839 37811 37583 37491 37489 37390 37470 37525 37548 37557 37635 37677 37698 37656 37622 37470 37197 37073 37036 37160 37324 37395 37445 37442 37435 37482 37520 37577 37688 37525 37419 37311 37459 37453 37668 37679 37719 37698 37765 37801 37917 37941 37926 37728 37594 37569 37555 37683 37724 37776 37824 37844 37948 37938 37996 37997 38043 37828 37685 37590 37554 37712 37755 37654 37869 37766 37841 37842 37897 37893 37980 37886 37740 37651 37708 37819 37922 38019 38074 38062 38121 38151 38079 38120 38083 38051 37825 37606 37606 37673 37681 37756 37770 37678 37805 37831 37921 37908 37990 37889 37779 37718 37625 37698 37760 37787 37881 37896 37954 37946 37996 37984 38100 38122 38335 39630 40383 40387 40119 40554 40267 39709 39479 39146 38797 38517 38119 38050 38266 38428 37822 38458 38289 38350 38504 38675 38658 38608 38796 38758 38694 38834 38453 38600 38472 38569 38638 38711 38731 38695 38505 38287 38121 37909 37742 37600 37400 37106 36953 36924 36960 37136 37082 37140 37231 37400 37419 37451 37514 37510 37504 37300 37240 37131 37098 37286 37254 37294 37528 37500 37564 37623 37579 37623 37464 37222 37134 37156 37107 37092 37138 37027 37218 37359 37271 37172 37273 37179 37269 37183 37180 37282 37523 37445 37682 38197 38330 38907 39325 39473 39350 39648 39227 38846 38553 38346 38221 38240 38239 38301 38364 38415 38473 38580 38766 38887 38815 38649 38641 38529 38434 38261 38276 38370 38591 39217 39376 40347 40433 40682 41454 41209 41962 41842 42528 42353 42459 42392 42343 42123 41939 41803 41785 41645 41096 40718 40427 40708 40520 40776 40998 40978 41116 41152 41001 41383 41171 41398 41231 40968 40813 40628 40852 41207 41505 41679 41696 41436 41461 41464 41298 40701 41364 40772 40679 40580 41262 41536 41548 41562 41660 41472 41114 41076 40748 40538 40403 40325 40097 39948 40352 40565 40681 40573 40721 40441 40780 40737 40603 40436 40079 39975 39874 39610 39667 39827 39989 39988 40455 41041 40966 42060 42360 42311 42684 42508 41862 41234 40929 40600 40533 40182 40164 40119 39850 39873 39283 38731 38540 38378 38230 38150 38020 38111 38355 38478 38716 38710 38740 38816 38343 38383 38249 38572 38630 38696 39445 40221 40351 40495 41589 42615 43190 43244 42876 42386 41763 41088 40409 39926 39667 39426 39254 39024 38950 38837 38610 38252 37967 37806 37638 37487 37384 37354 37334 37376 37478 37597 37641 37548 37347 37128 37050 37057 37010 37028 37041 37139 37050 36965 36945 36860 36800 36662 36506 36447 36390 36397 36465 36486 36671 36730 36835 36841 36738 36715 36545 36636 37203 38189 39260 40384 41896 43818 44340 43706 42879 42282 41660 40896 40342 39936 39596 39242 38820 38599 38731 38251 38162 37934 37577 38395 38022 37871 37372 37869 38018 38004 38667 38670 39397 39101 38976 39175 39133 39142 38648 38155 38196 37655 37948 37853 37593 37731 38144 37750 38360 38289 38000 38075 37700 37393 37329 37202 37269 37033 37663 37778 38636 38426 38262 38399 38237 37695 37671 37589 37342 37287 37264 37007 37098 37211 37031 37520 37232 37753 37560 37870 37843 37896 37714 38016 37976 37881 38120 38555 38180 38844 38441 37699 37993 37791 37776 37766 38255 38376 38267 38215 38426 38293 38438 38151 38257 37906 37851 37948 37756 38137 37972 38242 38117 38190 38025 38559 38212 38029 37727 37727 37515 37579 37559 37979 37791 38057 37960 38020 37792 37651 37247 37758 37557 37842 38314 38553 38328 38709 38604 38437 38403 38365 38462 37726 38308 37718 38306 38329 39028 38426 38960 39372 38867 39116 39942 40230 39116 39413 38304 39328 38732 39543 39261 39430 39523 40187 39904 39666 39758 39385 38619 38944 38495 38948 38679 39423 39290 39257 39359 39361 39156 39530 39012 39016 38779 38734 39041 39199 38863 39115 38761 39790 39379 39866 39649 39289 39326 39028 39254 39422 39248 39541 39605 39531 40074 39961 40227 40542 39973 39854 39576 38952 39848 39614 40078 39787 39872 39799 39366 39779 39595 39968 39429 39462 39302 39126 39444 39822 39474 40023 40173 39864 40095 40247 40291 39928 39440 39279 39033 38952 39507 39449 39626 39829 39755 39729 39673 39891 39999 39311 39769 39430 39596 39649 39465 39697 39561 39083 39393 39216 39286 39264 39060 39108 38540 38876 38330 39091 38985 38856 39232 39149 39156 39340 39265 39550 39044 38713 39110 38871 39166 39284 39473 39598 39607 39927 39640 39513 39615 39331 39266 39027 39105 39132 39222 39269 39180 39667 39544 40146 39932 40790 40451 40491 39844 40483 39744 40236 40440 40017 40389 40397 40243 40255 40012 40204 39819 39446 39340 39314 39515 39688 39554 39764 39612 39883 39689 39862 39619 39832 39628 39289 39453 39451 39548 39505 39714 39830 39933 40374 40027 40882 40727 40530 40311 40328 40606 40142 40154 40050 40455 40160 40076 40138 40056 40660 40289 39825 39656 39772 39607 39714 39584 40611 40147 40377 40543 40112 40386 40189 40242 39507 39530 39687 39696 39470 39740 40102 39896 40300 40247 40289 40688 40412 40107 40084 40517 40159 39996 40090 40271 40350 40508 40728 40778 40688 40829 40911 40377 39896 40147 40060 39568 39897 39785 39745 39706 39584 39520 39920 39973 39512 39261 39870 39431 39639 39636 39694 39756 39917 40228 40129 40076 40239 40054 40229 39898 39566 39565 39448 39469 39262 39460 39313 39610 39715 39825 39861 39732 39525 39083 39104 38682 38759 38548 38647 38631 38816 39015 38930 38926 38906 39365 39338 39896 40089 40361 40110 40714 41150 40594 41175 40878 41577 40873 41510 41264 40565 40271 39904 39820 39807 39908 39857 39702 39708 39686 39862 39833 39643 39299 38996 38835 38812 38742 38630 38977 38829 39061 38936 38760 39108 39044 38763 39025 39106 38763 39252 39256 39618 39281 39737 40007 39770 40272 39931 40246 39760 39567 39369 39205 39573 39377 39539 39507 39508 39630 39976 39953 40083 40259 40129 39979 39979 39863 39612 39914 39965 39933 39622 39945 39627 39596 39750 39835 39355 39651 39117 39802 39713 39951 39795 40025 39724 40178 40102 40261 39996 40552 39964 40152 40020 40039 40132 40133 39927 40290 40608 40367 40668 40545 40449 40489 40006 39640 39568 39204 39057 39032 39023 38924 38981 39037 39260 39484 39308 39406 39486 39073 39396 39322 39019 39575 39341 39789 39982 39800 40267 40278 39644 40116 39979 39807 39990 40098 40076 39912 39829 39809 39604 39451 39334 39314 38945 38710 38592 38389 38755 38773 39242 39377 39490 39750 39635 39451 39194 39669 39400 39062 38915 39293 39200 39211 39886 40970 41945 41859 41697 41674 42972 43802 43890 43722 43393 43111 42689 42129 41952 41800 41718 41358 41010 40793 40636 40254 39860 39616 39461 39296 39145 39046 39055 39009 39017 39201 39295 39508 39742 39712 39514 39601 39643 39680 39441 39441 39364 39401 39361 39355 39512 39396 39279 39079 38990 38925 38921 39027 39307 39197 39114 39340 39310 39434 39528 39538 39383 38949 38878 38954 39367 40001 40812 41654 42332 42635 42994 43284 43697 44182 44594 45207 45895 46716 47151 46294 45807 45081 44386 43774 43409 42822 42511 42370 41931 41396 40860 40834 40773 40476 40521 40472 40052 40258 40309 40329 40587 40560 40408 40635 40528 40604 40794 40633 40936 40516 40293 39829 40540 40321 39971 39910 39534 39201 38856 38926 38827 39118 38846 38932 38764 39106 38627 39112 38929 38390 38343 37970 38580 38433 38806 38944 40055 40813 40650 40083 39796 39388 39487 38732 38681 38635 38595 38622 38430 38766 39065 39447 39597 39708 39637 39407 38826 39831 40661 40835 41518 42139 41322 40880 40401 39757 39110 38926 38555 38157 38106 37887 37674 37571 37822 37744 37962 37949 37801 37735 37587 37905 37689 37519 37432 37721 37567 37613 37636 37760 38035 38148 38382 38648 38759 38936 38743 38475 38419 38284 38309 38459 38333 38264 