4283 7584 33105 33039 32913 31753 30458 27992 23839 21831 20610 24414 28157 29666 30342 31659 31094 30429 28947 27075 25665 48106 48113 48108 48109 48104 48106 48108 48110 48107 48108 48109 48109 48102 48110 48108 48111 48106 48107 48109 48105 48100 48109 48104 48103 48114 48107 48107 48111 48109 48109 48108 48104 48106 48108 48104 48106 48108 48107 44574 44586 44582 44582 44604 44609 44532 44420 44325 44256 44177 44117 44064 44032 43964 43928 43895 43878 43875 43867 43852 43853 43842 43827 43843 43822 43848 43800 43708 43578 43461 43382 43313 43287 43254 43208 43167 43140 43101 43087 43060 43033 43025 43020 43022 43028 43044 43052 43047 42946 42835 42732 42659 42590 42565 42542 42496 42477 42438 42422 42395 42382 42374 42377 42371 42346 42333 42310 42297 42229 42022 41727 41409 41076 40752 40427 40087 39743 39438 39159 38882 38670 38439 38212 37961 37718 37520 37397 37479 37641 37693 37658 37648 37686 37740 37805 37867 37915 37986 38038 38096 38137 38190 38230 38274 38314 38371 38386 38442 38464 38439 38366 38293 38220 38196 38172 38180 38154 38147 38155 38158 38177 38204 38227 38258 38308 38357 38396 38412 38346 38253 38170 38102 38051 38028 38014 38028 38003 38000 37996 37995 37995 38004 38015 38035 38052 38079 38118 38074 37982 37899 37849 37809 37792 37812 37808 37826 37847 37854 37882 37914 37960 37991 38043 38117 38168 38197 38136 38093 38044 38005 38014 38020 38031 38065 38090 38100 38132 38172 38214 38250 38304 38336 38350 38370 38303 38204 38129 38088 38057 38049 38052 38062 38065 38056 38102 38138 38135 38162 38195 38198 38211 38186 38053 37882 37741 37688 37619 37623 37594 37541 37469 37324 37135 36871 36579 36354 36195 36093 36015 35929 35789 35527 35270 35070 34918 34699 34467 34344 34217 34063 33907 33777 33684 33632 33562 33439 33316 33189 32966 32518 32100 31851 31764 31701 31678 31693 31671 31668 31629 31650 31722 31753 31709 31701 31789 31789 31638 31389 31219 31146 31081 31013 30946 30775 30525 30313 30261 30333 30440 30585 30700 30804 30889 30918 30885 30791 30669 30571 30572 30682 30705 30703 30672 30667 30644 30591 30540 30547 30620 30526 30452 30460 30445 30435 30478 30570 30618 30624 30623 30627 30591 30588 30660 30766 30820 30869 30868 30882 30846 30724 30517 30480 30487 30382 30359 30444 30551 30728 30896 31026 31132 31172 31149 31079 30982 30973 31017 30989 30947 30857 30735 30752 30779 30757 30854 31048 31169 31090 31026 31046 31092 31145 31252 31379 31493 31462 31360 31276 31139 31080 31139 31200 31203 31182 31179 31194 31207 31190 31160 31190 31292 31373 31269 31139 31109 31110 31166 31259 31412 31528 31575 31590 31608 31619 31556 31546 31593 31652 31702 31683 31582 31520 31512 31501 31488 31506 31517 31434 31354 31339 31401 31498 31643 31860 32034 32078 32012 31959 31891 31832 31837 31894 31951 31976 31905 31855 31884 31922 31907 31898 31931 31947 31898 31861 31861 31853 31916 32045 32193 32279 32298 32303 32246 32161 32119 32118 32110 32094 32137 32191 32203 32241 32203 32122 32056 32088 32102 32084 32133 32162 32200 32249 32359 32449 32562 32608 32637 32624 32514 32493 32465 32401 32354 32314 32285 32284 32308 32351 32424 32556 32671 32740 32774 32880 32965 33043 33039 33025 33074 33122 33177 33222 33261 33297 33318 33310 33291 33236 33196 33174 33133 33053 33038 33029 32961 32833 32744 32684 32739 32962 33037 33157 33161 33204 33243 33123 32978 32899 32825 32797 32857 32931 32997 32989 32931 32877 32875 32922 32906 32881 32883 32845 32891 32933 33030 33241 33294 33459 33395 33511 33607 33583 33505 33228 33095 33081 33124 33298 33464 33507 33430 33430 33454 33493 33511 33531 33539 33521 33455 33421 33386 33373 33404 33443 33473 33499 33523 33552 33561 33582 33589 33602 33605 33620 33665 33688 33688 33663 33623 33643 33659 33674 33668 33671 33685 33677 33697 33741 33778 33801 33869 33943 34007 34079 34218 34291 34248 34235 34170 34130 34001 33919 33928 33934 33943 33947 33959 33952 33980 33976 33941 33887 33918 34067 34114 34094 34088 34110 34117 34184 34282 34362 34370 34362 34394 34371 34233 34038 34001 34083 34210 34269 34301 34374 34457 34465 34359 34251 34239 34231 34245 34285 34296 34330 34360 34340 34304 34255 34241 34271 34326 34388 34493 34590 34640 34661 34686 34671 34506 34400 34404 34408 34414 34364 34290 34233 34195 34163 34176 34156 34140 34115 34133 34147 34150 34119 34112 34128 34140 34116 34101 34071 34053 34052 34031 34037 34081 34132 34152 34194 34234 34263 34265 34254 34252 34252 34181 34108 34059 34025 34006 33938 33910 33889 33889 33894 33892 33976 34114 34164 34204 34225 34274 34347 34365 34406 34470 34471 34362 34248 34156 34038 33981 33959 33962 33958 33939 33895 33903 33905 33850 33824 33857 33903 33940 33980 34130 34231 34249 34235 34256 34281 34203 34089 34086 34114 34101 34025 33938 33897 33870 33846 33796 33773 33796 33809 33836 33896 33979 34030 34112 34144 34141 34196 34193 34168 34130 34106 34063 34055 34059 34056 34035 34041 34061 34044 33999 33975 33982 34031 34005 34001 34063 34089 34102 34111 34153 34248 34301 34343 34365 34374 34382 34377 34382 34381 34355 34317 34276 34229 34160 34114 34127 34150 34169 34184 34210 34218 34234 34243 34267 34321 34331 34342 34338 34325 34325 34326 34322 34314 34319 34315 34324 34315 34277 34253 34266 34280 34271 34268 34281 34270 34273 34246 34235 34247 34286 34359 34454 34502 34505 34506 34506 34499 34480 34432 34421 34359 34301 34250 34244 34285 34310 34338 34413 34431 34452 34456 34466 34470 34454 34450 34435 34394 34370 34371 34341 34308 34294 34277 34292 34308 34246 34208 34201 34227 34225 34224 34239 34283 34285 34277 34259 34263 34253 34233 34252 34275 34285 34283 34286 34300 34246 34173 34087 34058 34023 33955 33887 33876 33899 33941 33998 34088 34160 34216 34239 34251 34256 34256 34213 34191 34175 34165 34168 34175 34168 34143 34085 34044 34064 34079 34047 34005 34013 33985 33931 33910 33906 33932 33943 33945 33940 33915 33916 33936 33947 33990 33980 33999 34014 34033 33996 33912 33836 33779 33775 33736 33695 33655 33670 33685 33720 33777 33900 34011 34057 34076 34089 34100 34053 34028 34016 34028 34034 34026 34026 34017 34020 33979 33987 33995 33972 33958 33934 33971 33977 33952 33941 33994 34037 34077 34091 34086 34104 34149 34150 34186 34223 34249 34269 34302 34320 34300 34248 34189 34132 34090 34053 34004 33993 34018 34030 34074 34153 34248 34307 34333 34369 34374 34446 34462 34431 34406 34395 34384 34360 34356 34344 34307 34275 34276 34276 34248 34201 34204 34191 34241 34240 34220 34195 34204 34194 34175 34174 34175 34192 34199 34212 34229 34240 34247 34251 34248 34229 34219 34193 34153 34073 33946 33857 33857 33885 33909 33940 34058 34135 34137 34126 34127 34156 34187 34218 34228 34281 34263 34210 34149 34100 34035 33987 33958 33978 33963 33932 33906 33924 33919 33966 34004 34051 34101 34140 34174 34149 34099 34057 34039 34035 34041 34048 34059 34051 34048 34022 33987 33990 34004 34005 33963 33937 33948 33968 33935 33892 33913 33944 33971 33997 34027 34048 34093 34148 34193 34249 34270 34281 34310 34331 34309 34308 34267 34232 34187 34126 34058 34014 34029 34075 34118 34158 34270 34338 34378 34428 34430 34502 34544 34581 34552 34493 34460 34445 34440 34421 34376 34378 34391 34402 34390 34363 34352 34398 34424 34454 34505 34518 34510 34474 34438 34425 34413 34412 34449 34493 34506 34524 34535 34546 34555 34544 34523 34507 34528 34497 34395 34300 34288 34308 34312 34345 34381 34410 34411 34408 34409 34413 34441 34486 34530 34557 34581 34575 34524 34460 34402 34340 34320 34305 34304 34260 34233 34239 34261 34269 34324 34385 34404 34439 34455 34409 34362 34321 34343 34341 34365 34361 34394 34387 34384 34349 34309 34290 34307 34321 34272 34252 34203 34168 34153 34136 34175 34212 34224 34244 34246 34221 34246 34318 34365 34397 34423 34418 34454 34470 34453 34388 34299 34265 34246 34193 34133 34099 34100 34116 34151 34198 34219 34276 34319 34353 34371 34418 34428 34419 34423 34461 34505 34511 34465 34435 34416 34420 34399 34417 34427 34401 34343 34312 34363 34380 34374 34362 34383 34405 34435 34441 34464 34501 34547 34569 34629 34657 34666 34660 34641 34633 34628 34557 34512 34431 34370 34304 34212 34175 34178 34218 34249 34272 34344 34384 34421 34461 34519 34571 34651 34701 34716 34692 34648 34608 34559 34565 34580 34560 34540 34521 34532 34527 34485 34439 34440 34495 34526 34533 34513 34483 34471 34450 34441 34461 34468 34500 34560 34648 34706 34701 34669 34660 34665 34671 34668 34591 34542 34456 34383 34313 34279 34298 34320 34349 34359 34384 34417 34422 34418 34417 34434 34485 34542 34551 34552 34497 34442 34417 34407 34396 34393 34358 34343 34323 34280 34224 34171 34176 34238 34257 34306 34375 34420 34396 34357 34329 34341 34371 34410 34415 34426 34437 34430 34444 34457 34488 34489 34479 34482 34495 34420 34334 34274 34271 34281 34315 34355 34373 34440 34460 34496 34505 34515 34509 34514 34529 34531 34528 34495 34422 34398 34409 34391 34374 34381 34402 34397 34372 34346 34348 34366 34408 34468 34505 34540 34554 34553 34561 34632 34566 34470 34358 34303 34305 34317 34315 34335 34395 34440 34500 34534 34575 34600 34611 34587 34521 34422 34362 34319 34347 34363 34375 34387 34406 34421 34464 34484 34496 34523 34534 34539 34523 34468 34423 34367 34354 34326 34312 34286 34253 34246 34249 34208 34168 34153 34176 34223 34256 34338 34451 34412 34331 34297 34281 34283 34294 34293 34326 34323 34338 34337 34348 34365 34355 34353 34367 34368 34263 34118 34069 34061 34075 34127 34209 34283 34313 34309 34308 34323 34355 34371 34402 34423 34432 34413 34337 34271 34212 34147 34126 34140 34164 34114 34096 34095 34138 34213 34289 34374 34470 34527 34590 34565 34460 34425 34371 34321 34346 34361 34361 34395 34392 34361 34342 34364 34408 34421 34414 34421 34397 34370 34411 34503 34589 34665 34638 34645 34639 34644 34678 34696 34651 34669 34690 34715 34749 34729 34654 34569 34559 34582 34564 34527 34531 34552 34578 34611 34715 34841 34884 34900 34907 34907 34853 34791 34692 34675 34669 34653 34633 34647 34662 34656 34659 34660 34695 34688 34683 34660 34634 34594 34553 34571 34649 34731 34783 34795 34739 34756 34810 34800 34781 34759 34750 34759 34779 34736 34629 34563 34517 34502 34485 34439 34405 34408 34437 34469 34528 34627 34741 34802 34830 34790 34743 34698 34638 34608 34565 34558 34542 34532 34494 34466 34441 34435 34463 34478 34465 34408 34318 34278 34270 34310 34421 34560 34583 34551 34540 34540 34594 34621 34641 34658 34688 34718 34670 34561 34446 34403 34347 34331 34369 34349 34309 34246 34259 34299 34361 34456 34565 34661 34609 34553 34481 34465 34479 34490 34499 34529 34545 34526 34517 34509 34477 34462 34474 34494 34481 34371 34250 34214 34222 34254 34307 34402 34468 34441 34432 34430 34446 34485 34538 34609 34665 34661 34580 34525 34479 34434 34400 34386 34412 34385 34340 34315 34307 34333 34388 34483 34614 34619 34563 34488 34436 34464 34483 34498 34562 34608 34595 34578 34560 34569 34583 34600 34627 34608 34564 34473 34428 34406 34462 34576 34684 34720 34648 34608 34604 34656 34688 34690 34660 34713 34721 34742 34712 34643 34577 34531 34502 34450 34392 34364 34395 34437 34471 34577 34689 34670 34698 34709 34703 34754 34721 34662 34632 34624 34600 34601 34612 34584 34563 34561 34564 34538 34497 34469 34509 34538 34605 34630 34645 34584 34564 34539 34529 34573 34575 34602 34648 34660 34678 34693 34699 34708 34695 34703 34684 34594 34475 34379 34365 34388 34421 34492 34586 34642 34601 34592 34592 34637 34668 34691 34730 34749 34703 34639 34596 34564 34531 34500 34507 34512 34470 34429 34417 34444 34445 34474 34526 34591 34630 34611 34583 34548 34537 34539 34564 34613 34656 34642 34655 34643 34620 34606 34598 34608 34613 34566 34478 34383 34369 34362 34371 34420 34495 34499 34513 34520 34536 34562 34600 34634 34677 34714 34732 34696 34617 34545 34466 34437 34429 34399 34335 34289 34297 34308 34331 34364 34437 34491 34498 34538 34529 34498 34449 34429 34458 34475 34466 34465 34471 34458 34424 34408 34408 34389 34355 34300 34294 34299 34274 34236 34244 34288 34275 34300 34313 34308 34353 34360 34401 34427 34450 34469 34483 34477 34480 34426 34347 34275 34206 34132 34060 34067 34073 34094 34140 34207 34266 34305 34316 34330 34360 34395 34435 34440 34410 34369 34355 34342 34326 34313 34299 34289 34282 34253 34212 34186 34199 34235 34270 34315 34348 34311 34301 34272 34273 34284 34295 34306 34366 34393 34385 34400 34391 34382 34396 34388 34400 34367 34290 34174 34093 34072 34112 34131 34179 34284 34339 34362 34401 34411 34451 34486 34516 34548 34569 34551 34486 34458 34420 34402 34382 34367 34390 34380 34355 34299 34305 34322 34362 34402 34472 34566 34542 34483 34429 34414 34430 34414 34441 34483 34512 34525 34505 34522 34510 34516 34499 34500 34504 34467 34353 34268 34246 34245 34275 34339 34429 34459 34454 34476 34466 34496 34520 34567 34574 34615 34627 34575 34510 34442 34394 34349 34356 34350 34318 34282 34271 34296 34334 34385 34473 34531 34593 34610 34578 34538 34492 34472 34477 34494 34505 34525 34525 34520 34502 34480 34478 34496 34485 34465 34450 34431 34392 34336 34359 34394 34419 34436 34447 34452 34461 34492 34504 34519 34553 34578 34590 34615 34623 34599 34530 34464 34417 34359 34278 34226 34209 34254 34298 34384 34511 34655 34673 34666 34688 34727 34796 34804 34726 34686 34681 34675 34679 34681 34669 34666 34659 34666 34661 34624 34589 34610 34670 34713 34758 34795 34782 34704 34708 34680 34691 34705 34703 34721 34722 34734 34720 34736 34763 34731 34732 34746 34742 34663 34555 34504 34488 34502 34532 34600 34626 34619 34622 34617 34615 34643 34641 34685 34702 34726 34707 34650 34576 34514 34475 34471 34441 34394 34373 34354 34378 34424 34487 34556 34599 34634 34689 34724 34722 34695 34638 34656 34667 34638 34639 34627 34629 34599 34568 34583 34567 34518 34473 34484 34513 34539 34507 34496 34522 34542 34568 34575 34590 34621 34624 34621 34662 34664 34665 34660 34657 34649 34634 34609 34556 34478 34385 34326 34314 34337 34378 34451 34524 34559 34587 34604 34620 34661 34695 34724 34729 34688 34644 34600 34583 34565 34538 34527 34516 34519 34485 34458 34466 34497 34536 34566 34594 34574 34507 34467 34436 34418 34395 34412 34449 34485 34498 34516 34537 34528 34526 34508 34500 34483 34394 34281 34188 34178 34190 34198 34249 34312 34348 34351 34362 34360 34401 34420 34448 34484 34494 34425 34355 34315 34279 34253 34226 34224 34221 34186 34131 34113 34126 34153 34187 34231 34287 34307 34272 34201 34178 34169 34187 34202 34242 34263 34272 34297 34292 34301 34279 34246 34252 34259 34205 34098 33990 33960 33958 33979 34034 34096 34146 34187 34198 34202 34223 34237 34296 34322 34348 34332 34253 34212 34160 34111 34088 34087 34089 34050 34019 33995 33995 34028 34056 34116 34212 34266 34274 34226 34181 34174 34174 34195 34226 34265 34277 34278 34300 34280 34271 34253 34267 34271 34267 34230 34156 34095 34061 34049 34068 34147 34224 34261 34292 34297 34327 34351 34387 34438 34499 34530 34561 34514 34449 34384 34316 34283 34281 34283 34249 34213 34175 34214 34252 34393 34680 34932 35061 35052 34937 34747 34637 34572 34528 34504 34513 34546 34560 34577 34616 34603 34601 34600 34648 34661 34640 34644 34660 34640 34619 34621 34658 34678 34667 34668 34656 34660 34677 34710 34735 34761 34794 34817 34835 34846 34793 34706 34614 34559 34523 34489 34491 34472 34489 34509 34538 34576 34640 34663 34665 34696 34712 34739 34744 34705 34685 34669 34643 34655 34666 34674 34664 34653 34644 34662 34645 34643 34636 34635 34660 34710 34735 34702 34677 34672 34667 34665 34647 34631 34598 34621 34639 34657 34666 34710 34713 34737 34715 34710 34718 34704 34646 34581 34540 34523 34535 34578 34673 34777 34864 34877 34906 34944 35007 35016 35019 35003 35004 34986 34925 34867 34839 34832 34814 34829 34838 34828 34812 34774 34747 34763 34775 34819 34878 34963 35001 34979 34907 34868 34848 34840 34854 34875 34903 34907 34905 34885 34874 34856 34839 34844 34833 34795 34745 34668 34593 34543 34503 34515 34547 34578 34631 34669 34665 34684 34721 34755 34807 34818 34821 34833 34841 34799 34739 34633 34563 34521 34497 34473 34430 34410 34424 34420 34446 34460 34523 34582 34612 34649 34660 34639 34622 34612 34643 34682 34696 34685 34704 34709 34699 34677 34656 34665 34671 34648 34644 34617 34557 34508 34468 34458 34498 34561 34570 34577 34589 34587 34605 34650 34701 34748 34764 34776 34784 34719 34633 34552 34504 34489 34457 34426 34378 34372 34408 34440 34472 34511 34547 34559 34545 34525 34459 34407 34374 34356 34379 34420 34419 34432 34420 34394 34378 34354 34342 34364 34357 34328 34246 34186 34173 34143 34180 34231 34289 34337 34364 34388 34406 34416 34458 34495 34542 34570 34528 34493 34430 34419 34388 34356 34332 34321 34313 34287 34259 34250 34293 34317 34353 34414 34448 34430 34404 34397 34390 34367 34361 34349 34344 34361 34378 34401 34410 34430 34431 34431 34420 34402 34332 34267 34215 34174 34176 34174 34207 34237 34282 34348 34443 34499 34540 34548 34537 34528 34518 34502 34522 34508 34493 34475 34490 34486 34488 34473 34475 34473 34453 34414 34394 34401 34412 34462 34498 34525 34547 34565 34585 34588 34596 34594 34573 34598 34632 34670 34713 34738 34780 34855 34916 34983 35046 35057 34989 34941 34901 34863 34874 34869 34882 34872 34875 34898 34893 34924 34936 34926 34952 34947 34925 34905 34857 34839 34828 34824 34806 34787 34783 34759 34741 34706 34687 34681 34706 34714 34738 34783 34771 34734 34714 34673 34661 34653 34640 34643 34667 34666 34674 34673 34674 34683 34656 34640 34646 34644 34546 34442 34361 34341 34343 34376 34424 34483 34522 34538 34542 34537 34552 34568 34570 34614 34631 34612 34560 34487 34424 34394 34352 34340 34314 34294 34247 34246 34268 34302 34354 34417 34480 34519 34531 34496 34414 34415 34392 34388 34395 34424 34422 34406 34388 34376 34342 34296 34288 34275 34217 34136 34000 33897 33842 33852 33993 34139 34580 34864 35080 35289 35497 35701 35917 36117 36271 36419 36543 36666 36769 36856 36945 37035 37147 37235 37321 37394 37473 37554 37607 37675 37770 37850 37927 37991 38079 38148 38191 38195 38207 38207 38193 38231 38270 38321 38351 38437 38493 38563 38623 38699 38737 38803 38811 38824 38844 38843 38876 38905 38964 39016 39057 39074 39022 38943 38888 38891 38929 38966 38960 38891 38775 38576 38366 38186 38058 37894 37677 37511 37379 37291 37234 37183 37173 37152 37141 37114 37082 37024 36890 36683 36559 36497 36438 36384 36329 36268 36173 36060 35933 35845 35817 35713 35581 35453 35300 35216 35119 35035 34971 34925 34865 34792 34731 34755 34800 34834 34910 34957 35047 35102 35117 35141 35099 34951 34802 34713 34648 34562 34464 34403 34399 34436 34430 34432 34466 34488 34493 34499 34527 34554 34546 34529 34556 34585 34611 34639 34623 34592 34543 34542 34575 34597 34537 34505 34488 34541 34595 34612 34663 34684 34647 34639 34604 34572 34595 34652 34739 34828 34902 34924 34943 34957 34958 34909 34929 34925 34832 34699 34580 34588 34635 34673 34700 34839 34908 34957 34966 34941 34971 35002 35051 35147 35210 35215 35148 35120 35076 34992 34958 34980 35011 35010 34970 34956 34972 35014 35047 35111 35193 35249 35233 35185 35181 35187 35209 35261 35284 35336 35338 35324 35320 35292 35302 35310 35319 35331 35315 35274 35204 35176 35156 35160 35190 35259 35290 35317 35362 35338 35376 35413 35459 35527 35545 35532 35491 35426 35338 35296 35262 35240 35214 35151 35119 35074 35110 35123 35179 35240 35286 35320 35322 35263 35187 35166 35152 35138 35153 35141 35144 35128 35095 35063 35039 35044 35051 35032 34997 34977 34954 34901 34864 34860 34885 34909 34912 34922 34932 34950 34975 35039 35116 35120 35148 35186 35176 35114 35031 34966 34930 34889 34847 34796 34787 34819 34849 34863 34914 34968 34983 35009 35016 34997 34939 34920 34911 34931 34913 34908 34924 34914 34905 34876 34864 34881 34873 34830 34799 34816 34806 34749 34750 34805 34824 34820 34835 34841 34845 34871 34916 34981 35041 35050 35093 35117 35139 35088 35011 34950 34920 34876 34827 34827 34850 34879 34898 34965 35054 35119 35144 35171 35204 35214 35186 35161 35161 35159 35161 35169 35173 35182 35172 35134 35121 35140 35136 35102 35097 35107 35137 35121 35138 35188 35262 35252 35247 35248 35238 35243 35256 35265 35281 35291 35319 35355 35374 35387 35339 35259 35216 35158 35102 35052 35052 35087 35133 35192 35236 35301 35343 35351 35361 35370 35388 35406 35378 35313 35278 35258 35243 35244 35250 35230 35202 35201 35206 35198 35161 35158 35198 35241 35287 35334 35348 35346 35295 35285 35254 35264 35266 35283 35286 35314 35323 35324 35305 35295 35290 35291 35272 35213 35121 34997 34951 34958 35029 35081 35112 35153 35183 35193 35228 35244 35244 35250 35261 35279 35198 35233 35120 35284 35303 35252 35154 35009 34832 34712 34695 34699 34700 34760 34882 35019 35165 35289 35372 35366 35319 35283 35275 35298 35305 35357 35403 35399 35402 35399 35464 35504 35493 35458 35474 35468 35364 35232 35136 35141 35178 35209 35260 35282 35266 35270 35259 35266 35262 35260 35297 35319 35353 35342 35275 35248 35233 35214 35198 35186 35197 35159 35109 35109 35147 35215 35284 35350 35420 35439 35493 35483 35430 35417 35425 35351 35309 35302 35280 35280 35274 35265 35288 35350 35363 35357 35315 35295 35289 35266 35219 35263 35344 35429 35430 35448 35411 35419 35404 35391 35361 35374 35345 35336 35377 35399 35350 35274 35219 35203 35170 35088 35101 35166 35192 35251 35320 35427 35490 35545 35555 35556 35617 35648 35606 35535 35492 35483 35470 35488 35511 35493 35503 35525 35517 35493 35442 35423 35451 35492 35507 35479 35474 35475 35491 35533 35554 35625 35706 35790 35910 35982 36009 35898 35800 35759 35743 35764 35717 35644 35512 35422 35415 35442 35482 35490 35538 35572 35564 35564 35574 35600 35649 35705 35778 35767 35707 35597 35539 35534 35519 35524 35525 35514 35504 35447 35379 35354 35402 35465 35523 35566 35612 35532 35455 35462 35423 35436 35457 35517 35576 35569 35554 35552 35565 35553 35556 35572 35560 35505 35380 35282 35237 35253 35304 35356 35437 35501 35475 35481 35489 35482 35502 35519 35544 35520 35442 35378 35378 35372 35364 35355 35361 35369 35361 35322 35301 35293 35322 35370 35479 35591 35607 35507 35492 35501 35429 35371 35336 35335 35368 35376 35382 35417 35466 35484 35499 35492 35477 35421 35313 35252 35238 35283 35329 35430 35563 35701 35756 35740 35684 35652 35642 35690 35633 35451 35388 35365 35331 35323 35299 35289 35296 35286 35282 35245 35228 35209 35255 35303 35353 35392 35367 35350 35361 35355 35341 35335 35340 35319 35282 35247 35252 35301 35314 35278 35280 35313 35294 35208 35136 35106 35121 35149 35193 35237 35307 35306 35333 35366 35398 35391 35400 35448 35467 35355 35289 35277 35281 35286 35259 35243 35239 35212 35146 35115 35139 35205 35282 35351 35448 35502 35402 35326 35313 35274 35293 35308 35351 35362 35350 35364 35392 35427 35452 35444 35457 35485 35495 35413 35303 35214 35203 35222 35268 35320 35376 35395 35451 35471 35480 35513 35577 35623 35651 35659 35698 35642 35598 35565 35558 35535 35549 35566 35535 35510 35464 35495 35537 35574 35667 35737 35814 35881 35942 35983 35909 35851 35820 35841 35759 35747 35752 35735 35730 35747 35754 35774 35831 35870 35900 35939 35933 35881 35879 35837 35822 35823 35850 35876 35923 35913 35925 35941 35941 35925 35932 35957 35966 35980 35939 35909 35881 35861 35865 35868 35900 35916 35899 35911 35904 35882 35864 35828 35835 35886 35938 35990 35999 35962 35927 35930 35929 35927 35917 35892 35893 35895 35886 35895 35925 35951 35956 35963 35952 35887 35752 35655 35608 35601 35639 35677 35685 35704 35713 35723 35726 35751 35769 35769 35773 35774 35719 35652 35614 35601 35593 35596 35589 35577 35518 35442 35421 35442 35512 35562 35627 35693 35796 35736 35602 35533 35473 35470 35420 35425 35459 35473 35491 35523 35524 35531 35545 35581 35589 35512 35414 35341 35362 35378 35440 35498 35559 35554 35564 35551 35553 35546 35564 35592 35602 35611 35597 35556 35515 35490 35449 35445 35441 35428 35379 35365 35375 35430 35521 35592 35669 35682 35728 35659 35588 35566 35570 35597 35568 35567 35559 35593 35613 35616 35631 35661 35691 35692 35683 35686 35668 35651 35654 35685 35729 35775 35767 35754 35725 35743 35733 35724 35728 35769 35799 35820 35840 35833 35803 35738 35720 35720 35714 35679 35665 35662 35685 35697 35729 35794 35840 35860 35895 35899 35851 35833 35804 35797 35798 35795 35784 35788 35790 35788 35789 35793 35807 35813 35781 35764 35788 35786 35773 35799 35862 35858 35860 35883 35873 35903 35921 35940 35981 35995 36012 36040 36024 36061 36052 35996 35965 35912 35847 35820 35820 35835 35862 35902 35936 35968 35981 36005 35999 36024 36056 36082 36072 36024 35990 35982 35994 35969 35952 35954 35958 35935 35899 35870 35904 35936 35958 35969 35963 35905 35858 35843 35845 35828 35852 35889 35902 35894 35874 35854 35829 35842 35872 35886 35912 35909 35847 35739 35679 35693 35721 35710 35706 35700 35698 35693 35700 35725 35739 35758 35806 35830 35848 35801 35736 35711 35705 35694 35685 35681 35684 35635 35569 35542 35564 35584 35600 35601 35639 35629 35580 35587 35632 35796 35876 35945 36047 36097 35913 35786 35793 35780 35760 35774 35772 35737 35639 35539 35518 35471 35459 35471 35487 35513 35495 35490 35491 35492 35512 35546 35573 35583 35578 35519 35470 35415 35361 35347 35354 35327 35248 35212 35231 35251 35281 35341 35431 35450 35430 35381 35330 35311 35285 35322 35340 35336 35330 35332 35354 35343 35350 35354 35353 35357 35312 35212 35165 35157 35147 35165 35227 35291 35337 35381 35379 35427 35455 35516 35573 35652 35669 35597 35528 35472 35450 35407 35401 35410 35386 35360 35358 35379 35403 35443 35471 35514 35504 35453 35360 35333 35322 35346 35429 35478 35455 35439 35463 35465 35485 35485 35496 35529 35541 35435 35354 35340 35337 35332 35351 35395 35391 35385 35372 35367 35398 35412 35458 35477 35427 35354 35321 35312 35305 35292 35291 35306 35306 35261 35229 35225 35250 35288 35323 35337 35343 35304 35284 35254 35247 35232 35210 35250 35274 35273 35280 35314 35319 35348 35331 35265 35190 35119 35061 35028 35076 35114 35142 35197 35271 35311 35334 35362 35375 35386 35327 35304 35332 35309 35314 35318 35330 35337 35324 35314 35335 35371 35354 35355 35354 35333 35309 35305 35357 35365 35381 35363 35380 35402 35394 35404 35390 35413 35424 35441 35449 35413 35351 35325 35295 35293 35316 35319 35310 35305 35322 35329 35350 35420 35461 35502 35518 35478 35455 35461 35488 35550 35638 35899 36137 36293 36352 36234 36068 36047 36080 36086 36011 35932 35879 35878 35877 35895 35906 35899 35889 35902 35882 35881 35871 35903 35954 35954 35917 35862 35826 35811 35809 35775 35778 35788 35779 35757 35760 35777 35784 35795 35836 35848 35810 35772 35746 35777 35764 35771 35773 35764 35754 35758 35770 35771 35772 35756 35771 35781 35676 35595 35553 35527 35526 35528 35551 35557 35542 35553 35544 35589 35588 35605 35617 35615 35566 35503 35472 35434 35407 35381 35386 35366 35326 35286 35301 35318 35344 35360 35399 35394 35343 35279 35242 35214 35194 35214 35241 35235 35239 35253 35252 35245 35241 35225 35254 35253 35199 35099 35053 35054 35070 35077 35115 35180 35221 35253 35267 35290 35309 35339 35373 35404 35390 35352 35322 35296 35262 35256 35239 35247 35257 35206 35170 35174 35207 35240 35277 35338 35368 35345 35336 35333 35327 35313 35331 35375 35375 35367 35372 35385 35396 35381 35378 35384 35373 35273 35181 35150 35148 35155 35196 35244 35291 35323 35367 35387 35419 35446 35476 35523 35538 35522 35484 35444 35404 35363 35344 35347 35362 35370 35336 35315 35327 35339 35368 35401 35436 35421 35407 35385 35357 35349 35343 35360 35373 35400 35401 35427 35417 35406 35415 35426 35423 35424 35402 35306 35252 35232 35238 35255 35267 35295 35309 35337 35344 35336 35346 35368 35399 35448 35476 35465 35441 35413 35371 35351 35331 35329 35329 35324 35291 35270 35300 35315 35323 35342 35397 35445 35475 35456 35430 35417 35437 35427 35439 35433 35441 35437 35430 35410 35378 35373 35371 35394 35391 35315 35224 35159 35153 35200 35219 35319 35402 35442 35515 35531 35561 35588 35609 35624 35673 35664 35678 35625 35577 35508 35469 35437 35440 35418 35373 35332 35346 35363 35388 35440 35481 35553 35586 35615 35620 35590 35544 35538 35559 35576 35588 35588 35600 35602 35603 35594 35592 35593 35561 35526 35505 35484 35433 35399 35429 35460 35493 35500 35529 35538 35562 35549 35568 35600 35616 35637 35643 35655 35629 35574 35486 35445 35433 35379 35332 35312 35306 35315 35343 35351 35411 35460 35491 35524 35577 35616 35614 35584 35585 35582 35574 35585 35603 35619 35613 35596 35574 35556 35523 35531 35534 35519 35541 35473 35416 35392 35378 35376 35399 35409 35438 35474 35496 35516 35543 35555 35598 35600 35624 35649 35645 35616 35576 35531 35516 35524 35574 35580 35587 35593 35604 35650 35708 35777 35827 35854 35867 35855 35809 35774 35712 35700 35711 35724 35735 35742 35747 35754 35739 35720 35723 35697 35672 35661 35697 35715 35697 35683 35689 35699 35688 35695 35734 35788 35802 35806 35807 35833 35858 35857 35893 35921 35894 35840 35764 35742 35723 35679 35651 35677 35693 35742 35776 35815 35866 35851 35851 35842 35845 35841 35788 35749 35727 35711 35703 35728 35745 35729 35719 35716 35727 35733 35718 35730 35759 35821 35861 35895 35858 35818 35781 35763 35755 35759 35747 35769 35798 35813 35831 35867 35891 35889 35850 35843 35803 35710 35607 35567 35580 35624 35648 35691 35812 35905 35859 35870 35903 35941 35969 35944 35901 35853 35810 35795 35784 35771 35759 35735 35742 35733 35725 35681 35643 35683 35714 35735 35728 35695 35660 35643 35600 35601 35618 35643 35674 35699 35713 35717 35716 35722 35729 35715 35731 35694 35596 35479 35416 35427 35431 35453 35479 35516 35529 35543 35560 35573 35597 35641 35652 35680 35614 35571 35534 35513 35504 35487 35476 35484 35437 35393 35359 35362 35364 35407 35476 35554 35595 35593 35531 35508 35521 35533 35572 35598 35619 35648 35640 35675 35688 35693 35717 35734 35690 35617 35553 35515 35530 35542 35582 35613 35618 35609 35589 35607 35602 35602 35655 35664 35690 35704 35690 35640 35593 35528 35496 35483 35460 35400 35376 35407 35463 35481 35534 35580 35614 35651 35670 35669 35611 35534 35487 35492 35506 35517 35543 35568 35576 35577 35580 35572 35590 35596 35593 35575 35574 35511 35471 35465 35487 35526 35592 35680 35797 35772 35702 35624 35559 35577 35622 35666 35716 35768 35789 35746 35712 35676 35677 35707 35735 35734 35730 35722 35745 35772 35809 35864 35891 35906 35904 35905 35871 35803 35743 35754 35756 35717 35738 35740 35746 35731 35689 35693 35694 35674 35670 35693 35714 35692 35632 35597 35591 35565 35571 35556 35551 35532 35534 35554 35582 35573 35586 35579 35575 35580 35584 35550 35496 35423 35318 35271 35272 35302 35322 35388 35432 35482 35497 35518 35545 35579 35575 35625 35660 35675 35622 35573 35579 35579 35567 35544 35556 35542 35496 35465 35439 35470 35518 35574 35607 35658 35636 35569 35526 35511 35494 35462 35479 35531 35549 35556 35558 35564 35577 35576 35580 35606 35574 35489 35423 35353 35325 35344 35352 35383 35411 35429 35406 35407 35425 35459 35491 35551 35575 35591 35611 35583 35526 35469 35450 35455 35422 35354 35328 35327 35351 35381 35430 35517 35571 35616 35639 35660 35662 35644 35612 35573 35570 35590 35589 35622 35630 35626 35623 35630 35598 35581 35589 35603 35619 35592 35512 35489 35487 35488 35499 35500 35505 35541 35546 35570 35564 35576 35579 35596 35625 35625 35588 35499 35346 35204 35079 34969 34889 34841 34826 34999 35562 35946 36119 36099 36084 36331 36528 36591 36642 36725 36781 36877 36975 37071 37180 37304 37447 37518 37615 37716 37824 37918 37984 38026 38066 38101 38139 38201 38245 38315 38387 38466 38523 38581 38648 38735 38856 38965 39071 39183 39311 39344 39358 39373 39410 39449 39480 39519 39557 39578 39617 39660 39709 39780 39880 39964 39999 40065 40068 40094 40108 40146 40152 40165 40165 40213 40238 40287 40322 40387 40433 40467 40526 40549 40575 40581 40542 40534 40552 40560 40568 40623 40662 40690 40732 40747 40787 40833 40839 40849 40875 40886 40855 40826 40841 40844 40857 40909 40958 40974 41003 41026 41046 41074 41068 41094 41129 41158 41103 40902 40670 40441 40264 40145 40043 39970 39891 39768 39601 39458 39305 39211 39109 38913 38745 38583 38401 38228 38140 38083 38040 37988 37937 37848 37730 37587 37515 37511 37471 37423 37384 37267 37061 36808 36588 36452 36321 36103 35969 35895 35874 35840 35849 35888 35880 35881 35912 35919 35789 35650 35599 35578 35555 35474 35412 35389 35331 35262 35201 35217 35157 35028 34971 34998 35001 34952 34938 34947 34950 34932 34945 34951 34918 34966 35071 35102 35145 35157 35128 35094 34963 34827 34822 34785 34640 34569 34529 34644 34732 34835 34970 35063 35090 35139 35175 35163 35194 35211 35216 35163 35093 35006 34978 34966 34844 34861 34918 34928 34916 34872 34891 34974 35101 35255 35366 35373 35309 35302 35275 35219 35288 35383 35393 35388 35365 35339 35340 35337 35346 35362 35416 35425 35356 35266 35253 35300 35364 35470 35635 35693 35638 35682 35710 35692 35750 35795 35814 35818 35792 35765 35711 35670 35664 35659 35676 35650 35607 35593 35634 35655 35711 35812 35954 35980 36047 36103 36128 36073 36063 36031 36011 35968 35958 35947 35945 35956 35961 35969 35941 35894 35871 35907 35949 35966 35975 35964 35914 35909 35890 35883 35918 35929 35971 36000 35995 35981 35974 35972 35970 35981 35998 35965 35847 35779 35760 35748 35752 35774 35807 35823 35830 35826 35827 35856 35904 35976 36039 36051 36042 35980 35932 35858 35807 35760 35697 35640 35648 35665 35664 35678 35701 35707 35727 35773 35805 35870 35906 35966 36018 36044 36075 36093 36058 36002 35947 35942 35924 35891 35837 35847 35855 35884 35905 35899 35828 35764 35714 35676 35689 35734 35750 35787 35821 35854 35901 35922 35927 35954 35969 35973 35941 35824 35760 35747 35743 35751 35741 35749 35749 35780 35838 35889 35939 35960 35965 35956 35954 35965 35949 35918 35893 35890 35896 35905 35933 35948 35950 35938 35940 35929 35932 35931 35924 35969 35954 35914 35865 35847 35836 35809 35815 35822 35835 35808 35809 35827 35854 35871 35913 35927 35886 35821 35788 35764 35765 35754 35764 35778 35802 35820 35832 35830 35855 35872 35887 35896 35836 35761 35698 35678 35679 35685 35702 35712 35721 35750 35784 35786 35806 35819 35847 35881 35849 35792 35740 35711 35691 35675 35704 35689 35696 35710 35690 35694 35722 35719 35734 35740 35759 35749 35704 35666 35642 35621 35617 35638 35634 35642 35651 35657 35676 35686 35706 35742 35752 35762 35790 35776 35776 35729 35699 35711 35703 35725 35736 35753 35784 35804 35843 35891 35948 36020 36066 36125 36185 36253 36323 36445 36548 36644 36703 36815 36938 37027 37145 37271 37385 37503 37642 37793 38002 38218 38437 38630 38806 39004 39201 39389 39613 39862 40123 40441 40762 41103 41396 41654 41896 42126 42333 42534 42654 42780 42848 42856 42792 42674 42604 42593 42655 42728 42799 42958 43144 43348 43545 43594 43550 43477 43376 43354 43427 43508 43565 43594 43516 43376 43274 43271 43342 43457 43574 43733 43820 43870 43942 44139 44326 44464 44567 44619 44780 44849 44964 45025 45108 45104 44957 44760 44670 44593 44501 44434 44375 44318 44245 44130 44051 43982 43935 43926 43885 43884 43871 43901 43923 43957 44007 44030 44046 44064 44075 44058 44025 43996 43903 43842 43784 43715 43675 43620 43568 43524 43453 43416 43371 43325 43273 43239 43187 43173 43092 42971 42776 42650 42530 42445 42334 42262 42184 42089 41998 41929 41864 41830 41774 41726 41692 41644 41575 41434 41233 41084 40955 40848 40770 40694 40607 40536 40437 40377 40320 40257 40175 40112 40052 39978 39871 39657 39417 39228 39060 38897 38777 38662 38558 38466 38386 38341 38326 38342 38395 38489 38578 38689 38677 38625 38620 38600 38583 38569 38535 38483 38430 38381 38326 38261 38188 38139 38060 38011 37936 37790 37620 37463 37334 37207 37112 37027 36941 36864 36802 36736 36678 36633 36582 36541 36522 36483 36434 36319 36179 36092 35981 35872 35754 35675 35573 35520 35521 35521 35553 35573 35602 35652 35711 35743 35741 35661 35539 35421 35381 35348 35345 35339 35330 35354 35367 35405 35433 35479 35490 35492 35486 35501 35522 35492 35432 35378 35348 35353 35340 35348 35375 35419 35645 35885 36130 36357 36594 36830 37067 37333 37522 37566 37436 37234 37043 36856 36663 36487 36342 36269 36231 36175 36152 36138 36138 36136 36155 36166 36154 36106 36040 35952 35841 35780 35795 35840 35928 35977 36009 36044 36077 35943 35916 35896 35920 35969 35953 35984 36009 36046 36019 35978 35927 35912 35869 35808 35778 35773 35808 35862 35970 36053 36091 36080 36058 36008 36028 36021 35957 35892 35868 35869 35873 35888 35912 35933 35909 35882 35819 35761 35737 35772 35892 36081 36206 36260 36258 36196 36040 35931 35928 35926 35899 35855 35860 35895 35916 35950 35894 35842 35797 35812 35957 36220 36377 36523 36637 36660 36611 36482 36517 36607 36645 36750 36752 36727 36727 36398 36458 36522 36516 36529 36500 36621 36809 36965 36970 36955 36961 36902 36842 36727 36762 36902 37129 37134 37137 37109 37095 37130 37213 37312 37257 37215 37214 37246 37184 37057 36981 37099 37342 37427 37413 37400 37351 37376 37483 37542 37543 37456 37381 37427 37393 37264 37091 37146 37380 37549 37511 37457 37391 37381 37457 37580 37623 37534 37464 37555 37591 37587 37525 37433 37455 37702 37687 37632 37532 37463 37509 37563 37611 37600 37519 37501 37632 37697 37598 37456 37464 37681 37738 37575 37454 37381 37408 37452 37508 37491 37457 37448 37611 37609 37459 37338 37378 37548 37612 37488 37436 37445 37493 37563 37605 37622 37546 37507 37651 37783 37696 37508 37450 37586 37675 37556 37482 37461 37500 37559 37641 37629 37552 37563 37685 37757 37640 37471 37495 37706 37681 37596 37560 37599 37668 37735 37782 37730 37709 37763 37917 37851 37662 37578 37644 37871 37795 37744 37726 37771 37840 37916 37968 37847 37899 37998 38168 38039 37873 37751 37820 38048 38012 37977 37968 38020 38088 38143 38169 38103 38105 38147 38343 38322 38191 37987 37959 38144 38160 38114 38089 38143 38204 38232 38285 38221 38191 38183 38352 38442 38368 38145 38062 38185 38364 38310 38303 38271 38323 38380 38434 38420 38300 38287 38294 38424 38307 38099 38006 38090 38307 38208 38155 38138 38180 38206 38255 38220 38072 38004 38031 38114 38019 37808 37768 37940 38088 38014 37953 37918 37967 37979 38027 37972 37870 37852 37990 38061 38008 37838 37827 37953 38130 38086 38008 38005 38021 38026 38002 37900 37858 37768 37970 37933 37829 37654 37695 37912 37984 37928 37878 37878 37833 37800 37787 37670 37595 37528 37675 37696 37507 37399 37503 37770 37858 37800 37702 37608 37584 37583 37629 37517 37533 37725 37642 37452 37445 37510 37686 37923 38287 38663 38715 38914 39239 39381 39606 39694 39752 39835 39963 40118 40312 40415 40589 40708 40805 41109 41498 41907 42185 42413 42465 42550 42571 42522 42487 42535 42563 42746 42865 42963 43217 43449 43765 43975 44163 44251 44374 44454 44530 44499 44307 44204 44182 44177 44151 44172 44156 44180 44314 44641 44723 44692 44648 44598 44503 44342 44252 44292 44394 44403 44446 44481 44501 44583 44736 44990 45258 45429 45584 45445 45320 45235 45136 45090 45071 45027 44974 44948 44941 45001 45162 45313 45391 45505 45562 45478 45346 45295 45278 45324 45408 45470 45469 45466 45583 45747 45899 45980 46059 46149 46152 46119 45954 45952 45962 46015 46088 46095 46004 45908 45765 45750 45890 45866 45767 45643 45601 45500 45395 45203 45158 45135 45179 45124 45003 44924 44933 44910 44533 44297 44145 44045 43948 43892 43904 43923 43823 43830 43864 43951 43869 43674 43555 43529 43553 43264 43221 43162 43141 43200 43255 43286 43230 43061 42995 42901 42822 42660 42531 42424 42412 42455 42252 42207 42147 42124 42138 42146 42117 41886 41722 41670 41704 41639 41511 41375 41346 41417 41456 41261 41164 41046 40891 40788 40703 40652 40525 40514 40556 40666 40544 40377 40330 40402 40560 40244 40025 39839 39722 39646 39618 39630 39631 39575 39616 39943 39936 39851 39687 39579 39569 39679 39413 39294 39244 39234 39225 39232 39293 39161 39132 39177 39342 39152 38924 38807 38831 39016 38859 38769 38727 38824 38818 38904 39003 38841 38730 38716 39053 39026 38952 38961 39116 39273 39489 39650 39840 40105 40407 40570 40759 40889 40945 40957 40858 40960 41038 41181 41426 41630 41765 42103 42120 42026 42092 42246 42370 42615 42777 42996 43150 43266 43341 43347 43371 43401 43445 43387 43339 43357 43440 43554 43653 43743 43756 43766 43783 43793 43827 43934 44046 44120 44116 44034 43901 43755 43608 43628 43936 44199 44306 44181 43571 43453 43330 43378 43289 43163 42978 42960 43025 42927 42708 42541 42391 42191 42113 42090 42030 41825 41807 41756 41731 41631 41501 41372 41267 41303 41105 40866 40698 40640 40609 40615 40638 40557 40553 40553 40628 40643 40446 40171 40051 40117 40241 40028 39893 39806 39804 39835 39870 39900 39882 39827 39762 39790 39798 39699 39564 39539 39650 39741 39654 39545 39373 39198 39047 38982 38908 38781 38643 38632 38776 38736 38495 38420 38448 38620 38293 38038 37890 37894 37908 37896 37983 37884 37904 37929 38121 38207 37985 37671 37556 37726 37842 37627 37528 37555 37609 37676 37764 37844 37680 37560 37514 37634 37731 37605 37338 37337 37573 37601 37486 37395 37323 37236 37192 37196 37199 37149 37087 37192 37513 37539 37230 37121 37288 37430 37115 36918 36824 36809 36852 36926 36988 36980 37025 37167 37531 37776 37484 37234 37281 37526 37694 37535 37473 37455 37511 37591 37680 37695 37546 37492 37640 37825 37673 37387 37316 37578 37799 37557 37454 37457 37450 37390 37346 37336 37219 37170 37277 37589 37469 37192 37163 37390 37749 37566 37355 37170 37094 37125 37220 37295 37264 37252 37392 37689 37798 37590 37266 37201 37588 37568 37602 37711 37840 37966 38252 38808 39090 39460 39576 39599 39777 39948 40183 40554 40953 41107 41218 41250 41513 41698 41768 41660 41464 41338 41218 41046 40912 40887 41026 41219 41593 41878 42119 42224 42296 42495 42559 42532 42530 42398 42336 42360 42389 42386 42399 42443 42412 42413 42759 43041 43092 43133 43284 43298 43330 43352 43326 43282 43226 43186 43160 43202 43312 43184 43165 43134 43100 43130 43128 42951 42747 42653 42610 42588 42570 42585 42550 42570 42543 42470 42371 42279 42120 41955 41809 41688 41576 41530 41485 41485 41562 41688 41820 41991 42239 42588 43149 43942 44317 44631 44597 44597 44917 45077 45022 44917 44838 44677 44502 44417 44424 44455 44450 44502 44561 44611 44633 44654 44218 43927 43703 43564 43383 43217 43065 43048 43129 43096 42872 42655 42497 42343 42117 41941 41827 41689 41403 41258 41187 41198 41111 41002 40887 40857 40851 40495 40153 39873 39735 39628 39590 39577 39504 39372 39334 39319 39381 39262 39004 38751 38666 38852 39002 39068 39124 39094 39133 39165 39137 38943 38665 38402 38225 38265 38178 38062 38044 38152 38339 38243 37939 37660 37479 37355 37346 37411 37469 37378 37368 37389 37570 37727 37633 37460 37349 37413 37431 37202 37095 37088 37141 37193 37236 37275 37225 37195 37117 37216 37334 37163 36924 36897 37114 37319 37167 37098 37102 37197 37159 37134 37157 37040 37010 37025 37134 37489 37432 37237 37212 37373 37563 37254 37130 37090 37103 37152 37224 37273 37225 37239 37322 37640 37925 37883 37854 37932 38088 38329 38356 38280 38252 38296 38413 38518 38595 38466 38312 38212 38202 38360 38396 38204 38103 38263 38518 38309 38202 38083 37991 38038 38093 38134 38067 38014 38011 38052 38337 38464 38279 38135 38131 38287 38111 37931 37813 37815 37891 37958 38032 37966 37939 37853 37742 37786 37916 37739 37576 37639 37926 37933 37765 37710 37702 37687 37689 37716 37677 37594 37596 37561 37695 37868 37684 37545 37621 37883 37729 37356 37099 37015 37004 37074 37184 37254 37222 37312 37414 37583 37748 37441 37212 37284 37593 37514 37378 37324 37371 37440 37582 37652 37630 37468 37367 37384 37638 37629 37332 37227 37388 37738 37586 37296 37078 37018 37154 37344 37512 37582 37688 37803 38053 38274 38155 37903 37775 37845 38047 37871 37779 37699 37731 37751 37805 37876 37820 37645 37470 37574 37683 37438 37313 37316 37537 37667 37438 37364 37289 37241 37296 37537 37738 38041 38602 39388 40019 40555 40932 41189 41387 41491 41465 41405 41326 41289 41275 41297 41316 41206 41080 41064 41078 41040 41050 41137 41256 41324 41243 41136 41102 41140 41246 41329 41460 41524 41531 41507 41462 41440 41473 41675 41828 41970 42056 41997 41958 41979 42117 42327 42528 42669 42761 42877 42912 42905 42977 43085 43155 43239 43295 43259 43179 43134 43146 43234 43376 43473 43486 43467 43427 43453 43527 43550 43301 43142 43184 43192 43174 43210 43272 43327 43397 43464 43566 43648 43604 43592 43695 44001 44274 44410 44720 44971 44596 44022 43699 43549 43588 43662 43689 43716 43629 43619 43807 44158 44341 44690 44852 45016 45074 44983 44918 44924 45034 45028 45001 44935 44824 44712 44683 44723 44753 44697 44743 44825 44896 44903 44847 44805 44830 44937 45022 45062 45048 44911 44900 44824 44842 45008 45104 45133 45146 45016 44870 44724 44639 44671 44751 44780 44714 44558 44075 43790 43506 43444 43432 43338 43089 42989 43041 42917 42751 42599 42422 42331 42259 42251 42233 42046 42001 41933 41925 41837 41641 41457 41317 41256 41004 40624 40319 40142 40034 39957 39991 39986 39866 39669 39406 39306 39173 38886 38707 38738 38986 39042 38858 38680 38515 38279 38137 38091 38076 37944 37851 37872 38026 38096 37859 37684 37650 37805 37494 37231 37036 37012 37036 37103 37174 37250 37315 37438 37473 37630 37572 37404 37217 37215 37407 37554 37429 37321 37295 37259 37204 37178 37191 37053 37051 37025 37055 37333 37256 37118 37122 37268 37312 37115 36939 36898 36954 37065 37146 37248 37207 37287 37366 37507 37848 37687 37542 37514 37776 37950 37832 37734 37730 37796 37789 37809 37820 37696 37637 37709 37943 38210 38121 37960 37959 38096 38247 38081 37920 37802 37844 37928 38001 38094 38092 38038 38148 38390 38624 38512 38261 38167 38251 38537 38480 38392 38370 38400 38466 38466 38475 38415 38367 38434 38809 39343 39546 39410 39361 39523 39835 40135 40115 40131 40224 40398 40504 40600 40556 40390 40457 40589 40665 40565 40333 40240 40392 40638 40626 40505 40417 40424 40520 40689 40974 41283 41013 40813 40919 41113 41194 41154 41016 40982 41088 41017 40742 40430 40232 40120 40117 40180 40161 40015 39956 39964 39984 39962 39745 39475 39383 39531 39549 39269 39076 38985 38947 38832 38707 38635 38388 38206 38161 38209 38422 38383 38164 38111 38280 38313 38067 37779 37548 37441 37441 37525 37597 37597 37521 37554 37605 37753 37518 37252 37237 37514 37738 37646 37517 37457 37468 37482 37477 37469 37423 37293 37300 37412 37748 37889 37651 37576 37688 37854 37694 37472 37285 37242 37324 37471 37561 37626 37606 37697 37763 37938 37879 37568 37448 37536 37767 37929 37993 37921 37881 37805 37740 37724 37652 37523 37497 37555 37755 37835 37565 37449 37555 37734 37683 37468 37288 37242 37314 37425 37552 37528 37449 37437 37405 37603 37647 37325 37155 37302 37614 37698 37635 37554 37526 37492 37494 37554 37538 37474 37549 37723 38137 38302 38048 37838 37818 38092 37951 37750 37574 37514 37539 37651 37744 37696 37522 37401 37345 37399 37331 37114 36959 37088 37375 37511 37444 37275 37096 37097 37289 37424 37314 37135 37184 37330 37552 37622 37472 37156 37113 37319 37218 36960 36787 36724 36758 36864 37048 37108 36838 36583 36443 36638 36888 36772 36514 36597 36927 36829 36576 36312 36104 36090 36122 36241 36286 36139 36185 36237 36570 36794 36416 36158 36176 36419 36433 36312 36256 36267 36320 36470 36637 36575 36409 36315 36374 36803 36989 36736 36729 37294 38423 38517 38116 37697 37430 37364 37392 37462 37401 37333 37348 37459 37698 37735 37411 37141 37119 37331 37467 37450 37389 37341 37399 37505 37536 37505 37320 37317 37369 37561 37867 37754 37600 37653 37887 37906 37677 37473 37381 37428 37503 37590 37623 37569 37676 37688 37801 37809 37506 37332 37399 37751 37861 37799 37677 37691 37739 37733 37769 37716 37598 37591 37639 37862 38082 37824 37642 37741 37978 38247 38200 38200 38206 38274 38432 38586 38666 38621 38524 38540 38705 38847 38776 38471 38400 38582 38848 38822 38807 38666 38466 38356 38339 38322 38281 38278 38380 38633 38889 38872 38563 38401 38551 38879 38992 38924 38929 38953 38916 39015 39056 38999 38779 38637 38679 38809 38782 38543 38475 38591 38799 38773 38509 38141 37883 37755 37760 37798 37790 37668 37675 37735 38007 38013 37694 37474 37576 37818 37638 37484 37326 37255 37258 37374 37403 37263 36978 36853 36854 37073 37163 36963 36819 36953 37306 37282 36976 36715 36576 36538 36604 36676 36666 36629 36714 36918 37215 37114 36741 36537 36676 37039 37037 36927 36825 36758 36816 36835 36851 36817 36674 36675 36826 37169 37266 37017 36831 36868 36971 36954 36738 36643 36712 36879 37058 37211 37338 37483 37631 37831 38156 38620 38618 38229 38106 38258 38493 38348 38221 38098 37964 37900 37919 38021 38268 38542 38899 39382 39692 39556 39122 38866 39021 39172 39154 39058 38940 38886 38913 38966 39027 39035 38967 39020 39121 39214 39194 38958 38720 38718 38978 38927 38736 38516 38345 38219 38259 38328 38414 38396 38404 38466 39106 39330 39196 39091 39149 39325 39297 39152 39013 38931 38910 38916 38908 38743 38495 38249 38188 38258 38307 38161 37921 37880 38060 38132 37893 37614 37341 37214 37234 37318 37384 37327 37289 37316 37409 37476 37240 36882 36823 37068 37430 37382 37310 37230 37177 37103 37087 37062 36930 36798 36794 36929 37208 37318 37035 36886 36935 37222 37093 37053 37040 37075 37128 37247 37457 37578 37700 38111 39642 40588 40825 40747 40764 41056 41376 41584 41565 41509 41340 41458 41470 41557 41577 41137 40879 40920 41160 41191 40955 40592 40461 40655 40729 40379 40156 40006 39878 39805 39837 39832 39449 39035 38820 38773 38931 38777 38573 38484 38655 38918 38561 38121 37769 37618 37554 37608 37720 37711 37628 37668 37779 38054 38063 37679 37501 37619 37904 37884 37729 37615 37584 37594 37553 37548 37495 37349 37230 37262 37372 37687 37572 37293 37211 37339 37444 37125 36833 36712 36723 36770 36927 37055 37080 36962 36831 36770 36951 36979 36675 36508 36682 37062 37130 36991 36789 36570 36428 36491 36596 36699 36659 36650 36730 36884 37215 37038 36595 36438 36583 36782 36651 36520 36437 36400 36478 36579 36598 36458 36253 36184 36230 36412 36569 36452 36229 36218 36521 36563 36296 36047 35937 35964 36096 36260 36461 36451 36435 36486 36559 36710 36532 36254 36135 36307 36651 36642 36592 36534 36452 36373 36369 36446 36528 36515 36524 36645 36908 37171 37063 36811 36610 36692 36855 36606 36505 36427 36415 36484 36583 36703 36657 36398 36267 36261 36540 36625 36352 36269 36485 36886 36922 36658 36375 36257 36238 36361 36529 36621 36670 36698 36764 36995 37147 36968 36525 36473 36728 37047 37119 37020 36934 36989 37046 37094 37088 36977 36871 36955 37159 37468 37434 37110 37017 37075 37210 36944 36698 36550 36576 36686 36880 37088 37101 37075 37093 37112 37426 37400 37047 36892 37074 37470 37485 37373 37281 37142 37011 37028 37099 37115 37059 37137 37232 37515 37700 37458 37183 37147 37335 37261 37150 37033 37027 37035 37152 37330 37386 37209 37062 37021 37284 37601 37413 37148 37213 37548 37838 37623 37282 37000 36842 36862 36995 37093 37071 37071 37123 37317 37440 37226 36821 36656 36786 37020 36886 36719 36572 36589 36727 36787 36828 36673 36461 36402 36438 36664 36636 36439 36436 36771 37061 36706 36306 36064 36011 36061 36206 36385 36486 36474 36495 36454 36712 36889 36496 36339 36531 36861 36735 36543 36428 36309 36154 36126 36213 36188 36023 36072 36149 36490 36702 36419 36201 36194 36450 36202 35969 35858 35839 35904 36025 36196 36255 36058 35817 35737 35860 35908 35720 35595 35739 36115 36267 36100 35843 35697 35662 35755 35918 36024 36050 36128 36265 36597 36776 36406 36114 36121 36325 36479 36354 36256 36154 36161 36266 36308 36260 36099 35951 35985 36239 36544 36343 36161 36234 36485 36660 36481 36456 36488 36611 36799 37006 37189 37273 37342 37532 37884 38249 38256 37999 37958 38207 38518 38649 38565 38421 38229 38117 38118 38119 38050 37919 37936 38042 38395 38443 38002 37719 37756 37948 37829 37642 37507 37431 37452 37584 37667 37548 37221 37055 37009 37236 37383 37162 36994 37089 37429 37462 37063 36674 36470 36410 36499 36658 36821 36815 36781 36735 36664 36796 36765 36440 36223 36309 36622 36601 36506 36364 36162 36058 36057 36160 36221 36204 36280 36369 36721 36890 36644 36279 36239 36430 36324 36068 35930 35874 35952 36160 36361 36395 36104 35896 35829 36054 36422 36302 36088 36153 36543 36661 36233 35823 35627 35591 35702 35958 36125 36140 36120 36198 36312 36641 36355 35997 35999 36326 36546 36355 36167 36094 36013 35940 35953 35994 35983 36095 36239 36518 36724 36521 36334 36165 36274 36322 36088 35944 35870 35876 35994 36145 36362 36368 36128 35973 35974 36238 36152 35977 35967 36240 36576 36451 36136 35885 35773 35783 35918 36090 36191 36138 36226 36334 36626 36803 36580 36261 36170 36406 36624 36612 36558 36560 36523 36458 36478 36491 36436 36463 36573 36906 37133 36888 36782 36692 36837 36878 36741 36639 36592 36667 36805 36980 37090 36981 36722 36632 36756 37054 36873 36637 36641 36837 37070 36994 36721 36482 36429 36497 36634 36761 36749 36738 36839 36911 37158 37228 36873 36672 36833 37221 37240 37076 36938 36868 36811 36776 36834 36853 36746 36711 36765 36933 37362 37412 37061 36952 37038 37098 36752 36527 36386 36381 36485 36674 36816 36597 36333 36246 36382 36589 36363 36184 36293 36601 36886 36741 36485 36230 36162 36227 36395 36603 36735 36889 37136 37597 38090 38066 37900 37843 38049 38361 38254 38086 37952 37893 37814 37884 37970 37818 37494 37314 37283 37462 37597 37472 37432 37619 37820 37772 37543 37371 37287 37336 37411 37539 37575 37236 36906 36764 36910 37136 37017 36844 36894 37146 37286 36812 36332 36011 35909 35960 36113 36390 36676 36689 36780 36996 37432 37206 36775 36632 36819 37207 37136 36874 36671 36450 36280 36273 36394 36464 36402 36447 36573 36973 37033 36709 36469 36460 36571 36417 36192 36064 36001 36101 36273 36444 36321 35953 35703 35630 35816 36022 35859 35696 35786 36020 36034 35724 35379 35228 35235 35399 35576 35684 35734 35760 35717 35803 36052 35880 35536 35505 35685 35879 35855 35701 35490 35315 35317 35406 35540 35604 35671 35754 35955 36204 36115 35700 35512 35579 35745 35770 35720 35712 35766 35936 36144 36210 36074 35906 35849 35928 36207 36327 36113 36030 36207 36419 36370 36105 35893 35803 35915 36115 36314 36391 36385 36388 36415 36533 36363 36071 35953 36174 36548 36637 36595 36538 36461 36409 36487 36588 36632 36539 36594 36771 37138 37196 36869 36607 36658 36859 36914 36811 36773 36746 36836 36983 37060 36965 36766 36660 36806 37210 37323 37099 36896 36956 37178 37169 36930 36799 36785 36868 37062 37247 37361 37343 37333 37262 37483 37653 37416 37100 37011 37234 37480 37411 37267 36986 36719 36640 36667 36736 36748 36749 36723 36868 37184 37107 36675 36325 36300 36488 36690 36646 36601 36584 36575 36620 36631 36522 36282 36139 36180 36611 36896 36541 36346 36388 36522 36704 36362 36060 35918 35922 36104 36318 36475 36537 36280 36044 36013 36242 36315 36030 35850 35988 36245 36242 36045 35875 35824 35895 36075 36265 36455 36470 36461 36448 36457 36570 36514 36181 36123 36345 36595 36531 36339 36159 36023 35951 36042 36213 36308 36150 36184 36302 36627 36949 36712 36358 36205 36418 36544 36371 36284 36243 36300 36417 36497 36524 36321 36198 36254 36496 36958 36972 36606 36574 36836 36976 36547 36146 35956 35937 36044 36231 36474 36546 36427 36316 36262 36556 36512 36171 36098 36328 36648 36611 36396 36104 35875 35832 35977 36161 36245 36179 36289 36528 37035 37077 36579 36315 36378 36724 36613 36468 36348 36322 36398 36417 36392 36295 36028 35900 36023 36313 36365 36218 36218 36364 36499 36359 36098 35931 35925 36063 36215 36369 36479 36544 36399 36286 36416 36650 36622 36393 36298 36509 36840 36871 36585 36279 36148 36160 36290 36437 36503 36433 36433 36586 36709 36562 36191 35892 35940 36245 36561 36667 36676 36701 36626 36582 36609 36622 36597 36607 36695 36963 37185 37124 36846 36648 36725 36918 37068 37091 37083 37077 37151 37334 37409 37287 37072 36885 36940 37182 37345 37246 36950 36890 37037 37204 37088 36851 36611 36582 36660 36809 36922 36909 36779 36639 36529 36715 36783 36493 36292 36421 36835 36973 36878 36634 36381 36343 36467 36666 36805 36900 36900 36887 37064 37111 36767 36377 36269 36392 36515 36324 36186 36125 36199 36329 36405 36347 36134 35992 36000 36199 36409 36361 36161 36150 36289 36406 36283 36131 36091 36143 36377 36634 36806 36894 36790 36647 36662 36878 37031 36938 36755 36925 37300 37664 37587 37280 36962 36737 36779 36893 36936 36917 36869 36935 37154 37290 37127 36747 36627 36881 37193 37114 36958 36811 36788 36801 36787 36765 36625 36409 36376 36428 36742 36869 36610 36445 36430 36582 36418 36170 36061 36097 36219 36436 36692 36731 36474 36262 36141 36350 36437 36166 36072 36212 36597 36728 36415 35972 35714 35681 35821 36031 36170 36155 36161 36191 36300 36436 36275 35883 35727 35922 36227 36076 35924 35851 35831 35787 35787 35850 35810 35691 35688 35782 36013 35938 35712 35570 35649 35831 35597 35344 35239 35261 35443 35659 35922 35933 35598 35345 35283 35517 35581 35345 35300 35565 36031 36229 35852 35428 35197 35180 35355 35603 35946 36295 36672 37300 38832 39175 39002 38539 38433 38681 38993 38788 38485 38256 38035 37706 37484 37434 37402 37165 37197 37533 38151 38389 38112 37756 37766 37999 38035 37780 37583 37464 37390 37461 37603 37571 37239 36915 36809 36998 37346 37202 36916 36909 37161 37322 36851 36377 36088 35986 36058 36196 36308 36334 36266 36237 36110 36270 36232 35889 35673 35821 36223 36349 36204 36026 35810 35667 35721 35860 35970 35989 35950 35974 36185 36563 36432 35927 35662 35787 35974 35928 35826 35746 35771 35944 36123 36145 35978 35703 35619 35739 36090 36255 36043 35865 36027 36286 36254 35894 35604 35466 35502 35698 35876 35963 35944 35705 35425 35368 35340 35096 34919 35094 35478 35849 35756 35507 35167 34997 35110 35338 35536 35611 35684 35852 36051 36444 36363 35912 35578 35653 35921 35979 35909 35794 35755 35894 36034 36079 36031 35931 35869 35956 36218 36591 36539 36282 36148 36115 36174 36035 35900 35801 35846 36004 36207 36385 36433 36196 35874 35690 35850 36017 35824 35640 35768 36187 36564 36389 36011 35756 35716 35866 36125 36384 36482 36365 36388 36425 36581 36550 36109 35904 36026 36365 36428 36197 35982 35812 35650 35639 35694 35729 35677 35584 35570 35611 35820 35792 35474 35230 35338 35561 35456 35324 35280 35323 35488 35722 35860 35701 35378 35235 35230 35550 35717 35466 35437 35710 36057 35840 35316 34968 34863 34984 35229 35466 35554 35578 35582 35337 35302 35387 35178 34930 34982 35403 35605 35546 35394 35130 34978 34975 35135 35211 35367 35457 35527 35728 35928 35861 35563 35428 35537 35774 35847 35822 35744 35750 35883 36017 35933 35699 35377 35308 35273 35572 35729 35520 35521 35834 35841 35325 34841 34626 34671 34843 35091 35406 35615 35594 35476 35273 35380 35539 35346 35160 35254 35641 35944 35823 35533 35164 34985 35048 35301 35499 35560 35590 35649 35802 36041 35736 35329 35186 35429 35675 35536 35391 35334 35439 35578 35629 35622 35526 35356 35327 35394 35723 36074 35955 35745 35786 35900 35630 35291 35154 35206 35423 35668 35898 36011 35891 35634 35529 35722 35748 35450 35335 35581 35989 36025 35767 35311 35091 35071 35244 35502 35653 35723 35770 35873 36164 36167 35855 35535 35480 35820 36000 35708 35618 35620 35646 35640 35652 35640 35538 35434 35481 35700 36018 36020 35826 35658 35669 35818 35819 35806 35804 35919 36115 36309 36425 36285 36015 35786 35822 36105 35922 35778 35960 36372 36595 36256 35717 35346 35219 35310 35560 35805 35903 35914 35971 36070 36240 36155 35726 35453 35558 35910 35995 35881 35795 35736 35617 35582 35667 35731 35696 35716 35822 36110 36318 36091 35846 35734 35879 35846 35623 35512 35520 35600 35788 35994 36005 35741 35417 35321 35534 35848 35884 35650 35612 35886 36163 35863 35460 35199 35180 35331 35573 35796 35918 35950 35912 35860 35963 35870 35531 35383 35664 36083 36127 35939 35683 35434 35418 35536 35678 35774 35749 35779 35869 36147 36205 35846 35484 35464 35858 36149 36105 36032 36065 36118 36303 36464 36342 36030 35817 35832 36093 36257 36024 35920 36095 36342 36128 35621 35270 35199 35323 35547 35763 35941 36062 35950 35739 35738 35639 35367 35245 35360 35679 35972 35930 35650 35290 35129 35200 35352 35561 35625 35677 35712 35859 36070 35831 35459 35350 35572 35661 35570 35421 35355 35460 35672 35777 35724 35512 35282 35263 35423 35632 35529 35414 35547 35743 35686 35382 35107 34989 35118 35347 35614 35795 35883 35727 35485 35525 36043 36204 36043 36117 36557 37041 37398 37285 37029 36738 36786 37005 37116 37076 36835 36893 37021 37267 37438 37202 36892 36911 37133 37279 36976 36827 36811 36857 36878 36808 36654 36448 36343 36379 36645 36696 36508 36429 36501 36542 36227 35785 35560 35541 35673 35888 36121 36261 36093 35664 35317 35340 35403 35419 35406 35578 35977 36203 36012 35601 35249 35161 35271 35453 35609 35673 35682 35673 35836 35994 35643 35357 35359 35612 35888 35859 35782 35769 35850 35926 35926 35850 35685 35604 35691 36039 36195 36008 35883 35903 36027 35969 35694 35550 35532 35627 35853 36068 36206 36242 36023 35935 36284 36682 36544 36296 36488 36948 37423 37585 37355 37091 36865 36915 37098 37280 37279 37209 37267 37623 37698 37316 36919 36832 37016 37128 36971 36740 36589 36627 36728 36742 36631 36477 36363 36375 36598 36941 36945 36768 36579 36519 36549 36395 36198 36102 36189 36406 36610 36802 36851 36602 36292 36177 36309 36349 36096 35983 36177 36590 36629 36253 35760 35537 35586 35800 36038 36188 36187 36148 36142 36383 36537 36472 36275 36510 37067 37460 37350 37164 37041 36990 36901 36783 36625 36446 36311 36272 36435 36697 36727 36515 36278 36314 36440 36295 36109 36034 36075 36309 36586 36816 36778 36390 36200 36265 36799 37057 36635 36448 36709 37328 37355 36887 36479 36303 36399 36631 36887 37001 36945 36978 36991 37091 37339 37297 36912 36749 37022 37243 37209 37059 36976 36891 36894 36952 37032 37012 36968 37042 37245 37700 37689 37392 37112 37174 37403 37238 37084 37020 37057 37142 37324 37481 37397 37050 36934 36993 37367 37595 37326 37160 37328 37669 37504 37054 36684 36578 36703 36898 37143 37261 37324 37382 37372 37529 37665 37357 36980 36961 37278 37469 37424 37274 37039 36858 36828 36873 36921 36894 36939 37131 37893 38635 38554 38055 38037 38470 38725 38501 38259 38028 37944 38008 38076 38029 37710 37330 37166 37340 37703 37592 37337 37385 37703 37803 37397 36892 36617 36618 36772 36993 37158 37212 37174 37099 37060 37203 37138 36715 36552 36819 37083 37015 36869 36757 36585 36552 36617 36691 36737 36774 36856 37055 37504 37526 37154 36839 36867 37001 36838 36685 36612 36640 36798 37001 37100 36987 36703 36535 36572 36864 37144 37019 36797 36786 36994 36871 36450 36094 35981 36090 36321 36573 36770 36780 36676 36464 36400 36580 36371 36158 36176 36501 36841 36856 36697 36412 36259 36286 36424 36593 36693 36678 36705 36841 37290 37670 37518 37149 37135 37371 37508 37440 37316 37273 37303 37253 37187 37039 36845 36734 36799 36995 37133 36895 36750 36781 36887 36947 36866 36819 36858 36977 37194 37400 37569 37631 37467 37284 37314 37612 37521 37207 37138 37395 37674 37687 37374 37037 36924 36975 37156 37389 37557 37612 37719 37850 37992 37870 37375 37041 37134 37440 37564 37474 37301 37228 37142 37101 37193 37222 37161 37109 37182 37410 37618 37406 37058 36882 36960 37014 36935 36813 36755 36863 37020 37241 37228 36935 36677 36640 36839 37108 36891 36864 37094 37447 37538 37264 36971 36813 36764 36844 36974 37153 37352 37462 37451 37374 37359 37202 37131 37252 37484 37776 37875 37738 37468 37184 37070 37120 37281 37378 37309 37347 37452 37754 38049 37674 37213 37010 37229 37382 37222 37066 36962 37001 37079 37047 36977 36777 36629 36670 36877 37258 37268 37046 36949 36866 36895 36744 36532 36404 36431 36559 36748 36983 37136 36912 36646 36542 36679 36951 36896 36661 36617 36938 37304 37127 36714 36374 36275 36394 36610 36847 37028 37035 37059 36922 36799 36881 36629 36362 36309 36532 36891 36918 36813 36517 36236 36170 36250 36455 36598 36609 36642 36703 36839 37093 37130 36977 36743 36614 36811 37014 36972 36890 36828 36769 36646 36603 36660 36710 36665 36702 36759 36895 37213 37248 36885 36566 36554 36756 36811 36790 36699 36660 36736 36867 36857 36830 36863 36776 36699 36703 36723 36751 36888 37140 37242 37121 36904 36645 36395 36173 36117 36096 36199 36375 36376 36271 36213 36213 36233 36343 36490 36666 36777 36860 36777 36508 36324 36247 36212 36190 36119 36063 36069 36130 36192 36179 36168 36180 36236 36301 36391 36487 36666 36818 36932 36861 36644 36438 36369 36347 36318 36313 36228 36276 36341 36214 36196 36260 36341 36487 36619 36785 37012 37222 37404 37426 37227 37009 36845 36905 36991 37007 37003 36811 36876 36955 36976 37045 37105 37201 37284 37404 37548 37741 37933 38129 38178 37988 37764 37578 37560 37579 37602 37610 37449 37428 37532 37476 37441 37546 37594 37703 37820 37907 37972 38068 38173 38101 37894 37690 37596 37546 37566 37567 37546 37550 37271 37229 37005 36811 36836 37091 37254 37435 37615 37693 37775 37856 37939 37860 37633 37464 37428 37461 37477 37414 37357 37354 37268 37192 37050 37035 37164 37359 37558 37696 37839 37995 38128 38234 38121 37908 37729 37607 37594 37625 37659 37576 37430 37368 37242 36953 36813 36858 37039 37303 37514 37715 37913 38027 38108 38100 37875 37703 37596 37538 37521 37526 37541 37393 37300 37297 37008 36623 36363 36306 36476 36713 36926 37093 37258 37450 37553 37433 37159 36890 36747 36611 36627 36679 36713 36780 36862 36892 36606 36230 35959 35940 36165 36476 36757 36954 37114 37357 37473 37345 37118 36983 36899 36871 36826 36919 37011 37064 37112 37132 36873 36537 36265 36159 36192 36304 36506 36848 37080 37265 37262 37150 36937 36818 36748 36701 36703 36650 36664 36702 36728 36612 36408 36222 36071 35976 35963 36028 36134 36258 36479 36683 36533 36400 36374 36448 36520 36598 36651 36657 36690 36730 36786 36622 36370 36246 36226 36231 36246 36267 36385 36501 36765 37006 36960 36814 36831 36994 37025 37114 37166 37133 37098 37067 37035 36826 36582 36485 36514 36539 36524 36497 36466 36484 36635 36850 36897 36813 36792 36970 37117 37189 37244 37273 37255 37250 37225 37043 36805 36637 36628 36703 36748 36736 36682 36665 36685 36760 36713 36732 36755 36838 37058 37233 37314 37419 37477 37369 37338 37027 36762 36637 36604 36687 36846 36930 36886 36835 36805 36824 36724 36703 36801 36887 37032 37242 37433 37459 37415 37316 37186 36900 36624 36515 36484 36505 36568 36705 36779 36709 36680 36541 36235 36140 36243 36450 36634 36837 37057 37159 37205 37244 37180 36869 36547 36409 36397 36442 36509 36639 36712 36723 36699 36694 36536 36382 36432 36652 36849 37030 37285 37450 37482 37515 37489 37120 36725 36546 36532 36567 36623 36700 36809 36824 36734 36609 36255 36039 36065 36295 36600 36687 36790 36986 37126 37278 37341 37157 36744 36509 36454 36489 36560 36646 36777 36886 36952 36942 36690 36407 36330 36435 36675 36909 37049 37185 37420 37564 37658 37500 37183 36853 36704 36726 36789 36844 36901 36977 37035 36990 36675 36310 36182 36279 36488 36797 37032 37140 37302 37485 37614 37440 37096 36756 36632 36634 36690 36688 36723 36765 36863 36923 36767 36339 36013 35961 36087 36338 36618 36808 36947 37165 37302 37273 37004 36689 36454 36409 36417 36487 36538 36571 36674 36772 36794 36422 36014 35813 35864 36050 36394 36833 36980 37108 37377 37548 37475 37222 36984 36837 36774 36779 36827 36888 36946 37033 37132 37096 36649 36256 36089 36128 36341 36651 36985 37133 37362 37615 37672 37382 37071 36718 36556 36551 36610 36719 36775 36857 37008 37112 36854 36454 36170 36138 36304 36494 36757 36965 37100 37261 37440 37382 37118 36772 36640 36659 36725 36826 36883 36901 36989 37094 37046 36718 36366 36219 36233 36388 36533 36742 36902 37020 37145 37078 36840 36633 36543 36541 36624 36717 36836 36892 36937 37003 37056 36822 36496 36293 36253 36360 36528 36767 37038 37282 37426 37547 37467 37194 37047 37021 36999 37012 37034 37110 37222 37340 37401 37252 37000 36729 36561 36558 36663 36791 36994 37245 37475 37550 37451 37304 37127 37024 37041 37093 37122 37141 37160 37229 37289 37097 36867 36725 36613 36594 36647 36785 36936 37192 37438 37699 37717 37615 37514 37462 37503 37594 37559 37501 37428 37436 37423 37205 36929 36729 36580 36456 36438 36516 36649 36876 37168 37394 37320 37187 37107 37058 37099 37152 37065 37084 37099 37128 37199 37093 36875 36676 36581 36452 36419 36471 36556 36772 37086 37422 37564 37505 37407 37315 37262 37251 37196 37127 37068 37148 37485 37703 37470 37361 37146 36830 36791 36698 36697 36832 37086 37362 37550 37442 37304 37223 37237 37243 37283 37299 37294 37297 37358 37376 37269 37022 36838 36712 36630 36601 36605 36694 36828 37107 37420 37486 37334 37280 37244 37255 37337 37374 37317 37254 37256 37323 37324 37063 36840 36713 36690 36657 36675 36719 36825 36987 37183 37312 37239 37089 37001 37050 37150 37281 37323 37369 37342 37353 37360 37200 36890 36695 36562 36505 36520 36600 36781 36906 37116 37357 37390 37257 37218 37237 37336 37469 37448 37361 37358 37383 37443 37446 37201 36963 36826 36736 36686 36684 36760 36898 37119 37398 37607 37580 37482 37399 37360 37384 37412 37410 37455 37481 37569 37594 37497 37273 37054 36936 36817 36802 36852 36944 37093 37384 37615 37722 37629 37580 37556 37582 37635 37625 37594 37618 37643 37688 37690 37517 37242 37064 36921 36872 36867 36976 37167 37381 37571 37693 37622 37487 37419 37478 37585 37561 37550 37524 37560 37615 37596 37566 37378 37184 37032 36962 36946 36997 37117 37303 37549 37789 37855 37754 37703 37739 37822 37859 37830 37807 37763 37801 37888 37857 37591 37354 37250 37170 37143 37142 37173 37300 37539 37850 38040 37964 37863 37814 37787 37857 37980 38005 37960 37846 37894 37918 37615 37369 37267 37204 37148 37141 37167 37273 37454 37695 37996 37989 37837 37820 37904 37943 38001 38083 38064 37997 37948 37947 37672 37325 37155 37097 37035 36986 36973 37010 37111 37311 37534 37512 37328 37286 37345 37458 37498 37485 37445 37440 37454 37488 37396 37117 36944 36903 36837 36856 36897 36942 37097 37315 37578 37716 37553 37459 37525 37593 37732 37844 37843 37733 37623 37624 37639 37412 37171 37042 36959 36845 36807 36755 36823 36964 37164 37397 37442 37316 37239 37251 37295 37354 37375 37356 37322 37366 37440 37455 37226 36993 36837 36790 36726 36719 36716 36813 36885 37050 37275 37283 37125 37089 37134 37246 37329 37400 37358 37253 37245 37307 37305 37084 36846 36710 36585 36550 36590 36691 36843 37079 37370 37621 37686 37594 37494 37420 37412 37424 37487 37502 37513 37550 37583 37544 37403 37120 36855 36645 36612 36673 36849 36987 37160 37365 37490 37597 37543 37420 37299 37315 37421 37467 37472 37494 37537 37566 37614 37674 37455 37027 36784 36748 36865 37062 37307 37529 37662 37744 37976 38074 37784 37466 37306 37226 37221 37236 37302 37343 37350 37410 37508 37414 37032 36848 36874 37013 37198 37365 37568 37764 37872 38012 38054 37726 37348 37016 36845 36797 36827 36916 37015 37114 37230 37311 37280 36825 36353 36203 36194 36307 36523 36735 36940 37123 37355 37493 37331 36948 36594 36469 36520 36633 36782 36926 37023 37111 37134 37164 36930 36556 36408 36486 36637 36851 37046 37240 37464 37635 37711 37770 37530 37235 36985 36855 36903 36919 36906 36954 37028 37063 37027 36841 36533 36406 36413 36602 36851 37026 37152 37393 37612 37691 37701 37492 37130 36848 36768 36771 36801 36846 36889 36926 36845 36785 36689 36475 36336 36386 36563 36747 36872 37078 37269 37339 37379 37371 37298 37001 36785 36716 36755 36832 36925 36990 37105 37207 37245 37260 37211 36978 36852 36873 36944 37098 37325 37447 37594 37704 37817 37889 37873 37784 37751 37788 37881 38259 38395 38153 38380 38583 38659 38788 38830 38708 38604 38607 38583 38569 38574 38534 38433 38335 38287 38311 38317 38086 37780 37552 37389 37247 37424 37884 38306 38734 39186 39398 39548 39412 39097 38811 38710 38605 38593 38520 38508 38446 38421 38419 38467 38368 37930 37427 37167 37103 37218 37438 37675 37882 38020 38192 38413 38456 38213 37928 37657 37491 37479 37526 37543 37503 37496 37515 37541 37422 37009 36496 36330 36418 36645 36897 37071 37206 37388 37595 37702 37798 37610 37131 36728 36571 36566 36624 36650 36717 36808 36857 36761 36728 36534 36281 36193 36333 36508 36683 36847 37054 37213 37364 37470 37388 37176 36833 36537 36413 36399 36441 36555 36644 36555 36501 36470 36568 36772 36841 36820 36748 36767 36923 37146 37261 37379 37437 37370 37303 37351 37369 37161 36935 36836 36800 36771 36743 36754 36789 36866 37051 37312 37548 37509 37405 37370 37368 37416 37506 37462 37430 37414 37471 37585 37659 37749 37680 37369 37037 36888 36877 37007 37223 37449 37639 37756 37930 38109 38122 37951 37758 37620 37514 37548 37624 37683 37727 37795 37894 37902 37758 37401 37119 37083 37244 37451 37589 37708 37850 37975 38061 38118 38131 37935 37659 37531 37497 37442 37423 37512 37636 37587 37505 37432 37442 37401 37358 37406 37479 37621 37807 38028 38145 38201 38193 38169 38069 38032 37829 37573 37409 37416 37453 37449 37429 37393 37412 37570 37822 38045 38071 37916 37802 37803 37855 37973 37962 37982 37969 37999 38075 38100 38046 37858 37587 37413 37260 37213 37245 37356 37569 37795 38014 38166 38361 38319 38089 37862 37796 37755 37751 37784 37822 37802 37787 37844 37933 37877 37528 37152 37031 37090 37308 37609 37909 38157 38485 38725 38894 39108 39032 38730 38307 38080 38043 37959 37928 38009 38053 37998 37864 37802 37612 37382 37275 37333 37483 37618 37738 37877 38018 38045 38175 38294 38506 38424 38067 37837 37721 37635 37665 37752 37765 37710 37620 37564 37698 37751 37698 37726 37744 37802 37938 38097 38142 38201 38173 38117 38091 38123 37917 37598 37396 37358 37362 37341 37343 37350 37400 37538 37736 38006 38270 38204 38026 37958 37989 38120 38262 38369 38369 38275 38227 38215 38178 38082 37840 37587 37454 37307 37290 37321 37434 37568 37691 37937 38106 38218 38100 37957 37850 37843 37841 37856 37854 37832 37822 37830 37866 37905 38003 37899 37537 37217 37107 37188 37301 37420 37589 37779 37818 37897 37985 38046 37845 37573 37426 37359 37347 37373 37445 37476 37555 37705 37857 37930 37714 37316 37057 37022 37101 37282 37551 37679 37767 37922 38107 38199 38260 38119 37823 37573 37446 37404 37409 37458 37514 37624 37693 37644 37629 37584 37421 37227 37189 37274 37381 37478 37644 37831 37970 38074 38133 38167 38099 37803 37506 37372 37321 37353 37434 37495 37437 37423 37407 37492 37568 37696 37671 37562 37525 37631 37768 37912 38029 38069 38090 38121 38141 38188 38182 37977 37724 37532 37435 37379 37352 37326 37376 37549 37818 38079 38276 38388 38310 38136 38039 37900 37823 37794 37839 37877 37894 37895 37946 38000 37980 37661 37217 36977 36996 37198 37413 37686 37864 38031 38168 38329 38385 38344 38058 37752 37572 37474 37456 37454 37500 37579 37633 37690 37661 37614 37503 37202 37007 37029 37192 37343 37471 37658 37807 37972 38152 38265 38244 38149 37812 37468 37283 37177 37191 37253 37337 37286 37246 37246 37338 37491 37819 37966 37855 37742 37801 37917 38029 38156 38219 38217 38142 38120 38086 38066 38028 37847 37618 37492 37328 37269 37268 37389 37514 37717 37926 38092 38295 38374 38208 38009 37944 37912 37824 37798 37800 37759 37799 37820 37932 38023 37980 37614 37212 37041 37102 37264 37446 37615 37723 37823 37935 38052 38109 38138 37926 37595 37341 37289 37294 37334 37417 37533 37660 37740 37718 37709 37650 37428 37259 37269 37408 37524 37679 37871 38114 38280 38403 38497 38516 38473 38178 37811 37556 37464 37490 37572 37673 37696 37655 37635 37671 37747 37794 37808 37832 37865 38009 38170 38264 38362 38391 38396 38331 38304 38256 38214 37926 37643 37480 37380 37268 37210 37206 37322 37494 37720 37960 38136 38224 38217 38164 37998 37944 37923 37937 37947 37867 37861 37868 37871 37916 37987 37870 37467 37086 36922 37008 37165 37368 37632 37761 37872 38074 38292 38371 38196 37896 37646 37508 37397 37356 37315 37320 37367 37463 37533 37510 37473 37182 36936 36887 37009 37216 37375 37503 37684 37832 37938 38008 38061 38103 37873 37502 37210 37079 37052 37106 37225 37290 37218 37136 37115 37215 37303 37241 37191 37194 37244 37398 37540 37641 37719 37748 37749 37740 37702 37714 37580 37273 37075 37011 37017 36925 36899 36938 37067 37218 37457 37736 37910 37960 37881 37805 37708 37716 37659 37650 37577 37548 37548 37591 37655 37706 37735 37548 37176 36916 36813 36869 36981 37095 37184 37346 37482 37585 37712 37836 37688 37412 37218 37130 37113 37146 37213 37285 37363 37470 37572 37589 37610 37440 37148 36984 36994 37149 37298 37437 37574 37724 37810 37870 37904 37939 37833 37481 37188 37075 37076 37155 37284 37401 37450 37392 37349 37370 37460 37470 37321 37218 37197 37277 37460 37595 37688 37743 37771 37799 37815 37822 37820 37685 37426 37239 37175 37178 37143 37127 37133 37215 37267 37345 37461 37595 37619 37406 37300 37308 37337 37422 37513 37556 37557 37562 37585 37663 37732 37823 37680 37377 37092 36957 36987 37042 37177 37341 37487 37648 37817 38067 38216 38085 37768 37447 37283 37265 37331 37447 37565 37721 37847 37922 37878 37844 37597 37253 37142 37254 37487 37702 37816 37968 38191 38361 38517 38604 38575 38187 37698 37501 37454 37441 37492 37575 37625 37526 37423 37393 37416 37483 37402 37222 37107 37084 37170 37358 37478 37621 37726 37745 37727 37763 37828 37816 37537 37220 37057 36996 36892 36904 36933 36998 37090 37203 37351 37515 37643 37563 37431 37279 37204 37210 37217 37236 37255 37261 37287 37335 37410 37510 37406 37000 36602 36455 36483 36572 36742 36926 37094 37214 37368 37571 37756 37698 37463 37181 37055 36997 37007 37059 37113 37164 37252 37320 37281 37298 37221 37049 36908 36925 37066 37252 37361 37466 37635 37775 37878 37968 37988 37900 37549 37265 37177 37194 37206 37290 37371 37394 37426 37488 37581 37658 37754 37610 37417 37350 37413 37613 37801 38015 38140 38162 38139 38116 38130 38178 38019 37750 37517 37406 37319 37280 37283 37347 37397 37468 37626 37795 37915 37870 37708 37558 37486 37447 37495 37526 37518 37511 37542 37583 37660 37723 37666 37251 36840 36727 36765 36878 37076 37330 37482 37575 37744 37957 38124 37980 37634 37312 37171 37150 37249 37384 37433 37474 37486 37428 37342 37279 37093 36857 36722 36791 36954 37102 37223 37373 37545 37606 37663 37660 37645 37339 36969 36803 36777 36797 36870 36956 36967 36901 36844 36881 36950 36982 36875 36782 36731 36795 36962 37113 37209 37264 37270 37271 37326 37369 37336 37079 36761 36555 36484 36469 36467 36520 36608 36700 36867 37057 37201 37287 37158 36950 36811 36775 36817 36900 36977 37046 37080 37114 37157 37216 37171 36795 36445 36340 36366 36490 36719 36967 37113 37270 37433 37554 37664 37684 37403 37107 36981 36970 37030 37108 37211 37260 37225 37150 37108 37145 37170 36992 36921 36992 37074 37192 37340 37507 37614 37756 37902 37950 37936 37894 37626 37334 37193 37148 37193 37227 37168 37089 37117 37188 37328 37486 37544 37373 37231 37266 37376 37474 37540 37603 37608 37530 37551 37565 37613 37503 37247 37034 36887 36792 36820 36937 37053 37218 37454 37669 37825 37950 37914 37721 37580 37541 37573 37576 37656 37683 37681 37676 37698 37789 37834 37504 37039 36741 36677 36752 36934 37211 37427 37555 37678 37859 37947 37922 37587 37256 37012 36949 36969 37011 37070 37114 37172 37242 37235 37203 36971 36621 36447 36401 36564 36803 37022 37172 37338 37487 37611 37668 37761 37592 37217 36986 36832 36767 36790 36883 36993 37030 36948 36883 36913 36935 36756 36685 36769 36876 36986 37154 37340 37424 37517 37526 37530 37507 37467 37165 36840 36701 36692 36709 36665 36640 36629 36710 36819 36967 37199 37361 37228 37048 37041 37098 37138 37229 37403 37519 37502 37485 37482 37495 37518 37301 36945 36617 36506 36593 36723 36873 37109 37354 37534 37667 37830 37817 37585 37367 37233 37171 37092 37136 37156 37142 37147 37240 37315 37296 37045 36662 36492 36510 36620 36813 36983 37117 37231 37321 37423 37516 37581 37442 37149 36950 36875 36835 36867 36937 37047 37124 37053 36974 36999 37092 36886 36742 36721 36751 36813 36944 37098 37233 37328 37413 37428 37436 37368 37062 36776 36620 36608 36667 36752 36752 36775 36838 36968 37128 37374 37652 37509 37328 37280 37311 37342 37388 37440 37444 37487 37511 37542 37616 37669 37502 37233 36990 36816 36796 36910 37044 37191 37415 37627 37740 37886 37958 37686 37332 37143 37061 37040 37055 37055 37052 37069 37127 37235 37327 37274 36909 36573 36436 36495 36620 36803 36950 37101 37236 37381 37476 37607 37708 37494 37216 37018 36922 36975 37050 37175 37236 37165 37111 37101 37175 37180 37071 37060 37084 37208 37398 37580 37652 37651 37656 37588 37606 37632 37600 37283 36988 36839 36826 36750 36727 36776 36846 36947 37137 37380 37585 37695 37582 37444 37333 37307 37331 37371 37321 37301 37266 37223 37293 37415 37497 37168 36679 36376 36358 36483 36727 37040 37336 37544 37713 37976 38168 38152 37777 37400 37054 36979 36971 37022 37009 37043 37110 37206 37205 37159 36928 36621 36474 36525 36772 37122 37390 37606 37811 37897 37934 37933 37950 37580 37169 36954 36872 36793 36825 36964 37010 36952 36929 36931 37027 37061 37009 36996 37008 37048 37266 37425 37513 37566 37609 37575 37563 37586 37600 37303 36928 36763 36726 36739 36732 36747 36849 36958 37110 37381 37627 37691 37491 37337 37298 37279 37373 37454 37468 37450 37456 37444 37452 37501 37518 37194 36732 36527 36530 36660 36881 37168 37402 37554 37696 37889 38065 38080 37866 37614 37430 37355 37344 37351 37337 37349 37406 37479 37464 37395 37126 36828 36862 37149 37547 37923 38194 38452 38625 38770 38830 38739 38543 38216 37782 37511 37303 37243 37265 37313 37216 37139 37044 37121 37247 37421 37437 37273 37128 37110 37220 37369 37495 37502 37424 37372 37380 37407 37446 37339 37040 36797 36688 36587 36548 36557 36648 36787 36912 37096 37340 37488 37416 37189 37007 36912 36879 36890 36943 37019 37020 37016 37006 37107 37234 37240 36830 36418 36230 36261 36414 36641 36914 37091 37270 37496 37710 37879 37896 37677 37329 37134 37043 37021 37062 37076 37152 37263 37282 37235 37176 37020 36826 36725 36783 36926 37050 37162 37260 37378 37472 37539 37607 37676 37477 37111 36840 36720 36678 36749 36845 36828 36825 36814 36910 37073 37309 37458 37379 37248 37238 37364 37506 37582 37627 37624 37620 37643 37665 37697 37528 37217 36960 36847 36809 36827 36884 36981 37106 37277 37430 37570 37624 37415 37126 36853 36701 36667 36683 36713 36675 36621 36611 36716 36850 36908 36678 36705 36734 36833 36970 37133 37324 37589 37924 38225 38556 38885 39101 39028 38993 39067 39274 39542 39868 40180 40451 40705 40874 41036 41075 40726 40508 40453 40427 40480 40642 40894 41064 41159 41257 41408 41587 41766 41616 41467 41436 41465 41566 41665 41754 41819 41849 41908 42003 42121 42203 41894 41448 41022 40711 40483 40339 40234 40125 40021 39863 39646 39511 39339 38722 38066 37690 37545 37603 37781 37985 38112 38156 38319 38440 38494 38504 38249 37867 37565 37469 37518 37596 37691 37691 37667 37641 37677 37723 37754 37583 37514 37515 37578 37721 37870 37971 37996 38074 38086 38253 39045 39684 39948 39789 39432 39111 39038 39284 39745 40317 41099 42132 42838 42785 42803 42455 42168 42111 41845 41816 41979 41839 41396 41028 40810 40774 41027 41221 41124 40656 40436 40262 40201 40349 40421 40265 40303 40721 40530 40224 39962 39663 39526 39654 39890 40051 40005 39934 39843 39757 39870 39959 39650 39445 39585 39367 38896 38571 38462 38718 39110 39430 39625 39606 39681 39635 39758 39614 38991 38791 39161 39359 38913 38833 38802 39028 39394 39698 39758 39373 39087 38791 38912 38861 38455 38290 38629 38841 38502 38311 38335 38409 38475 38568 38576 38461 38417 38406 38777 39014 38570 38493 38816 39151 38562 37983 37555 37565 37828 38123 38363 38321 38378 38338 38696 39024 38625 38289 38697 38865 38246 37980 37904 38124 38434 38728 38690 38609 38647 38546 38711 38743 38158 38187 38662 38694 38414 38248 38260 38610 38943 39036 38733 38391 38090 38244 38516 38220 38135 38557 39057 38650 38582 38600 38712 38844 39049 39120 39103 38967 39063 39556 39209 38917 39276 39840 39396 38821 38295 38127 38220 38440 38474 38590 38516 38513 38938 38679 38302 38402 38791 38485 37893 37719 37839 38123 38482 38725 38727 38842 38760 39079 39320 38800 38291 38313 38600 38079 38009 38077 38374 38793 39064 39013 39129 38796 38695 38543 38064 37872 38187 38539 38139 38042 38074 38380 38756 38970 38762 38494 38203 38310 38156 37765 37898 38388 38424 38160 38043 38134 38098 38214 38148 38322 38387 38371 38855 38673 38413 38801 39149 38777 38368 37990 37878 38032 38366 38419 38634 38575 38748 38676 38303 38372 38773 38473 37789 37401 37426 37704 38198 38311 38592 38660 38649 38980 38542 38106 38166 38342 37797 37639 37723 38056 38513 38910 38905 39207 39133 39000 39059 38497 38246 38569 38693 38300 38222 38315 38635 39047 39251 39142 38924 38561 38776 38426 38052 38228 38846 38465 38417 38449 38604 38716 38880 38823 38847 38762 38732 39337 39118 38781 38990 39540 38852 38468 38132 38176 38475 38772 38841 38861 39016 39392 39855 39474 39279 39636 39433 38771 38544 38695 38974 39361 39429 39387 39312 39226 39526 39026 38545 38545 38892 38569 38347 38241 38477 38800 39029 39016 38785 38315 38388 37894 37618 37843 38453 38474 38203 38169 38353 38534 38729 38664 38746 38717 38689 39095 38678 38525 38844 39165 38552 38112 37820 37850 38160 38507 38495 38755 38665 38875 38802 38469 38293 38555 38373 37751 37571 37703 38041 38545 38666 38979 39122 38931 39122 38605 38224 38405 38801 38406 38240 38185 38403 38787 39058 38988 38858 38483 38504 38295 37966 38018 38619 38596 38385 38288 38142 38095 38349 38323 38514 38513 38558 38845 38471 38418 38812 38808 38195 37828 37770 38025 38458 38671 38922 38933 38774 39031 38568 38170 38245 38430 37997 37918 38018 38301 38737 39703 40463 41832 42544 42671 42842 42956 43065 43151 42796 42038 41733 41666 41552 41497 41085 40840 40389 40241 40310 40077 40164 40583 40424 39591 39015 38733 38697 38989 39022 39202 39153 38931 39086 38914 38471 38553 38679 38051 37839 37928 38249 38616 38857 38910 38883 38357 37960 37724 37231 37346 37819 37755 37565 37510 37690 37823 38023 38183 38595 38454 38323 38124 37974 38319 38970 39266 38769 38350 38163 38065 38298 38389 38516 38348 38344 38516 38187 38110 38424 38514 37874 37707 37818 38080 38517 38759 38941 38900 38543 38447 38121 37702 37834 38204 37722 37612 37710 37841 37902 38196 38130 38060 37810 38099 37790 37701 37968 38656 38607 38062 37795 37892 38062 38447 38692 38806 38705 38740 38737 38360 38284 38629 38479 38065 37980 38243 38390 38730 38721 38852 38449 37996 37665 37189 37108 37600 38024 37899 38038 38364 38421 38577 38637 38792 38714 38507 38668 38515 38460 38876 39121 38496 38265 38184 38481 38897 39267 39473 39532 39277 39442 38906 38514 38591 38953 38729 38975 39404 40140 40530 40738 40766 40523 40272 40743 40765 40888 41283 41693 41860 41648 41582 41064 40575 40679 40911 41100 40656 40599 40562 40199 40273 40576 40080 39392 39013 39052 39266 39687 39710 39765 39565 39430 38980 38402 38386 38699 38403 38059 38046 38258 38548 38950 39004 38658 38127 37862 37671 37337 37679 38326 38173 37994 37829 37699 37779 38129 38291 38471 38301 38225 38466 38171 38159 38482 38020 37349 37151 37390 37793 38449 38644 38820 38622 38152 38246 37749 37505 37838 38180 37762 37614 37712 37817 37886 37867 37813 37818 37526 37477 37544 37294 37526 38116 37823 37093 36715 36829 37196 37687 37948 38094 38051 37850 37812 37384 36952 37196 37551 37380 37390 37513 38059 38432 38621 38325 38229 37828 38098 38299 38038 38262 38778 39158 38634 38141 37971 38350 38685 38611 38628 38661 38807 39332 38994 38839 39182 39436 39078 38717 38614 38969 39400 39552 39339 39127 38591 38576 38851 38333 38249 38731 38946 38435 38112 37912 37987 38309 38326 38447 38419 38224 38280 37926 37645 37729 37921 37625 37263 37172 37379 37700 38003 38074 38114 37569 37096 36958 36513 36514 37010 37599 37417 37424 37143 37083 37281 37460 37419 37342 36916 36916 37185 38519 39491 40133 40096 39517 39554 40309 40723 41198 41356 41025 40341 39768 39628 39345 39386 39672 39948 39217 38834 38542 38283 38177 38127 37877 37476 37071 36848 37113 37106 37330 37711 37187 36464 36181 36376 36790 37237 37220 37250 36938 36477 36347 36116 36168 36750 37198 37210 36956 36893 36973 37009 37132 36959 36889 36553 36392 36405 36125 36427 36974 36896 36147 35809 35848 36276 36729 36999 37048 37069 36612 36241 35717 35584 36038 36641 36690 36569 36638 36873 36970 37170 37132 37115 37002 36734 36776 36778 36572 36699 37006 36605 36190 36131 36492 36933 37483 37543 37733 37344 36839 36682 36089 36167 36772 37237 36912 37011 37126 37275 37467 37555 37470 37411 37127 36997 36872 36646 36865 37347 37184 36587 36402 36725 37072 37527 37659 37760 37616 37246 37225 36911 36537 36968 37702 37485 37623 37770 37963 38163 38370 38168 37879 37752 37845 38568 38356 38529 39202 38838 38032 37717 37732 38093 38446 38627 38687 38575 38178 38001 37510 37591 38462 38617 38016 37808 37734 37832 37933 37911 37828 37887 37783 37940 37661 37810 38489 39089 38332 37428 36997 37093 37483 37848 38093 38347 38335 37931 37948 37569 37407 38081 38667 38106 37747 37736 37604 37575 37676 37547 37606 37438 37536 37863 37758 37942 38506 38374 37490 37047 37037 37353 37769 38080 38256 38543 38328 38285 38246 37689 37629 38225 38361 38078 38103 38260 38187 38149 38061 38005 38120 38158 38573 38708 38520 38685 38884 38842 38356 38026 38027 38392 38822 39000 39259 39063 38673 38765 38265 38029 38149 38658 38733 38477 38317 38159 38274 38538 38599 38875 39092 39894 40548 40107 39940 40387 41560 40984 40358 39987 40217 40615 40713 40583 40334 40066 40437 40354 40104 40164 40644 40579 39895 39596 39122 39038 39074 39142 39082 38952 38677 38455 38532 38235 38013 38192 38076 37367 37144 37132 37385 37811 38069 37842 37346 36876 36484 36348 36254 36574 37310 37542 37166 36702 36489 36644 36901 37049 37349 37414 37255 37463 37252 36905 36892 37212 37041 36734 36795 37125 37543 38118 38312 38464 38136 37792 37997 37788 37651 38030 38337 38204 37709 37354 37436 37800 38123 38034 38175 38313 38951 39420 39331 39262 39615 40016 39489 39167 39249 39469 39812 39881 39424 39131 38890 38771 38745 38351 38373 38825 38750 38123 37712 37585 37839 38207 38532 38660 38719 38720 38796 38662 38235 38030 38225 38481 37918 37838 37863 38035 38273 38262 37912 37739 37451 37264 37315 37096 37237 37815 38171 37474 37147 36963 37187 37631 38016 38089 38007 38075 38125 38279 38022 37974 38273 38855 38109 37917 37886 38112 38177 37878 37796 37744 37496 37470 37720 37524 37388 37784 37968 37369 37110 37042 37344 37696 37957 38070 38490 38285 37988 38087 37614 37326 37498 37834 37448 37379 37430 37542 37606 37771 37763 37960 37860 37818 38157 37881 37688 37756 37697 37033 36753 36780 37104 37497 37901 37970 38137 37725 37350 37254 36873 36897 37350 37455 37141 37095 37095 37086 37303 37535 37633 37911 37834 37834 38115 37835 37567 37555 37376 36827 36696 36862 37286 37661 38084 38201 38149 37663 37255 37298 37033 36871 37235 37656 37322 37168 36983 37017 37254 37585 37771 38006 37860 37790 38052 37810 37353 37404 37644 37233 36968 37010 37292 37594 37993 37990 37726 37303 36883 36902 36604 36633 37081 37607 37194 36793 36461 36573 36910 37388 37613 37918 37870 37801 37905 37419 37070 37228 37304 36946 36935 37077 37377 37697 37918 37679 37368 36895 36667 36905 36744 36746 37233 37503 36829 36243 35983 36130 36491 36911 37069 37299 37248 37200 37150 36563 36400 36743 36923 36639 36565 36705 36949 37212 37232 37126 36984 36815 36938 36829 36690 37099 37488 37015 36384 36080 36258 36638 37116 37320 37590 37642 37323 36955 36650 36167 36331 36907 36928 36790 36834 37080 37119 37253 37268 37312 37155 36987 37107 36999 36861 37212 37479 37117 36551 36381 36621 36908 37375 37563 37821 37651 37180 36997 36826 36607 37069 37644 37378 37447 37636 37805 37980 38274 38331 38533 38483 38406 38546 38576 38239 38229 38385 37766 37545 37652 38011 38490 38832 38980 38656 37999 37637 37248 37090 37462 37621 37516 37622 37382 37319 37609 37773 38059 38202 38129 38246 37987 37854 37748 37738 37192 36674 36580 36787 37175 37577 37864 37928 37749 37193 37072 37164 36837 36920 37461 37543 37292 36994 36744 36970 37326 37665 37949 38132 37927 37988 37810 37345 37169 37355 37078 36809 36903 37175 37559 38040 38094 38100 37692 37381 37559 37208 37157 37464 37917 37402 36814 36430 36605 37005 37446 37770 38120 38029 37821 37678 37015 36772 37093 37348 37055 37046 37140 37412 37623 37721 37598 37530 37348 37282 37495 37146 37164 37427 37364 36734 36538 36629 37057 37496 37923 38047 38148 37849 37671 37117 36925 37221 37761 37702 37397 37385 37376 37474 37740 37915 38078 38155 38072 38204 38321 37918 37711 37963 37704 37231 37351 37652 38073 38494 38645 38553 38210 37969 38138 37871 37727 38013 38634 38414 37917 37675 37730 38016 38378 38386 38645 38589 38508 38564 38178 37774 37836 38283 38062 37788 37852 38159 38447 38648 38536 38419 38225 38119 38347 38015 38007 38443 38495 37885 37438 37383 37704 38036 38489 38598 38813 38470 38133 37785 37415 37420 37862 38175 37849 37820 37643 37677 37969 38398 38689 38975 38994 39517 39927 39426 39081 39466 39411 38475 38244 38321 38615 38987 39284 39012 38614 38011 37764 37782 37428 37506 38089 38248 37526 36979 36781 36919 37322 37611 37734 37884 37816 37965 37470 37086 37157 37669 37422 37074 37095 37377 37651 37816 37623 37443 37214 37074 37318 37063 37043 37430 37508 36759 36351 36293 36650 37170 37667 37856 38130 37869 37470 37421 37102 36769 36982 37441 37366 37145 36959 36887 36943 37240 37317 37524 37520 37445 37668 37603 37222 37147 37386 37177 36748 36705 36879 37249 37697 37766 37470 37109 36773 36699 36739 36548 36778 37354 37243 36482 36057 36100 36473 36920 37372 37438 37545 37471 37189 37157 36666 36594 36999 37134 36767 36803 37050 37322 37547 37640 37500 37633 37535 37617 38110 37858 37545 37554 37384 36766 36641 36851 37175 37577 37975 38053 37838 37403 37148 37487 37310 37664 38539 39274 38495 37838 37315 37286 37454 37931 37843 38040 37919 38074 38026 37330 36860 37034 37191 36919 36921 36855 37097 37353 37469 37063 36628 36130 35820 35804 35594 35495 35948 36203 35629 35327 35320 35740 36222 36703 36794 36756 36320 35848 35735 35473 35428 35889 36437 36371 36161 36057 35974 36037 36331 36383 36406 36338 36165 36299 36123 35896 35888 36111 35755 35585 35739 36226 36746 37336 37519 37267 36934 36626 37066 36988 36992 37474 37989 38018 37509 36874 36816 37044 37182 37246 37418 37200 37146 37895 39468 40065 40675 40923 40799 40363 39970 40076 40051 39838 39406 38970 38609 38272 38188 37776 37613 37726 37739 37197 36651 36441 36718 37082 37436 37525 37735 37444 36950 36722 36387 36148 36364 36958 36966 36668 36342 36162 36226 36510 36610 36662 36652 36491 36476 36644 36203 35987 36194 36406 36054 35912 35985 36330 36749 37013 36530 36079 35619 35531 35693 35526 35689 36122 36461 35817 35249 35041 35274 35741 36275 36362 36643 36492 36230 36139 35944 35546 35798 36367 36451 36356 36288 36268 36335 36572 36630 36769 36757 36666 36897 36790 36544 36469 36646 36376 35935 35856 36120 36571 37072 37393 37091 36642 36116 35987 35848 35719 35933 36446 36311 35680 35175 35107 35402 35767 35898 36140 36071 35868 35629 35539 35268 35304 35729 35993 36015 36179 36560 37200 37406 37426 37480 37535 37340 37253 37465 37034 36983 37169 37027 36573 36436 36483 36820 37249 37679 37871 37830 37358 36888 36934 36565 36438 36847 37211 37098 36768 36395 36498 36852 37165 37250 37326 37190 37067 36982 36533 36468 36793 36876 36664 36579 36614 36959 37299 37422 37156 36910 36630 36421 36467 36141 36198 36771 37085 36478 35874 35659 36065 36515 36988 36993 37083 36700 36185 36100 35750 35608 36137 36695 36658 36472 36309 36366 36631 36975 37080 37368 37413 37319 37627 37362 36852 36938 37011 36754 36479 36509 36901 37296 37661 37346 36973 36368 36007 36216 36029 35911 36441 36894 36552 35939 35740 35985 36480 36892 37030 37206 37075 36750 36567 35991 35775 36239 36279 36074 36090 36350 36654 36923 37078 36837 36622 36537 36831 36838 36751 37646 38674 37800 36902 36716 37016 37558 38055 38319 37960 37358 36705 36474 36236 35959 36206 36828 36567 36502 36222 36293 36819 37131 37197 37250 37070 36946 36991 36696 36282 36352 36671 36740 36747 36818 37247 37518 37563 37412 37316 37057 36952 37235 36981 37177 37839 37726 37156 36384 36096 36318 36613 36958 36905 36930 36314 35992 36012 35720 35714 36243 36724 36534 36449 36231 36220 36513 36943 37079 37223 37128 37059 37161 36615 36458 36887 36992 36686 36479 36552 36925 37355 37527 37125 36814 36476 36360 36481 36267 36461 37278 37058 36374 36023 36086 36630 37306 37667 37890 38047 37757 37531 37199 36708 36653 37126 37089 36785 36713 36723 36934 37280 37422 37536 37552 37363 37291 37561 37096 36860 37117 37005 36679 36554 36630 37049 37507 37599 37281 36975 36582 36519 36453 36362 36556 37033 37005 36370 35979 36116 36662 37243 37629 37834 37999 37684 37447 36938 36581 36663 37201 37163 36790 36706 36639 36694 36935 36954 37057 37068 36986 37159 36922 36590 36461 36668 36090 35969 36169 36746 37351 37970 37864 37581 37148 36824 36944 36650 36533 37027 37347 36689 36240 36085 36406 36820 37202 37355 37510 37372 37015 36759 36150 36018 36501 36435 36202 36280 36546 36681 36777 36782 36700 36509 36450 36579 36376 36291 36516 36679 36166 35734 35775 36151 36608 37057 37239 37218 36671 36240 36215 35812 35843 36361 36896 36685 36131 35728 35931 36360 36844 36916 37152 36970 36774 36679 36104 35807 36096 36509 36405 36374 36392 36673 36836 36928 36759 36779 36644 36549 36721 36514 36251 36193 36244 35882 35653 35764 36291 36849 37289 37201 36841 36255 35943 36119 35841 35932 36480 36931 36682 36056 35705 35902 36382 36931 37079 37244 37162 36943 36764 36405 36037 36223 36768 36699 36533 36497 36569 36759 36987 36850 36823 36671 36544 36680 36375 36089 36426 36895 37076 37130 37243 37685 38318 38839 38827 38301 37895 37664 37971 37632 37433 37630 38181 37835 37236 36837 37143 37654 38108 38075 38283 38057 37707 37550 36894 36608 36890 37344 37099 37057 37029 37223 37472 37772 37748 37768 37644 37543 37713 37250 36784 36760 36772 36278 36275 36531 37154 37749 38158 37829 37432 36930 36663 36909 36658 36558 37002 37284 36528 35908 35769 36234 36817 37465 37569 37706 37157 36564 36427 35928 35895 36467 37016 36909 36785 36386 36438 36681 37118 37062 37162 36906 36724 36858 36450 36024 36150 36468 36164 36064 36132 36571 37048 37204 36745 36406 36026 35847 36012 35726 35771 36141 36135 35498 35179 35300 35946 36631 37072 37038 36864 36256 35768 35721 35337 35412 36013 36538 36427 35846 35386 35649 36153 36610 36581 36544 36362 36219 36116 35412 35196 35612 35973 35893 35744 35942 36451 36839 36997 36673 36555 36346 36207 36509 36279 36172 36332 36480 35944 35571 35669 36189 36804 37480 37264 36767 36078 35634 35254 34963 35116 35647 35892 35541 35193 35014 35374 35858 36028 35931 35986 35762 35510 35530 35020 35045 35504 35846 35631 35597 35592 35756 35980 36281 36083 36042 35956 35923 36072 35868 35799 36120 36224 35998 35770 35767 36067 36581 36932 36698 36390 36121 36088 36273 36261 36149 36404 36403 35847 35031 34822 35157 35586 36130 36489 36550 36156 35510 35205 35085 35113 35527 36069 36372 36125 35585 35107 35108 35189 35242 35179 35226 35376 35579 35394 35062 35146 35596 36002 35879 35840 35924 36199 36304 36524 36435 36308 36232 36243 36625 36516 36372 36405 36454 36455 36248 36126 36358 37024 37533 37538 37197 36641 36309 36233 36224 36008 36223 36908 36923 36470 36197 36199 36753 37185 37505 37599 37670 37038 36505 35822 35522 35401 35816 36148 36348 36366 36219 36444 36724 37015 37058 37167 36972 36812 36887 36474 36361 36709 36939 36604 36533 36671 37230 37659 37868 37628 37278 36934 36747 36961 36668 36525 36431 36519 36072 35894 36034 36447 36921 37621 37846 37703 37181 36628 36300 36472 36339 36592 37208 37083 36266 35867 36034 36486 37087 37360 37335 37343 36907 36507 36082 35745 35942 36661 36948 36654 36547 36329 36396 36646 36903 36816 36830 36629 36624 36617 36175 35953 36177 36295 35939 35953 36216 36706 37041 37101 36506 36049 35753 35719 35883 35782 35991 36524 36498 35923 35634 35733 36377 36999 37545 37600 37077 36564 36258 36677 36434 36466 37153 37497 36894 36297 35873 36026 36433 37002 37131 37103 37073 36871 36691 36555 36099 36415 36930 36816 36510 36359 36264 36247 36445 36479 36459 36348 36301 36308 36488 36094 36058 36375 36348 36100 36092 36244 36661 37144 37324 37029 36738 36601 36607 36788 36811 36958 37305 37390 37161 37011 37043 37323 37721 37999 38044 37786 37365 37021 36970 37343 37066 37236 37855 37904 37368 36859 36647 36860 37317 37832 37996 38204 38036 37647 37430 36828 36630 36962 37322 36955 37074 36917 36959 37142 37561 37803 37963 37994 37975 38101 38103 37538 37271 37484 37278 37007 36972 37239 37675 37731 37801 37468 37259 37206 37339 37673 37435 37335 37367 37303 36866 36475 36403 36711 37303 37813 37991 37707 37281 37089 37174 37206 37120 37281 37699 37520 36926 36556 36512 36899 37407 37772 37932 37911 37363 36881 36691 36981 37039 36902 37326 37819 37470 36825 36519 36485 36775 37244 37589 37738 37821 37410 36987 36911 36648 36534 36804 37382 37472 37005 36570 36276 36370 36780 37201 37629 37756 37748 37453 37089 36934 36964 36900 37007 37294 37574 37222 36679 36175 36111 36366 36767 37198 37509 37490 37272 36855 36566 36558 36577 36578 36828 37282 37220 36811 36457 36299 36428 36801 37232 37541 37691 37715 37486 37099 36972 37019 37090 37101 37295 37665 37791 37375 36858 36663 36815 37136 37430 37719 37802 37681 37201 36795 36715 36552 36579 36886 37421 37505 36991 36479 36202 36286 36630 37013 37393 37583 37568 37115 36696 36526 36610 36464 36577 36900 37317 36985 36328 35901 35875 36197 36579 36951 37328 37502 37260 36801 36438 36345 36423 36328 36534 37072 37272 36766 36218 35941 35999 36365 36770 37187 37367 37272 36747 36219 36043 36152 36000 36088 36519 37003 36570 36177 35961 35711 35630 35814 36297 37050 37738 38106 37960 38084 38326 38545 38771 39275 39246 39352 39735 39573 39738 39729 39879 40052 40441 40799 40756 40526 40364 40410 40528 40723 41045 41457 41761 41583 41140 40886 40650 40535 40526 40598 40831 40795 40267 39719 39356 38859 38560 38626 38914 38919 38471 37789 37172 36908 36960 37147 37292 37306 37080 36720 36250 36061 35934 35857 35885 36121 36581 36454 35904 35301 35050 35160 35516 35844 36171 36205 36105 35606 35206 35124 35288 35279 35292 35546 35982 35832 35131 34547 34433 34641 35012 35432 35819 35866 35285 34515 34174 34154 34242 34290 34480 34965 35445 35056 34424 34067 34062 34368 34841 35247 35756 36031 35912 35692 35489 35627 35401 35407 35591 36057 35845 35159 34715 34692 35014 35483 35843 36329 36362 36075 35555 35272 35334 35818 35921 36043 36496 36655 36255 35762 35471 35572 35918 36304 36662 36833 36649 36100 35605 35439 35592 35549 35641 35955 36279 36015 35467 35037 35021 35337 35785 36181 36475 36354 35802 35152 34848 34956 35273 35455 35594 35846 35976 35492 34928 34645 34756 35144 35561 35924 36191 36149 35610 35248 35138 35313 35446 35572 35774 36173 35970 35304 34829 34810 35132 35562 35934 36303 36378 35917 35340 34989 35023 35301 35484 35606 35890 36307 36002 35403 34998 35040 35422 35830 36300 36646 36529 35925 35272 35098 35224 35322 35399 35653 36069 35823 35179 34750 34822 35143 35529 35910 36335 36570 36261 35600 35232 35253 35493 35689 35737 35984 36385 36014 35452 35100 35135 35464 35890 36262 36698 36677 36274 35734 35451 35514 35654 35675 35887 36314 36194 35481 35037 35021 35381 35833 36201 36584 36790 36465 35718 35170 34939 35024 34974 35165 35648 36084 35937 35457 35161 35274 35557 35941 36337 36784 36770 36053 35288 35036 35106 35265 35207 35419 35946 35775 35201 34805 34863 35347 35843 36263 36733 36805 36565 35904 35383 35248 35406 35285 35372 35814 36191 35944 35299 34946 35032 35399 35932 36361 36654 36742 36273 35689 35409 35530 35487 35510 35801 36367 36412 35852 35407 35361 35631 36147 36634 37075 37238 37187 36663 36263 36143 36326 36231 36350 36695 36973 36632 35987 35622 35713 36191 36620 36919 37174 37210 36720 36044 35680 35627 35873 35903 36140 36676 36993 36667 36116 35795 35816 36122 36585 36963 37216 37312 36801 36207 35877 35910 35817 35808 36198 36681 36641 35984 35496 35483 35881 36390 36891 37366 37486 37215 36600 36128 35948 35987 35861 36163 36676 36873 36387 35891 35652 35845 36228 36734 37181 37373 37397 36949 36388 36098 36125 36073 36043 36323 36841 36957 36449 35900 35733 35927 36316 36784 37193 37307 37064 36496 36023 35885 35855 35794 36066 36600 36948 36751 36081 35666 35703 36006 36440 36875 37212 37186 36668 36050 35790 35814 36021 35978 36062 36470 36844 36447 35971 35735 35871 36210 36649 37035 37327 37313 36793 36213 35994 36080 36220 36125 36398 36907 37011 36345 35838 35698 35905 36272 36572 36921 37263 36942 36276 35975 36047 36362 36386 36441 36841 37268 36971 36301 35947 35966 36285 36671 37063 37524 37550 37054 36435 36138 36222 36395 36483 36690 37092 37221 36575 36104 35928 36136 36525 36897 37366 37618 37403 36816 36362 36399 36787 37067 37047 37269 37713 37939 37724 37380 37267 37423 37824 38354 38877 39508 39164 38350 38010 37896 38039 38334 38214 38325 38656 38008 37126 36602 36528 36789 37092 37448 37841 37893 37307 36634 36313 36278 36517 36620 36745 37148 37312 36618 36051 35832 36014 36414 36835 37251 37443 37078 36311 35721 35613 35789 35968 36038 36268 36725 36724 36036 35531 35451 35887 36473 36967 37418 37483 37006 36347 35992 36112 36139 36276 36566 37041 37217 36587 35983 35723 35882 36257 36770 37176 37402 37260 36710 36136 35886 35804 35747 35941 36405 36801 36619 36091 35744 35832 36172 36668 37074 37436 37558 37301 36777 36357 36349 36456 36395 36561 37035 37168 36655 36209 36084 36328 36736 37103 37460 37606 37325 36737 36260 36094 36086 36052 36220 36679 37147 37323 36874 36390 36331 36640 37120 37477 37841 38000 37877 37397 36934 36818 37127 37279 37666 38488 39047 38924 38042 37351 37099 37197 37371 37660 38062 38217 38074 37559 37078 37032 37071 36986 37087 37420 37786 37660 37050 36598 36574 36845 37213 37495 37807 37843 37498 36995 36782 36861 37113 37293 37471 37826 38115 37843 37151 36650 36497 36669 37076 37432 37725 37749 37220 36670 36534 36605 36629 36773 37075 37473 37531 36773 36171 36048 36295 36703 37095 37519 37727 37411 36634 36067 35935 36031 36098 36349 36774 37026 36691 36153 35799 35881 36254 36662 37111 37529 37471 37014 36430 36148 36225 36470 36560 36765 37025 37197 36784 36169 35803 35874 36310 36824 37221 37494 37600 37229 36729 36472 36499 36508 36697 37010 37387 37546 37104 36745 36509 36738 37152 37632 37919 37927 37967 37688 37312 37182 37255 37266 37447 37699 37972 37922 37411 36989 36951 37178 37597 37986 38224 38169 37949 37484 37180 37161 37271 37224 37428 37829 38040 37898 37422 37091 37146 37393 37770 38164 38189 37991 37824 37504 37336 37193 37257 37508 37784 38082 38167 38037 37676 37445 37604 37911 38281 38590 38669 38630 38424 38152 37930 37795 37582 37653 38054 38337 38325 38176 37756 37611 37839 38124 38465 38657 38577 38409 38188 38024 37987 37989 37868 37979 38413 38683 38644 38503 38203 38108 38333 38621 38887 39093 38908 38649 38295 37901 37621 37472 37354 37563 37973 38196 38131 37870 37441 37312 37521 37817 38166 38287 38099 37896 37733 37561 37590 37271 37216 37525 37902 37895 37471 37083 36780 36856 37174 37504 37789 37938 37874 37698 37548 37347 37015 36933 37194 37605 37861 37743 37593 37384 37177 37182 37459 37696 38012 38017 37834 37621 37406 37202 37038 36822 36962 37300 37470 37273 37223 37190 37134 37232 37503 37800 38051 37982 37808 37688 37703 37606 37356 37199 37395 37759 37944 37741 37630 37529 37497 37617 37864 38235 38423 38440 38360 38263 38215 38126 37961 37735 37899 38269 38267 38022 38044 38046 38093 38288 38517 38740 38725 38691 38588 38554 38552 38362 37971 37889 38118 38444 38350 38241 38297 38328 38274 38446 38726 39019 39088 39142 39020 38969 38938 38841 38678 38401 38494 38779 38773 38456 38378 38261 38222 38404 38650 38981 39007 38932 38819 38794 38844 38786 38471 38353 38559 38825 38735 38549 38498 38461 38437 38655 38837 39125 39183 39099 38962 38922 38984 38909 38545 38374 38578 38775 38664 38454 38416 38326 38340 38470 38729 38997 38944 38819 38663 38629 38742 38752 38472 38307 38483 38642 38523 38249 38118 38073 37979 38071 38263 38551 38530 38348 38078 38049 38191 38134 37773 37682 37913 37987 37715 37695 37825 38045 38092 38159 38331 38264 38273 38186 38178 38283 38524 38388 38091 38060 38178 38037 37743 37705 37823 38038 38141 38150 38193 38003 37943 37884 38000 38238 38325 38137 38055 38203 38373 38165 37976 37944 38065 38165 38265 38348 38159 37886 37959 38231 38532 38752 38679 38328 38157 38134 37970 37752 37741 37881 38103 38377 38350 38348 38077 37925 37872 38069 38330 38510 38422 38262 38297 38276 37883 37675 37674 37815 38005 38308 38426 38397 38067 37984 38019 38223 38466 38509 38480 38315 38244 38155 37878 37766 37805 37998 38257 38588 38660 38430 38123 37987 37992 38098 38392 38481 38651 38627 38533 37988 37517 37588 37894 38380 38788 39038 39047 38635 38239 38065 37997 38132 38350 38526 38553 38527 38387 38011 37771 37754 37850 38170 38534 38785 38667 38010 37397 37052 37108 37289 37428 37467 37671 37694 37395 36909 36778 36911 37254 37681 38047 38416 38541 38069 37592 37250 37277 37428 37428 37501 37786 37968 37519 36726 36399 36467 36872 37338 37720 38157 38140 37704 37134 36876 36895 37154 37190 37395 37677 37761 37161 36624 36429 36508 36824 37252 37658 38018 38001 37603 37093 36856 36887 37100 37157 37299 37571 37768 37199 36516 36240 36392 36751 37165 37618 37984 38015 37656 37154 36873 36921 37046 37090 37296 37660 37752 37027 36376 36052 36260 36608 36969 37408 37741 37622 37037 36360 36133 36202 36220 36392 36701 37063 37107 36570 36044 35887 36141 36623 37052 37456 37237 36914 36491 36200 36181 36283 36472 36762 37059 37216 36857 36156 35620 35653 35971 36340 36838 37007 36842 36610 36254 36014 36039 36122 36301 36531 36867 37015 36776 36200 35817 35922 36277 36737 37096 37250 37133 36765 36271 35908 35902 35837 36016 36374 36696 36620 36421 36120 36063 36338 36767 37198 37496 37603 37497 37266 36942 36723 36489 36394 36547 36851 36893 36726 36581 36482 36192 36060 36145 36417 36749 37128 37480 37798 37891 37893 37901 38019 38238 38661 39128 39471 39731 39530 39311 39179 39118 39227 39528 39699 39924 39971 39379 38811 39125 39364 39815 40141 40572 40631 40678 40315 39983 39908 40024 40346 40595 40798 40930 41070 41009 40682 40497 40591 40913 41069 41289 41300 41322 40930 40575 40451 40437 40619 40868 41274 41595 41849 41765 41348 41034 41054 41248 41307 41217 41067 41064 40858 40585 40367 40193 39949 39967 39946 39886 39812 39560 39032 38765 38760 38644 38403 38230 38191 38282 38372 38312 38223 38246 38086 38059 38040 38100 38245 38195 37907 37750 37795 37782 37528 37455 37470 37640 37841 37783 37730 37616 37448 37490 37532 37673 37801 37821 37646 37473 37403 37278 37105 37039 37095 37301 37621 37725 37671 37422 37168 37125 37197 37341 37533 37690 37617 37386 37208 36887 36751 36741 36903 37209 37534 37702 37658 37209 37008 36967 37067 37294 37560 37707 37859 37832 37635 37216 37131 37196 37547 37952 38493 38813 38806 38446 38033 37956 37794 37813 37761 37847 37995 37949 37577 37218 37105 37156 37376 37747 38088 38405 38491 38103 37836 37625 37594 37771 37860 37966 38098 38204 37535 36912 36699 36825 37142 37660 38027 38341 38362 37862 37259 36922 36852 36975 36974 37110 37477 37700 37200 36674 36389 36440 36776 37305 37641 38011 37936 37412 36585 36194 36178 36257 36518 36837 37167 37252 36750 36181 35931 36164 36420 36695 37186 37264 37025 36719 36380 36279 36342 36506 36654 36804 37018 37043 36686 36131 35736 35778 36132 36495 36954 37021 37005 36894 36579 36285 36171 36093 36188 36463 36659 36446 36406 36125 35918 36047 36337 36701 36986 37011 36959 36749 36740 36764 36815 36673 36663 36884 36907 36555 36321 36250 36188 36227 36388 36670 36600 36600 36533 36616 36802 36817 36564 36442 36605 36844 36881 36690 36597 36676 36703 36732 36846 37023 36929 37046 37239 37494 37781 37785 37418 37251 37344 37352 37062 37109 37327 37762 37831 37759 37739 37498 37343 37339 37340 37463 37670 37779 37552 37454 37406 37298 37187 37264 37379 37613 37975 38046 37895 37545 37197 36948 36895 36997 37098 37073 36958 36964 36859 36753 36719 36806 37081 37535 37990 38157 37949 37525 37228 37122 37285 37581 37732 37846 37860 37683 37249 36809 36747 36965 37372 37850 38266 38480 38189 37687 37391 37429 37540 37702 37746 37899 38265 38165 37780 37633 37632 37858 38157 38475 38898 39170 39238 38751 38099 38003 38547 38965 39254 39692 40116 39318 38404 37813 37750 38331 39296 40133 40128 39691 39161 38511 37999 37750 37697 37683 37663 37778 37876 37468 36962 36566 36530 36749 37024 37251 37493 37440 37099 36482 36173 36121 36113 36250 36419 36611 36700 36440 35918 35326 35009 35109 35607 36192 36714 36742 36422 36116 35872 35761 35627 35668 35964 36340 36427 36162 35984 35780 35905 36320 36661 36994 37179 37346 37322 37295 37192 37082 36986 36873 36972 37275 37365 37387 37276 37102 36898 36916 37098 37395 37553 37661 37745 37803 37732 37252 37043 37090 37214 37047 36966 36874 36939 37148 37213 37321 37553 37717 37696 37626 37664 37872 38069 38062 37788 37726 37829 37923 37713 37771 37978 38260 38428 38440 38522 38490 38666 38744 38804 38948 39168 39303 39024 38861 38829 38749 38484 38274 38207 38378 38595 38589 38479 38365 38316 38339 38266 38259 38301 38253 37985 37847 37763 37628 37672 37782 37918 38104 38501 38596 38455 38266 37921 37773 38573 39069 39761 40584 41046 40998 40335 39475 39128 38926 38756 38816 38968 39141 38975 38104 37541 37316 37366 37505 37564 37684 37808 37543 36883 36352 36149 36220 36491 36887 37353 37687 37610 37168 36670 36203 36406 36649 37023 37346 37459 37316 36830 36392 36291 36406 36689 37083 37393 37731 37811 37457 36780 36371 36383 36604 36756 37031 37397 37686 37299 36730 36407 36483 36961 37363 37808 38193 38499 38163 37603 37254 37175 37194 37220 37377 37692 37799 37440 37125 36952 37152 37513 37887 38269 38381 38506 38383 38084 37872 37930 37955 38021 38208 38339 38312 38024 37750 37533 37652 37878 38165 38388 38565 38522 38521 38484 38330 37993 37871 38027 38416 38489 38374 38409 38496 38425 38512 38764 39082 39185 39169 39192 39120 39079 38987 38690 38394 38415 38670 38741 38658 38658 38685 38712 38680 38739 38874 38855 39094 39133 39151 39220 39306 38938 38662 38727 38626 38449 38241 38236 38393 38720 38871 38855 38695 38420 38186 38006 38053 38267 38411 38278 38051 37886 37729 37603 37552 37644 37808 38076 38372 38403 38217 37890 37759 37756 37933 38156 38367 38422 38123 37841 37443 37113 37090 37174 37355 37748 38087 38232 37878 37681 37509 37501 37672 37859 37970 38261 38658 38450 38363 38360 38431 38522 38725 38972 39131 39313 39236 39166 39026 38987 38925 38719 38734 38895 38750 37712 36931 36490 36585 36970 37290 37641 38074 38139 37995 37536 37209 37095 37128 37217 37451 37814 37929 37592 37041 36694 36676 36997 37377 37717 37882 37800 37500 36965 36634 36536 36477 36726 37100 37288 37068 36799 36466 36318 36606 36904 37261 37645 37782 37771 37789 37742 37591 37412 37201 37290 37654 37854 37787 37666 37553 37248 37112 37295 37611 37770 38017 38098 38006 37911 37717 37224 36965 37276 37809 38147 38171 38063 38025 38052 37909 37792 37636 37297 37093 37006 37209 37525 37715 37586 37449 37443 37487 37390 37469 37718 38256 38668 38660 38511 38254 38066 37935 37944 38040 38192 38250 38119 37920 37628 37422 37227 37219 37389 37755 38146 38317 38118 37640 37205 37039 37162 37397 37583 37737 37844 37661 37244 36791 36638 36828 37204 37601 38084 38493 38165 37578 37104 37043 37214 37499 37626 37789 38105 37970 37237 36509 36245 36423 36817 37349 37765 38062 37878 37317 36702 36548 36634 36809 37013 37340 37677 37767 37125 36381 36102 36244 36617 37096 37506 37746 37777 37519 36903 36558 36522 36593 36706 37070 37518 37626 37270 36722 36406 36491 36865 37303 37702 37965 38147 38193 37779 37408 37176 37123 37097 37290 37636 37700 37524 37006 36594 36498 36821 37195 37583 37773 37853 37705 37459 37180 36970 36883 36964 37146 37348 37315 37159 37026 36793 36815 37103 37479 37821 37850 37866 37782 37733 37667 37608 37530 37484 37587 37708 37557 37292 37139 37023 36994 37214 37481 37720 37757 37772 37668 37710 37816 37612 37385 37367 37521 37562 37467 37347 37359 37505 37562 37637 37822 37854 37853 37938 38159 38307 38379 38223 38160 38172 38124 38018 37816 37745 37867 38090 38294 38330 38304 38058 38480 38755 39149 39330 39387 39230 39077 38993 38589 38007 37731 37680 37711 37862 38243 38254 37695 37309 37169 37269 37402 37609 37711 37825 37730 37501 37174 36837 36870 37101 37427 37878 38360 38581 38060 37581 37247 37175 37315 37514 37533 37742 37929 37468 36741 36430 36448 36812 37269 37792 38211 38293 37943 37273 36820 36636 36789 37019 37219 37518 37715 37308 36437 35854 35741 35958 36418 36870 37426 37701 37433 36675 36208 36184 36297 36456 36562 36825 37203 37236 36764 36221 36117 36348 36729 37195 37715 37955 37911 37596 37161 36983 36914 36879 37055 37399 37753 37844 37504 36993 36761 36834 37071 37557 38039 38252 38241 38203 37793 37460 37254 37152 37215 37448 37688 37747 37555 37125 36815 36950 37278 37616 37903 37940 38027 37982 37825 37692 37614 37497 37472 37658 37859 37843 37552 37468 37257 37241 37444 37775 38092 38208 38334 38215 38127 38112 37991 37749 37754 37852 37693 37273 37102 37169 37370 37425 37665 37820 38051 38212 38331 38274 38312 38428 38237 38060 38046 38123 38149 38127 38117 38221 38391 38526 38461 38435 38463 38353 38267 38188 38258 38376 38384 38197 38121 38067 37973 37753 37735 37888 38128 38435 38389 38196 37815 37741 37840 38035 38220 38366 38482 38364 38152 37868 37671 37485 37566 37836 38159 38533 38775 38484 37784 37419 37372 37563 37814 37990 38129 38248 37980 37600 37045 36837 36943 37283 37718 38165 38590 38298 37719 37327 37281 37439 37643 37770 37857 38131 38210 37645 37033 36727 36786 37112 37487 37795 38053 37911 37564 37036 36886 36991 37232 37382 37565 37866 38016 37567 36805 36478 36571 36899 37342 37782 38105 38098 37948 37456 37208 37167 37203 37320 37592 37974 38094 37834 37142 36688 36663 36913 37243 37682 37914 37953 37920 37609 37286 37093 37048 37230 37539 37872 38096 38026 37744 37377 37305 37503 37851 38167 38242 38147 38030 37903 37820 37740 37609 37558 37708 37907 37864 37621 37479 37346 37268 37402 37727 38071 38137 38115 38000 37965 38003 37870 37620 37532 37674 37797 37745 37607 37490 37491 37440 37498 37691 37910 37748 37555 37434 37503 37760 37878 37719 37538 37555 37633 37591 37403 37320 37516 37688 37782 37851 37896 37706 37589 37477 37569 37886 38178 38042 37717 37619 37616 37458 37239 37200 37406 37758 37904 37836 37649 37466 37514 37621 37855 38041 38211 38250 38030 37784 37684 37703 37748 37834 38026 38346 38694 38595 38182 37864 37778 37846 38015 38240 38489 38626 38474 38188 37775 37502 37456 37497 37715 37989 38293 38501 38185 37660 37411 37316 37545 37855 38073 38235 38415 38205 37697 37193 37045 37141 37385 37726 38091 38445 38489 37938 37450 37166 37232 37456 37722 37866 38117 38270 37769 36979 36576 36609 36885 37369 37715 38055 38388 38099 37593 37178 37099 37296 37505 37702 37954 38162 38268 37767 37030 36697 36725 36990 37324 37729 38142 38495 38156 37605 37153 36982 37108 37342 37485 37672 37914 37992 37530 36860 36535 36529 36776 37194 37628 38058 38362 38176 37670 37088 36846 36940 37150 37345 37533 37789 37997 37403 36934 36559 36517 36742 37093 37411 37621 37863 37817 37419 36856 36549 36545 36674 36860 37057 37252 37351 36950 36356 35957 35827 35852 35997 36290 36677 37051 37148 36919 36798 36789 36794 36859 36989 37089 37112 37116 36883 36445 36132 36046 36121 36227 36380 36533 36653 36667 36428 36366 36415 36530 36777 36979 37158 37369 37498 37308 36757 36299 36082 36048 36162 36334 36439 36664 36695 36493 36358 36437 36498 36654 36775 36989 37126 37214 37256 37015 36616 36397 36364 36333 36352 36382 36478 36647 36540 36244 36068 36180 36508 36904 37208 37303 37378 37571 37441 37094 36906 36905 36899 36912 36935 36952 36844 36723 36458 36211 36026 36167 36347 36574 36845 37151 37445 37387 37148 37121 37199 37342 37513 37689 37772 37713 37561 37107 36628 36380 36300 36399 36429 36675 36782 36870 36827 36753 36827 36933 37055 37297 37543 37648 37693 37792 37495 36956 36528 36402 36406 36387 36398 36462 36523 36621 36289 36056 36176 36519 36840 37015 37103 37334 37573 37476 37143 36926 36896 36935 37023 37150 37228 37311 37244 36924 36317 36061 36043 36106 36293 36588 36914 37154 37074 36838 36658 36520 36606 36750 36767 36698 36330 35957 35718 35653 35703 35872 35920 36046 36080 36159 36310 36479 36250 35966 36025 36346 36570 36694 36805 36881 36872 36596 36119 35802 35656 35616 35702 35813 35880 36001 36003 35753 35705 35914 36162 36285 36411 36655 36882 37000 36987 36727 36410 36179 36140 36200 36235 36225 36236 36302 36216 35900 35634 35689 35972 36309 36621 36746 36864 37033 36802 36371 36138 36026 36013 36053 36055 36020 35945 35849 35509 35239 35153 35288 