38446 38443 38434 38422 38439 38434 38441 38436 38401 38326 38249 38196 38136 38114 39702 39670 39659 39661 39672 39649 39627 39599 39561 39510 39493 39457 39390 39273 39150 39063 38986 38946 38906 38870 38819 38773 38725 38678 38621 38530 38385 38164 37962 37758 37581 37458 37326 37194 37075 36950 36798 36662 36510 36280 35997 35769 35626 35519 35430 35316 35217 35113 34998 34908 34840 34794 34701 34533 34350 34241 34140 34064 33972 33866 33726 33642 33697 33971 34192 34292 34242 34161 34082 34026 34023 34019 33968 33933 33866 33836 33793 33763 33728 33609 33449 33236 33108 33102 33174 33186 33172 33152 33100 33043 32950 32854 32686 32510 32340 32205 32064 31944 31807 31691 31603 31509 31452 31424 31380 31237 31109 30999 30932 30885 30846 30800 30767 30710 30682 30662 30631 30573 30492 30404 30341 30317 30313 30345 30457 30558 30613 30647 30632 30678 30788 30985 31287 31554 31696 31747 31710 31656 31602 31674 31834 32002 32122 32162 32034 31953 31930 31986 32045 32089 32086 32074 32032 32034 32036 32037 32029 31965 31894 31852 31822 31813 31799 31760 31696 31595 31507 31452 31417 31401 31356 31311 31257 31169 31090 31059 31099 31031 30970 30875 30800 30703 30597 30497 30403 30390 30463 30520 30578 30808 31082 31250 31297 31252 31200 31162 31083 31027 30966 30923 30892 30874 30864 30870 30910 30935 30983 31049 31098 31095 31063 31066 31049 31042 31038 31012 31066 31041 31078 31129 31165 31161 31097 31049 31001 31012 30996 30997 30977 30947 30940 30918 30939 30940 30985 30994 30961 30945 30961 30979 31005 31004 30994 31023 31040 31040 31051 31052 31037 30984 30959 30928 30928 30936 30927 30933 30919 30909 30899 30886 30900 30884 30843 30837 30846 30872 30906 30920 30924 30930 30915 30922 30941 30941 30926 30903 30873 30857 30867 30901 30935 30974 31009 31045 31099 31143 31188 31202 31209 31200 31230 31262 31304 31318 31330 31340 31356 31357 31393 31409 31426 31388 31380 31382 31404 31428 31449 31459 31480 31487 31500 31513 31549 31541 31515 31498 31487 31507 31541 31557 31587 31585 31624 31639 31666 31682 31675 31671 31636 31628 31652 31661 31678 31699 31716 31721 31758 31795 31853 31858 31829 31818 31835 31850 31881 31899 31924 31949 31970 32003 32032 32053 32051 32032 32028 32033 32069 32116 32133 32157 32177 32226 32336 32415 32449 32390 32286 32195 32131 32096 32093 32100 32120 32123 32123 32127 32088 32035 31965 31886 31814 31794 31788 31799 31777 31766 31748 31722 31733 31720 31700 31634 31550 31494 31471 31485 31502 31501 31485 31463 31454 31409 31392 31355 31376 31491 31632 31779 31934 32056 32105 32117 32166 32187 32226 32247 32224 32170 32140 32155 32184 32187 32182 32194 32202 32211 32214 32205 32178 32130 32104 32083 32089 32103 32126 32094 32079 32058 32060 32060 32072 32095 32063 32032 32020 32015 32031 32069 32085 32079 32097 32111 32117 32134 32141 32139 32074 32054 32035 32062 32064 32078 32068 32044 32018 32004 32004 32038 32158 32297 32370 32396 32355 32267 32204 32153 32140 32148 32147 32176 32203 32219 32253 32306 32315 32281 32261 32237 32126 32085 32070 32066 32059 31986 31913 31857 31776 31714 31622 31591 31689 31934 32188 32422 32602 32800 32912 32917 32918 33027 33121 33257 33410 33482 33548 33562 33584 33532 33494 33468 33456 33459 33433 33447 33489 33558 33755 33923 34071 34168 34209 34208 34152 34083 33987 33918 33842 33819 33831 33876 33894 33828 33759 33747 33812 33914 34020 34121 34198 34242 34302 34351 34338 34344 34319 34263 34210 34207 34147 34082 34032 33983 33962 33940 33950 33964 33944 33926 33898 33827 33720 33640 33563 33533 33515 33497 33494 33486 33482 33481 33502 33522 33521 33518 33458 33387 33327 33314 33314 33277 33288 33290 33270 33276 33274 33283 33277 33249 33216 33153 33104 33092 33084 33081 33054 33019 32954 32897 32873 32882 32897 32936 32978 33021 33064 33115 33194 33242 33285 33342 33371 33364 33395 33438 33482 33546 33593 33607 33632 33613 33570 33539 33447 33350 33292 33252 33236 33313 33422 33603 33799 33928 33984 33989 33999 34004 34067 34101 34133 34133 34102 34104 34095 34105 34120 34097 34078 34094 34113 34125 34161 34142 34094 34143 34205 34267 34295 34375 34451 34535 34724 34824 34884 34850 34890 34918 34903 34884 34820 34755 34678 34609 34526 34459 34412 34366 34325 34282 34257 34215 34205 34227 34228 34216 34142 34094 34057 34050 34068 34081 34171 34338 34452 34464 34410 34323 34239 34127 34033 33976 33901 33835 33771 33678 33551 33469 33344 33264 33170 33173 33098 32962 32908 32837 32778 32661 32522 32397 32292 32215 32130 32063 31941 31831 31758 31669 31672 31701 31787 31856 31936 31974 32058 32104 32128 32115 32062 32013 32010 31997 32001 32024 32025 32017 31968 31908 31875 31859 31817 31737 31643 31566 31537 31516 31512 31470 31448 31388 31333 31293 31288 31289 31304 31246 31201 31161 31155 31138 31143 31141 31133 31132 31137 31137 31128 31142 31149 31118 31082 31072 31076 31103 31109 31131 31148 31178 31172 31194 31202 31220 31252 31248 31221 31194 31176 31177 31181 31204 31218 31221 31212 31239 31265 31272 31286 31318 31342 31337 31323 31311 31333 31363 31381 31406 31417 31447 31470 31493 31509 31531 31549 31585 31575 31567 31558 31553 31576 31584 31597 31620 31628 31622 31649 31658 31696 31703 31712 31726 31707 31688 31674 31664 31677 31689 31701 31695 31725 31728 31744 31772 31785 31810 31835 31854 31862 31867 31928 31958 31976 31955 31969 31974 32047 32122 32286 32584 33003 33526 33967 34242 34470 34602 34693 34716 34683 34614 34552 34396 34229 34231 34423 34677 34838 34853 34877 34871 34774 34680 34601 34504 34398 34288 34175 34075 34093 34174 34233 34310 34409 34547 34739 34997 35241 35437 35579 35731 35891 36041 36153 36223 36279 36305 36364 36456 36570 36646 36705 36799 36923 37038 37166 37300 37379 37388 37397 37405 37411 37405 37453 37498 37559 37637 37681 37735 37745 37760 37747 37704 37697 37674 37696 37770 37853 37920 37990 38061 38020 37884 37646 37369 37306 37400 37551 37736 37862 37915 37928 37876 37854 37891 37876 37824 37738 37655 37601 37540 37474 37412 37322 37243 37180 37115 37080 36992 36861 36730 36587 36479 36398 36327 36250 36171 36089 36030 35955 35892 35804 35628 35453 35303 35157 35047 34947 34838 34757 34659 34604 34553 34507 34483 34426 34319 34192 34081 34025 33972 33950 33913 33869 33840 33801 33770 33761 33729 33722 33703 33671 33576 33463 33378 33324 33283 33265 33243 33214 33197 33187 33152 33151 33144 33123 33123 33097 33053 32941 32856 32788 32750 32722 32696 32681 32648 32630 32610 32598 32582 32583 32563 32553 32541 32495 32384 32327 32297 32271 32274 32271 32258 32220 32210 32205 32183 32188 32169 32173 32164 32153 32115 32065 31994 31968 31973 31973 31971 31969 31970 32009 32016 32050 32080 32077 32082 32102 32104 32095 32064 32028 31980 31989 32017 32003 32003 31994 31976 31946 31928 31915 31932 31909 31913 31914 31892 31854 31799 31793 31773 31799 31800 31803 31797 31817 31808 31812 31844 31867 31898 31885 31852 31797 31752 31676 31634 31589 31563 31552 31591 31615 31645 31648 31651 31650 31637 31636 31617 31546 31511 31478 31467 31452 31421 31413 31389 31393 31393 31392 31380 31369 31378 31352 31311 31293 31296 31305 31319 31308 31305 31288 31281 31293 31306 31327 31324 31313 31294 31248 31251 31262 31265 31293 31303 31298 31312 31299 31310 31333 31352 31350 31330 31286 31284 31311 31332 31339 31355 31355 31357 31372 31368 31387 31393 31413 31358 31334 31316 31312 31317 31328 31342 31340 31326 31346 31343 31345 31367 31353 31339 31311 31282 31308 31314 31331 31341 31336 31343 31366 31366 31381 31412 31437 31433 31389 31377 31377 31387 31423 31444 31434 31455 31475 31486 31503 31531 31529 31541 31530 31496 31490 31488 31513 31537 31544 31572 31578 31585 31617 31638 31659 31682 31666 31662 31628 31621 31638 31639 31683 31691 31703 31701 31709 31724 31735 31753 31758 31736 31701 31661 31660 31653 31678 31683 31654 31672 31670 31678 31699 31698 31727 31729 31697 31670 31642 31652 31673 31696 31707 31722 31722 31726 31740 31768 31778 31786 31765 31756 31734 31747 31781 31792 31830 31831 31832 31864 31884 31902 31922 31950 31924 31881 31886 31882 31893 31906 31916 31922 31924 31952 31957 31974 31992 32002 31962 31953 31933 31942 31973 31983 31997 32011 32009 32012 32036 32045 32077 32067 32054 32024 32011 32016 32025 32059 32045 32060 32074 32068 32090 32107 32114 32106 32051 32032 32002 32022 32069 32098 32174 32233 32330 32404 32457 32500 32534 32535 32534 32581 32644 32677 32743 32798 32844 32891 32966 33004 33028 33024 32986 32914 32867 32818 32824 32834 32835 32839 32851 32871 32917 32911 32937 32942 32958 32931 32888 32889 32900 32902 32909 32920 32905 32882 32896 32895 32913 32903 32871 32833 32813 32797 32804 32821 32851 32869 32888 32910 32953 32969 33000 32999 32975 32943 32959 32996 33006 33031 33018 32994 32977 32962 32907 32843 32801 32709 32608 32519 32463 32417 32387 32400 32466 32541 32600 32623 32598 32539 32472 32362 32304 32258 32250 32226 32215 32202 32203 32207 32176 32194 32216 32201 32165 32112 32082 32072 32082 32064 32074 32081 32087 32085 32097 32098 32128 32137 32181 32215 32251 32271 32304 32312 32313 32275 32251 32238 32222 32222 32220 32212 32222 32187 32132 32097 32073 32074 32084 32089 32106 32122 32118 32135 32142 32153 32159 32166 32168 32127 32084 32050 32044 32033 32069 32073 32065 32079 32102 32117 32145 32193 32239 32329 32371 32372 32389 32452 32516 32619 32754 32935 32954 32950 32970 32997 32974 32954 32924 32873 32795 32716 32654 32602 32548 32512 32499 32512 32527 32556 32557 32573 32573 32596 32605 32553 32537 32538 32556 32590 32597 32610 32590 32603 32613 32621 32625 32588 32552 32472 32387 32278 32219 32182 32224 32262 32316 32365 32417 32489 32546 32618 32639 32634 32590 32528 32485 32456 32463 32455 32453 32438 32432 32442 32444 32444 32463 32417 32385 32347 32329 32313 32314 32347 32342 32329 32314 32315 32312 32293 32292 32263 32228 32188 32160 32172 32167 32168 32155 32176 32186 32214 32259 32325 32443 32568 32766 33056 33228 33428 33577 33646 33784 33915 34022 34072 34113 34132 34137 34123 34076 34060 34007 33971 33917 33869 33833 33761 33707 33655 33610 33570 33517 33451 33391 33327 33281 33241 33237 33224 33177 33194 33260 33312 33386 33399 33418 33354 33270 33222 33200 33185 33157 33128 33066 33041 32979 32961 32948 33018 32981 32905 32756 32751 33035 33478 33810 33837 33912 34398 34811 35000 35135 35184 35200 35115 35036 34919 34795 34715 34730 34765 34945 35132 35539 35850 36050 36200 36322 36435 36589 36648 36690 36706 36675 36609 36516 36417 36290 36136 35913 35674 35484 35313 35140 34997 34862 34753 34640 34571 34519 34439 34318 34153 33981 33829 33730 33655 33588 33510 33414 33335 33285 33226 33147 33042 32969 32904 32877 32909 32941 33004 33008 32966 32932 32873 32809 32730 32651 32593 32550 32504 32460 32421 32358 32327 32269 32236 32183 32088 32037 32011 32013 32021 32039 32022 31986 31960 31943 31929 31894 31860 31837 31806 31809 31838 31846 31860 31860 31827 31804 31793 31781 31765 31726 31714 31742 31743 31761 31771 31757 31736 31707 31707 31727 31716 31705 31684 31664 31684 31756 31822 31884 31942 31979 31999 32014 32037 32045 32038 32033 32047 32075 32085 32110 32126 32116 32096 32081 32047 32040 32029 32041 32059 32097 32138 32195 32232 32269 32308 32340 32349 32373 32406 32452 32504 32534 32563 32565 32578 32584 32619 32593 32579 32579 32562 32563 32597 32596 32612 32607 32594 32565 32558 32572 32615 32635 32651 32657 32678 32668 32681 32689 32724 32727 32694 32685 32717 32707 32723 32709 32732 32762 32735 32758 32787 32806 32825 32803 32784 32817 32861 32885 32896 32902 32950 32978 32971 33012 33046 33073 33059 33037 33024 33021 33032 33031 33001 32974 32956 32946 32999 33062 33122 33196 33241 33290 33349 33451 33539 33639 33678 33704 33689 33717 33720 33749 33752 33780 33777 33763 33778 33824 33960 34345 34759 34995 35052 35082 35087 35073 35008 34895 34808 34740 34687 34634 34597 34527 34478 34437 34415 34375 34356 34319 34281 34227 34195 34153 34161 34161 34135 34124 34078 34036 33993 33947 33889 33801 33743 33694 33675 33649 33631 33584 33569 33580 33568 33559 33556 33514 33456 33437 33435 33443 33472 33493 33487 33451 33435 33432 33414 33380 33307 33258 33240 33222 33224 33211 33198 33182 33169 33168 33161 33152 33090 33006 32972 32965 32950 32947 32929 32926 32918 32919 32912 32920 32899 32839 32765 32744 32754 32748 32776 32777 32796 32783 32798 32782 32798 32785 32727 32675 32651 32654 32683 32701 32700 32704 32702 32708 32718 32733 32756 32755 32736 32789 32860 32924 33006 33014 32902 32817 32729 32636 32578 32585 32664 32794 32929 33061 33331 33591 33651 33749 33707 33731 33693 33805 33966 34168 34371 34370 34295 34190 34114 34059 34000 33943 33929 33901 33911 33921 33918 33921 33903 33906 33909 33932 33960 34015 34015 34034 34035 34038 34046 34034 34022 34011 33993 33969 33960 33948 33903 33891 33901 33901 33911 33891 33911 33911 33958 33987 34006 34002 34053 34108 34104 34083 34104 34121 34152 34188 34216 34230 34242 34239 34266 34327 34366 34420 34444 34458 34489 34510 34577 34610 34678 34757 34808 34834 34857 34886 34908 34956 34997 35068 35118 35173 35225 35265 35294 35280 35237 35196 35184 35176 35173 35172 35169 35167 35161 35163 35172 35185 35191 35165 35120 35088 35063 35053 35050 35061 35073 35078 35086 35080 35092 35077 35057 34987 34930 34893 34860 34843 34832 34844 34830 34821 34806 34801 34812 34821 34779 34714 34646 34620 34594 34585 34572 34561 34537 34522 34501 34512 34503 34504 34448 34354 34319 34294 34298 34298 34283 34276 34263 34253 34234 34249 34238 34224 34154 34092 34055 34042 34041 34058 34044 34026 34004 34018 34028 34052 34064 34042 33955 33886 33879 33853 33852 33846 33821 33811 33810 33812 33810 33833 33829 33802 33738 33694 33660 33662 33663 33667 33646 33628 33613 33608 33608 33581 33564 33546 33484 33470 33473 33489 33510 33518 33511 33516 33525 33535 33535 33559 33543 33500 33469 33455 33465 33490 33512 33536 33539 33547 33583 33606 33634 33609 33586 33537 33508 33504 33514 33550 33554 33546 33546 33540 33539 33553 33542 33497 33473 33465 33464 33494 33498 33504 33497 33509 33532 33553 33515 33494 33431 33390 33347 33313 33320 33310 33316 33314 33412 33693 34072 34485 34758 34922 35055 35210 35306 35342 35331 35245 35189 35260 35287 35211 35123 34983 34823 34644 34558 34550 34519 34455 34367 34271 34196 34105 34031 33954 33854 33764 33667 33582 33477 33382 33299 33253 33180 33117 33042 32935 32856 32788 32732 32706 32674 32633 32582 32579 32586 32584 32591 32569 32513 32453 32436 32450 32480 32495 32516 32536 32543 32566 32594 32638 32632 32607 32554 32537 32572 32597 32621 32639 32658 32679 32701 32722 32736 32772 32774 32724 32742 32775 32868 32994 33103 33192 33272 33342 33401 33449 33503 33538 33557 33507 33510 33573 33688 33796 33908 34002 34086 34164 34262 34374 34517 34605 34686 34726 34566 34540 34538 34491 34378 34372 34348 34358 34386 34400 34361 34406 34480 34489 34424 34401 34433 34494 34604 34781 35011 35245 35371 35509 35613 35780 36042 36407 36850 37099 37342 37490 37632 37691 37717 37762 37792 37787 37822 37786 37757 37725 37695 37616 37540 37449 37395 37304 37219 37147 37051 36985 36896 36809 36735 36668 36591 36480 36366 36296 36228 36150 36073 35996 35922 35824 35753 35658 35582 35511 35391 35229 35085 34935 34815 34702 34596 34492 34406 34310 34231 34125 34057 33970 33861 33712 33572 33454 33356 33270 33230 33186 33182 33146 33122 33094 33093 33086 33024 32931 32897 32901 32920 32912 32910 32872 32843 32820 32764 32735 32696 32673 32580 32418 32296 32256 32244 32216 32229 32261 32253 32272 32260 32274 32279 32295 32242 32213 32205 32225 32338 32516 32739 32984 33203 33421 33630 33745 33850 34015 34155 34248 34350 34433 34542 34596 34651 34688 34721 34754 34863 35026 35190 35304 35473 35693 35878 35887 35880 35936 36059 36257 36515 36744 36918 37063 37152 37203 37219 37246 37306 37357 37384 37398 37414 37453 37491 37516 37534 37509 37481 37462 37461 37443 37413 37379 37337 37336 37389 37452 37482 37474 37437 37417 37405 37392 37375 37347 37286 37247 37189 37160 37090 37017 36932 36828 36734 36649 36579 36503 36400 36306 36226 36131 36072 35989 35866 35728 35596 35484 35385 35269 35157 35051 34970 34899 34889 34870 34785 34628 34501 34493 34623 34738 34749 34735 34647 34556 34460 34347 34235 34100 33935 33847 33800 33800 33787 33781 33747 33716 33673 33645 33594 33537 33414 33305 33246 33199 33175 33183 33165 33140 33102 33090 33092 33085 33103 33118 33087 32999 32909 32886 32870 32872 32879 32853 32854 32825 32837 32855 32837 32851 32838 32824 32743 32641 32592 32585 32561 32561 32572 32570 32575 32586 32600 32637 32639 32662 32670 32703 32705 32627 32549 32506 32484 32490 32474 32458 32441 32432 32438 32453 32436 32416 32404 32404 32394 32344 32285 32246 32250 32260 32285 32335 32356 32389 32390 32436 32545 32689 32880 33066 33222 33297 33339 33378 33389 33487 33534 33552 33471 33411 33416 33357 33302 33222 33161 33128 33112 33152 33217 33300 33449 33688 33907 34037 34012 33971 33950 33929 33856 33769 33685 33614 33545 33485 33417 33326 33224 33147 33111 33083 33090 33087 33094 33093 33112 33379 34183 35002 35685 35947 36021 36068 36070 36073 36127 36216 36253 36263 36278 36294 36319 36399 36432 36470 36508 36507 36469 36362 36241 36088 35972 35866 35781 35744 35760 35787 35705 35610 35521 35436 35417 35388 35233 35177 35178 35165 35121 35160 35218 35321 35345 35281 35280 35364 35519 35793 36082 36361 36589 36795 36951 37023 37001 36900 36804 36665 36534 36422 36282 36162 35970 35755 35601 35531 35462 35459 35462 35544 35634 35691 35870 36080 36332 36580 36725 36664 36589 36679 36801 36711 36549 36466 36323 36199 36099 35993 35931 35764 35592 35466 35349 35277 35273 35405 35539 35696 35763 35788 35826 35744 35605 35465 35221 35024 34843 34684 34564 34446 34311 34291 34201 34125 34087 34054 34027 33900 33795 33666 33709 33673 33655 33659 33600 33576 33657 33616 33603 33535 33471 33602 33546 34034 34417 34590 34940 35077 35155 35286 35463 35759 36058 36459 36700 36784 37048 37077 36955 36872 36745 36825 37072 37123 37055 36982 36928 36829 36796 36732 36685 36631 36620 36564 36516 36569 36680 36674 36632 36528 36418 36349 36280 36198 36144 36090 36055 36019 35949 35854 35760 35667 35563 35468 35412 35365 35308 35266 35240 35212 35146 35108 35026 34963 34882 34917 34909 34995 34954 34917 34857 34783 34728 34688 34604 34602 34673 34778 34898 34939 35032 35138 35166 35210 35215 35200 35122 35000 34922 34831 34764 34717 34797 34841 34942 35023 35119 35298 35366 35347 35428 35540 35591 35649 35559 35758 36123 36460 36872 37154 37470 37478 37540 37646 37708 37877 38044 38176 38259 38327 38420 38525 38641 38760 38934 39093 39186 39287 39337 39352 39369 39346 39309 39273 39244 39177 39069 38988 38886 38816 38796 38775 38766 38726 38678 38593 38537 38400 38255 38064 37917 37762 37618 37565 37633 37750 37824 37857 37804 37694 37543 37392 37274 37171 37260 37280 37304 37328 37367 37388 37439 37444 37427 37299 37171 37004 36870 36785 36627 36543 36421 36292 36139 35990 35777 35580 35429 35266 35152 35099 35073 35031 34973 34880 34777 34671 34541 34427 34272 34076 33926 33782 33722 33689 33784 33888 34033 34166 34361 34527 34745 34822 34887 34870 34848 34759 34774 34875 35018 35116 35193 35195 35157 35105 35099 35136 35244 35365 35547 35689 35819 35865 35871 35807 35672 35560 35407 35276 35170 35070 34983 34904 34858 34812 34765 34705 34691 34680 34683 34724 34799 34926 35041 35100 35185 35250 35244 35192 35100 34961 34883 34764 34691 34625 34548 34446 34403 34378 34313 34235 34129 34037 33989 33988 33982 34008 34033 34095 34141 34195 34180 34175 34197 34196 34211 34226 34251 34243 34248 34239 34300 34345 34367 34350 34321 34280 34231 34237 34274 34258 34225 34178 34160 34112 34016 33857 33703 33615 33545 33497 33465 33443 33439 33421 33417 33448 33386 33382 33337 33282 33231 33203 33258 33319 33368 33302 33270 33224 33174 33105 33102 33146 33219 33240 33202 33188 33267 33327 33389 33401 33445 33427 33431 33474 33465 33463 33450 33478 33516 33541 33556 33518 33468 33492 33472 33535 33550 33590 33606 33625 33660 33667 33627 33604 33580 33581 33616 33666 33704 33754 33778 33874 33886 33882 33900 33952 34017 34119 34212 34295 34382 34439 34417 34371 34366 34358 34321 34324 34270 34181 34100 34062 34102 34210 34336 34359 34351 34373 34416 34459 34528 34618 34704 34720 34713 34772 34837 34913 34906 34837 34803 34808 34803 34845 34849 34776 34683 34625 34593 34507 34466 34424 34415 34416 34457 34455 34464 34511 34513 34502 34479 34494 34587 34668 34736 34791 34820 34834 34879 34931 35010 35129 35168 35188 35224 35194 35160 35236 35227 35143 35075 35057 35017 34977 34988 34965 34998 35025 35022 35021 34969 34982 35022 35039 35049 34993 34981 34942 34884 34907 34986 34992 35056 35140 35237 35263 35226 35219 35161 35147 35125 35112 35095 35064 35040 35035 35035 35031 34964 34976 35011 35003 35006 35058 35102 35107 35110 35152 35172 35112 35056 34987 35001 35048 35060 34989 34920 34854 34786 34776 34734 34661 34598 34541 34444 34428 34405 34439 34424 34460 34483 34542 34546 34538 34495 34396 34369 34347 34380 34424 34493 34673 34831 34928 34910 34865 34874 34865 34856 34871 34927 34883 34820 34758 34750 34687 34605 34549 34505 34460 34478 34456 34465 34461 34552 34600 34627 34598 34552 34536 34555 34591 34676 34756 34845 34903 34972 35128 35214 35239 35165 35114 35046 34979 34926 34849 34803 34787 34740 34759 34785 34776 34725 34691 34662 34659 34649 34613 34606 34586 34629 34710 34778 34788 34750 34725 34714 34718 34791 34817 34885 34863 34880 34865 34895 34849 34781 34706 34714 34760 34789 34835 34922 34971 34977 34993 34998 34966 34962 34971 34985 35019 35026 35062 35073 35087 35093 35050 34976 34914 34893 34834 34863 34853 34904 34917 34895 34926 34929 34883 34830 34857 34849 34827 34847 34846 34836 34914 35045 35104 35267 35262 35243 35155 35117 35144 35291 35759 35930 36103 36294 36481 36752 36925 37058 37130 37332 37492 37677 37827 37930 38067 38165 38283 38351 38527 38534 38526 38542 38571 38672 38826 38932 38968 38967 39006 39047 39109 39117 39071 39020 39047 39132 39138 39117 39050 39032 38932 38921 38973 39035 39216 39362 39543 39638 39676 39749 39779 39844 39882 39868 39856 39830 39721 39569 39466 39351 39253 39169 39089 39021 38919 38819 38735 38656 38538 38413 38304 38255 38230 38296 38345 38447 38410 38489 38553 38567 38582 38504 38377 38204 38113 38004 37923 37770 37700 37623 37543 37458 37366 37289 37133 37053 37144 37400 37561 37716 37819 37893 37922 37928 37917 37884 37789 37683 37588 37578 37617 37690 37597 37557 37482 37444 37353 37258 37069 36885 36720 36551 36461 36353 36286 36134 36007 35926 35807 35776 35570 35432 35292 35191 35208 35248 35394 35396 35392 35358 35306 35226 35246 35114 34999 34989 35049 35240 35185 35226 35213 35225 35184 35119 35053 34989 34899 34777 34757 34680 34744 34751 34775 34717 34654 34627 34606 34633 34619 34631 34604 34583 34582 34602 34617 34645 34639 34752 34991 35281 35652 35730 36162 36218 36391 36466 36573 36601 36689 36726 37134 37278 37498 37650 37749 37746 37821 37941 38065 38123 38267 38408 38493 38545 38561 38645 38606 38570 38472 38387 38319 38241 38158 38045 37947 37872 37807 37742 37668 37520 37321 37145 36976 36849 36765 36678 36639 36625 36556 36496 36511 36539 36530 36518 36461 36531 36576 36551 36629 36744 36953 37138 37254 37272 37214 37092 36949 36771 36825 36863 37056 37240 37372 37459 37486 37504 37517 37491 37560 37628 37634 37642 37600 37551 37491 37405 37357 37288 37246 37094 36890 36679 36473 36316 36195 36072 36021 35846 35758 35647 35556 35608 35597 35601 35499 35291 35180 35146 35117 35080 34990 34898 34805 34680 34612 34360 34208 34105 33969 34013 34045 34192 34224 34305 34407 34388 34482 34753 34728 34810 34766 35006 35045 35378 35569 35923 36194 36377 36470 36650 36665 36697 36802 36771 36882 36967 37103 37174 37115 37052 36956 36868 36840 36701 36569 36394 36238 36206 36226 36127 36178 36207 36356 36368 36340 36294 36308 36421 36383 36398 36616 36711 36792 36769 36772 37137 37385 37503 37740 37873 37753 37587 37513 37503 37416 37263 37155 37114 37066 36970 36856 36691 36412 36189 36281 36367 36415 36392 36354 36314 36294 36159 36055 36139 36158 36124 36158 36207 36205 36274 36363 36485 36608 36561 36537 36428 36328 36116 35859 35693 35587 35546 35640 35620 35585 35520 35414 35335 35343 35177 35024 34897 34731 34685 34664 34723 34821 34751 34739 34705 34587 34418 34220 34074 34013 33925 33924 33941 33920 33971 34010 34167 34291 34416 34534 34701 34717 34755 34763 34812 34754 34775 34734 34675 34627 34457 34310 34125 34024 33940 33849 33809 33783 33838 33833 33816 33813 33748 33669 33771 33754 33768 33899 33948 33848 33772 33738 33766 33820 33807 33932 33995 34098 34259 34373 34456 34587 34636 34669 34659 34676 34539 34434 34315 34200 34125 34033 33994 33879 33831 33719 33626 33572 33511 33532 33529 33470 33554 33612 33691 33754 33803 33955 34013 34047 34247 34264 34326 34336 34306 34318 34236 34331 34304 34222 34155 34082 33956 33909 33856 33798 33737 33760 33792 33802 33793 33850 33880 33844 33947 34042 34057 34069 34012 34042 34051 34126 34176 34264 34323 34351 34405 34413 34486 34499 34556 34514 34492 34530 34456 34332 34234 34170 34140 34120 34160 34208 34208 34216 34225 34233 34165 34078 34005 33914 33852 33931 33981 33996 34050 34095 34179 34259 34293 34322 34223 34278 34316 34419 34478 34548 34615 34528 34540 34635 34753 34802 34810 34818 34805 34745 34749 34729 34791 34801 34761 34800 34871 34977 34976 34975 34862 34871 34840 34859 34929 34838 34976 35006 35155 35091 35249 35433 35446 35459 35593 35677 35558 35562 35647 35661 35664 35651 35678 35510 35625 35622 35559 35486 35475 35423 35476 35404 35615 35796 35737 35939 35855 35784 35638 35625 35669 35667 35578 35554 35513 35473 35486 35569 35511 35327 35178 35137 35070 35111 35039 35212 35187 35165 35191 35199 35233 35347 35293 35349 35345 35355 35381 35375 35395 35390 35466 35427 35531 35463 35447 35364 35251 35108 35241 35234 35275 35299 35298 35281 35237 35218 35219 35200 35093 35081 35049 35112 35197 35221 35260 35339 35228 35435 35499 35517 35497 35413 35344 35247 35211 35261 35101 35239 35231 35209 35156 35174 35270 35174 35090 35099 35168 35304 35273 35302 35371 35388 35506 35398 35553 35551 35475 35476 35425 35373 35456 35408 35391 35410 35489 35390 35453 35512 35427 35315 35191 35308 35359 35293 35409 35454 35482 35448 35316 35345 35347 35325 35280 35270 35174 35139 35179 35146 35237 35317 35368 35346 35452 35553 35590 35620 35613 35685 35643 35628 35542 35466 35450 35443 35441 35421 35344 35206 35107 35117 35013 34949 34869 34892 34903 34859 34921 35034 35099 35073 34945 34984 34988 34956 34940 34922 34998 35011 35030 35185 35323 35330 35303 35230 35249 35216 35223 35152 35049 35075 35081 35113 35031 35400 35334 35267 35333 35261 35296 35349 35355 35486 35512 35539 35576 35633 35700 35697 35643 35677 35737 35815 35902 35964 36041 36009 36035 35990 35906 35761 35598 35466 35300 35185 35110 35077 35023 35112 35097 35072 35038 34985 34901 34904 34934 35287 35360 35731 35831 35969 36005 36019 36179 36149 36073 35973 35920 35928 35949 35924 35882 35875 35871 35887 35936 35938 35883 35735 35571 35538 35541 35575 35568 35570 35539 35566 35575 35599 35653 35622 35620 35603 35622 35598 35654 35650 35606 35577 35519 35486 35471 35441 35460 35489 35587 35667 35822 35871 35954 35938 35973 35931 35876 35760 35626 35506 35356 35296 35262 35311 35346 35377 35383 35421 35356 35331 35257 35297 35308 35351 35325 35349 35375 35382 35477 35463 35527 35556 35563 35550 35604 35593 35594 35623 35753 35856 35960 35924 35819 35676 35506 35421 35352 35360 35443 35560 35733 35805 35796 35845 35938 35944 35825 35758 35760 35855 35788 35795 35812 35828 35800 35770 35813 35811 35804 36185 36193 36267 36346 36531 36431 36779 36992 37208 37144 37144 37207 37161 37226 37297 37337 37225 37124 37175 37206 37173 37145 37136 37086 37011 36985 36949 36937 37019 37010 37019 37063 37135 37168 37192 37155 37090 36967 36876 36790 36691 36608 36529 36395 36331 36247 36239 36191 36201 36130 36093 36092 36258 36266 36349 36439 36427 36400 36354 36352 36254 36212 36168 36145 36087 36103 36159 36203 36174 36146 36101 36039 36033 35897 35821 35758 35697 35799 35806 35817 35795 35758 35734 35748 35785 35691 35641 35635 35611 35556 35536 35558 35550 35563 35662 35789 35864 35931 35913 35888 35898 36003 36060 36107 36047 35969 35872 35889 35959 35906 35748 35612 35496 35475 35502 35465 35496 35445 35487 35474 35465 35467 35361 35334 35285 35362 35404 35455 35475 35419 35364 35380 35339 35278 35192 35169 35167 35164 35157 35227 35195 35425 35553 35683 35682 35772 35744 35840 35946 35906 36032 35956 35929 35872 35857 35815 35674 35552 35508 35386 35314 35321 35337 35347 35335 35402 35468 35451 35590 35598 35600 35645 35580 35503 35479 35494 35540 35546 35612 35644 35731 35984 36008 36025 35986 35936 35894 35719 35598 35513 35453 35471 35543 35633 35691 35588 35612 35517 35488 35413 35364 35304 35433 35520 35621 35607 35644 35658 35651 35685 35693 35877 35871 35931 35886 35830 35750 35692 35610 35487 35262 35194 35151 35231 35204 35121 35132 35250 35250 35297 35359 35369 35382 35292 35350 35334 35453 35455 35574 35604 35667 35673 35781 35696 35559 35329 35230 35216 35156 35144 35103 35077 35127 35153 35231 35198 35129 35084 35004 34974 34965 35159 35193 35399 35422 35490 35423 35430 35454 35483 35553 35760 35706 35664 35608 35527 35385 35345 35323 35169 35301 35263 35368 35407 35429 35428 35501 35364 35454 35425 35369 35270 35230 35124 35222 35352 35406 35431 35425 35419 35538 35591 35604 35417 35369 35209 35205 35171 35185 35107 35199 35212 35241 35277 35213 35138 35190 35181 35182 35217 35271 35283 35282 35322 35393 35460 35464 35495 35484 35512 35518 35563 35597 35484 35409 35308 35260 35111 35014 34913 34913 34925 35030 35055 35044 35004 35028 35072 35068 35038 34996 35003 35067 35165 35291 35397 35449 35557 35604 35607 35465 35281 35088 34945 34922 34966 35012 35047 35140 34993 35405 35575 35774 35699 35666 35549 35460 35540 35635 35621 35618 35593 35589 35707 35663 35587 35466 35364 35295 35245 35193 35112 35097 35104 35194 35196 35096 35050 35054 35000 35049 35052 35086 35127 35156 35246 35326 35250 35239 35130 35179 35191 35426 35456 35583 35513 35471 35379 35325 35226 35132 35106 35113 35104 35150 35131 35100 35082 35072 35085 35086 34994 34948 34966 35020 35116 35211 35287 35365 35559 35644 35709 35703 35640 35525 35360 35271 35295 35520 35817 35947 35986 36322 36656 36892 37157 37208 37251 37322 37413 37479 37516 37553 37649 37890 38028 38237 38263 38215 38110 38056 38055 38058 38043 38033 37955 37971 37878 37788 37629 37449 37229 37064 36948 36805 36763 36680 36635 36608 36558 36492 36336 36111 35913 35779 35663 35641 35696 35793 35914 36107 36230 36386 36502 36598 36655 36690 36941 37187 37393 37655 37788 37853 37849 37841 37841 37678 37515 37312 37147 36965 36791 36692 36606 36515 36349 36184 36208 36370 36665 36948 37239 37365 37411 37485 37528 37531 37458 37325 37167 37012 36898 36811 36848 36829 36786 36639 36767 36738 36716 36751 36691 36735 36656 36648 36397 36194 36075 35935 35879 35941 35941 35863 35731 35683 35577 35411 35267 35216 35211 35234 35267 35244 35187 35051 35455 35484 35419 35260 35094 34912 34815 34811 34716 34649 34530 34577 34421 34697 34688 34565 34416 34333 34161 34032 34076 34094 34119 34138 34179 34293 34218 34166 34176 34242 34222 34279 34316 34296 34251 34071 33950 33775 33558 33338 33221 33223 33316 33626 33789 33943 34008 34021 34103 34103 34168 34031 33952 33912 33927 34029 34191 34308 34359 34248 34207 34098 34049 33969 34017 34010 34070 34154 34170 34206 34212 34215 34381 34283 34160 34127 34102 34138 34189 34286 34271 34296 34302 34335 34354 34307 34258 34247 34249 34313 34405 34506 34518 34458 34503 34568 34630 34590 34633 34617 34745 34938 34963 34919 34879 34856 34927 35024 35098 35121 35011 34945 34989 35013 35072 35100 35093 35057 35048 35068 35022 34943 34908 34872 34903 35033 35018 35173 35236 35168 35285 35295 35335 35207 35087 34933 34897 34955 34956 35020 35036 35043 35246 35354 35441 35412 35385 35273 35200 35150 35101 35001 34921 34896 34940 34987 35087 35079 35037 35009 35050 35182 35295 35410 35470 35465 35372 35332 35357 35284 35209 35237 35280 35283 35386 35426 35505 35359 35626 35677 35761 35707 35479 35343 35121 35088 35116 35073 35278 35397 35316 35562 35600 35545 35382 35301 35260 35247 35308 35328 35326 35369 35257 35476 35460 35349 35186 35381 35232 35469 35533 35702 35766 35760 35889 36012 36055 36059 35938 35997 35945 35845 35877 35928 36065 36115 36299 36292 36258 36153 35934 35825 35865 35870 36031 36175 36133 36276 36448 36532 36379 36460 36435 36275 36361 36462 36490 36470 36494 36467 36528 36452 36554 36560 36573 36582 36429 36573 36560 36512 36546 36515 36372 36366 36349 36338 36398 36371 36352 36155 36272 36415 36236 36526 36476 36504 36476 36423 36272 36282 36168 36081 36062 36058 36105 35978 36041 36028 36018 36057 35913 36085 35890 35759 35771 35790 35801 35658 35604 35477 35445 35507 35418 35471 35323 35247 35198 35296 35389 35500 35471 35718 35747 35763 35868 35795 35678 35607 35423 35511 35424 35444 35775 35805 35803 35836 35794 35819 35644 35568 35617 35670 35573 35585 35570 35551 35521 35506 35551 35428 35417 35367 35732 35811 35879 36092 36165 36162 36189 36096 36210 36309 36319 36263 36007 35761 35580 35418 35254 35165 35093 35108 35224 35365 35557 35767 35835 35857 35968 36143 36246 36346 36456 36505 36485 36436 36340 36303 36182 35966 35767 35583 35412 35295 35208 35208 35312 35331 35513 35495 35528 35401 35237 35125 35110 35124 35190 35294 35339 35464 35485 35511 35556 35516 35421 35307 35204 35160 35124 35075 34988 34898 34839 34756 34767 34714 34718 34752 34786 34822 34814 34850 34864 34899 34921 34911 34874 34865 34908 35042 35120 35215 35354 35460 35538 35614 35800 35845 36109 35999 35977 35909 35836 35861 35868 35865 35785 35691 35665 35660 35508 35444 35370 35317 35290 35291 35279 35199 35224 35269 35341 35337 35287 35265 35270 35286 35324 35427 35522 35592 35729 35837 35905 35941 35864 35861 35818 35817 35820 35790 35755 35637 35561 35508 35473 35386 35379 35348 35317 35221 35180 35165 35205 35235 35196 35204 35217 35104 35095 35118 35128 35173 35227 35285 35382 35506 35527 35466 35423 35417 35405 35444 35465 35397 35239 35212 35228 35226 35205 35131 35010 34956 34863 34871 34932 35079 35069 35106 35154 35234 35283 35310 35283 35282 35260 35226 35368 35424 35493 35512 35577 35621 35635 35545 35425 35366 35233 35157 35142 35136 35129 35114 35150 35203 35197 35078 35072 35014 35006 35018 35127 35231 35280 35277 35300 35379 35331 35211 35187 35198 35230 35289 35332 35403 35439 35487 35547 35635 35553 35490 35465 35430 35392 35388 35412 35435 35442 35406 35460 35491 35494 35479 35473 35493 35513 35548 35545 35583 35577 35549 35664 35676 35612 35493 35497 35498 35536 35598 35666 35706 35632 35589 35659 35699 35682 35587 35482 35443 35473 35484 35487 35539 35514 35514 35675 35816 35915 35913 35864 35825 35778 35762 35767 35821 35796 35804 35804 35778 35795 35723 35672 35672 35677 35545 35497 35536 35521 35436 35414 35375 35441 35379 35313 35254 35235 35236 35243 35297 35291 35321 35378 35394 35371 35345 35309 35300 35309 35395 35493 35605 35707 35782 35747 35803 35787 35718 35628 35515 35440 35359 35370 35352 35307 35324 35305 35333 35346 35348 35275 35217 35223 35176 35151 35156 35165 35175 35147 35281 35331 35335 35330 35307 35327 35347 35448 35527 35580 35663 35644 35608 35510 35445 35326 35209 35176 35210 35319 35350 35373 35407 35364 35369 35389 35350 35257 35238 35269 35342 35406 35432 35512 35624 35577 35701 35790 35819 35845 35858 35892 35861 35921 35855 35849 35753 35681 35578 35514 35452 35398 35439 35433 35444 35408 35395 35370 35376 35413 35433 35431 35417 35472 35482 35519 35671 35728 35729 35735 35790 35801 35689 35683 35656 35698 35643 35710 35718 35701 35747 35791 35808 35697 35495 35406 35309 35316 35558 35642 35534 35845 35846 35850 35853 35799 35638 35576 35552 35546 35591 35646 35629 35594 35551 35572 35521 35425 35344 35294 35298 35301 35335 35326 35404 35416 35391 35334 35287 35157 35086 35087 35092 35145 35094 35197 35268 35338 35340 35370 35331 35296 35338 35294 35371 35450 35517 35478 35538 35518 35504 35488 35490 35371 35244 35128 35097 35014 35052 35130 35185 35170 35224 35248 35214 35165 35167 35184 35251 35323 35318 35297 35293 35305 35293 35287 35271 35237 35291 35334 35369 35381 35423 35442 35421 35384 35337 35238 35131 34980 34927 34855 34862 34889 34994 35052 35082 35108 35173 35213 35173 35084 35084 35086 35130 35171 35219 35273 35403 35491 35550 35561 35548 35569 35574 35636 35638 35673 35563 35570 35480 35380 35285 35169 35043 34982 34896 34910 34957 35039 35123 35254 35392 35429 35529 35619 35519 35502 35439 35466 35500 35542 35518 35594 35609 35710 35638 35631 35626 35540 35484 35412 35358 35279 35295 35321 35346 35417 35403 35354 35363 35214 35092 35236 35428 35572 35694 35616 35569 35512 35585 35662 35785 35899 35967 35955 35971 36026 36133 36113 36147 36196 36136 36008 35849 35746 35624 35561 35524 35575 35600 35587 35556 35506 35377 35345 35418 35504 35611 35666 35710 35639 35679 35705 35757 35796 35828 35772 35746 35723 35752 35788 35782 35878 35785 35789 35769 35727 35616 35649 35644 35708 35789 35895 35903 35997 36105 36105 36115 36035 35935 35775 35823 35785 35848 35909 35915 35871 35837 35850 35889 35729 35548 35404 35333 35339 35388 35388 35322 35240 35216 35291 35267 35248 35228 35195 35191 35343 35461 35403 35361 35353 35488 35621 35743 35645 35299 35285 35610 35801 35845 35807 35854 35796 35773 35761 35712 35647 35682 35633 35627 35719 35840 35906 35982 36070 36153 36185 36296 36383 36487 36400 36408 36350 36339 36324 36378 36380 36314 36272 36036 35695 35325 35218 35429 35738 36105 36316 36539 36693 36852 36980 37094 37166 37148 37197 37216 37172 37130 37136 37174 37207 37184 37257 37310 37293 37261 37281 37229 37125 36965 36872 36850 36831 36844 36901 36850 36869 36909 36882 36801 36732 36649 36514 36415 36440 36410 36482 36531 36504 36548 36503 36487 36388 36407 36231 36065 35920 35851 35866 35856 35813 35845 35822 35818 35897 35929 35909 35871 35789 35712 35736 35779 35864 35904 36107 36185 36204 36203 36149 36100 36165 36216 36272 36326 36277 36224 36112 36006 35885 35746 35562 35267 35027 34796 34610 34458 34419 34190 34079 34053 34085 34250 34405 34504 34515 34510 34465 34421 34378 34380 34358 34294 34220 34146 34065 33956 33780 33656 33626 33624 33646 33632 33604 33606 33613 33638 33637 33573 33491 33475 33524 33586 33703 33759 33899 33984 34089 34159 34228 34190 34055 33976 33956 34020 34071 34010 34002 33945 33924 33877 33883 33767 33663 33635 33659 33713 33798 33795 33764 33847 33887 33949 33973 33948 33962 33993 34002 34016 34132 34226 34247 34322 34399 34459 34366 34341 34311 34318 34337 34354 34372 34321 34277 34231 34183 34219 34095 34146 34111 34121 34135 34169 34221 34236 34269 34285 34291 34228 34234 34273 34332 34451 34559 34662 34756 34871 34903 34980 34961 34857 34787 34745 34675 34661 34583 34519 34504 34498 34492 34528 34504 34436 34350 34300 34422 34526 34606 34720 34800 34894 34964 34988 35012 34991 34868 34809 34780 34795 34844 34911 35029 35030 35059 35075 34944 34836 34748 34724 34733 34838 34889 34913 34968 34980 34985 34935 34902 34862 34869 34857 34893 34968 34980 35041 35038 35075 35121 35093 35087 35110 35097 35128 35173 35225 35267 35318 35361 35361 35348 35291 35185 35107 35061 34998 34982 34945 34939 34891 34832 34800 34799 34815 34771 34757 34816 34767 34734 34779 34744 34757 34748 34763 34744 34785 34758 34723 34636 34587 34612 34711 34815 34863 34921 34920 34952 34984 34958 35037 35258 35584 35740 35817 36019 36400 36741 36956 37077 37225 37307 37446 37506 37567 37610 37702 37781 37803 37801 37812 37799 37826 37928 38204 38478 38676 38893 39013 38986 38968 38916 38830 38715 38628 38525 38425 38275 37993 37688 37458 37196 37030 36860 36744 36529 36394 36329 36202 36069 35848 35659 35519 35440 35414 35468 35580 35633 35763 35876 35999 36077 35965 35872 35662 35496 35464 35447 35508 35527 35515 35538 35560 35569 35519 35347 35235 35178 35202 35350 35480 35457 35458 35427 35352 35329 35267 34993 34865 34604 34395 34317 34295 34323 34327 34395 34489 34624 34660 34491 34286 34196 34159 34193 34250 34414 34485 34568 34687 34736 34790 34730 34548 34418 34434 34519 34585 34619 34620 34637 34677 34726 34790 34842 34703 34688 34576 34617 34587 34588 34567 34771 34885 34969 35049 35115 34967 34848 34811 34804 34841 34962 34934 34985 35090 35152 35127 35085 34997 34952 35038 35162 35214 35263 35330 35439 35534 35533 35539 35804 35717 35664 35503 35418 35339 35281 35312 35232 35120 35028 35013 35235 35214 35011 34797 34736 34820 35003 35071 35048 34998 35035 35008 35030 35040 34982 34852 34846 34847 34803 34896 35112 35237 35193 35053 34959 34891 34721 34637 34719 34792 34870 34877 34869 34742 34680 34724 34745 34711 34523 34433 34429 34442 34557 34587 34595 34586 34642 34765 35033 35296 35529 35594 35489 35418 35485 35511 35555 35724 35647 35451 35265 35062 34739 34405 34185 34098 34054 34054 34056 33991 34015 34004 33957 33838 33647 33446 33459 33471 33487 33462 33451 33478 33577 33771 34061 34288 34366 34401 34497 34619 34705 34892 35249 35482 35595 35720 35807 35917 35869 35815 35803 35732 35670 35640 35623 35626 35614 35575 35538 35519 35359 35199 35060 34887 34769 34691 34628 34608 34595 34644 34685 34724 34653 34557 34435 34384 34453 34516 34591 34623 34709 34834 34901 35033 35060 35092 35035 35089 35024 35084 35056 35051 35114 35189 35344 35397 35386 35384 35393 35434 35476 35502 35563 35687 35833 35956 35982 35908 35780 35699 35624 35582 35579 35569 35438 35347 35351 35311 35263 35026 34853 34768 34741 34703 34633 34638 34705 34787 34837 34928 34961 34960 34899 35003 34847 34815 34822 34920 34904 35090 35280 35402 35480 35454 35463 35470 35462 35497 35541 35581 35677 35678 35744 35756 35628 35452 35284 35087 34944 34919 34967 34943 35010 35013 34974 34927 34804 34740 34766 34691 34684 34632 34557 34581 34605 34582 34610 34611 34653 34641 34744 34874 34968 35128 35186 35160 35146 35135 35141 35054 34930 34870 34722 34579 34538 34545 34602 34613 34671 34757 34749 34733 34696 34744 34845 34825 34923 34934 34936 34883 34895 34905 34887 34913 34965 35013 35041 35138 35263 35362 35407 35428 35443 35411 35303 35164 34985 34865 34779 34758 34837 34921 34969 34982 34961 34938 34934 34930 34991 35051 35099 35079 35028 35006 34998 35064 35158 35206 35224 35298 35459 35599 35804 35969 36188 36322 36429 36489 36400 36280 36128 35914 35705 35538 35439 35385 35370 35426 35510 35712 35822 35768 35752 35746 35755 35815 35908 36037 36146 36276 36427 36565 36578 36561 36501 36402 36363 36333 36293 36172 36097 36060 36070 36052 36029 36005 35980 35909 35827 35745 35682 35679 35617 35591 35645 35744 35826 35949 36031 35991 35986 36046 36081 36146 36184 36208 36197 36171 36168 36093 36028 35878 35766 35723 35768 35781 35814 35810 35831 35832 35803 35718 35673 35584 35569 35583 35693 35791 35893 35989 36032 36056 36092 36124 36189 36113 36003 35822 35760 35774 35775 35751 35690 35661 35659 35669 35679 35567 35475 35365 35411 35378 35399 35438 35571 35685 35779 35838 35905 35872 35884 35839 35795 35757 35694 35673 35613 35554 35559 35620 35683 35742 35634 35662 35713 35713 35807 35719 35666 35633 35637 35670 35737 35730 35735 35827 35829 35853 35945 36008 35979 35976 35940 35892 35930 35879 35859 35833 35826 35992 36096 36055 35955 35855 35859 35838 35818 35822 35887 35935 36069 36120 36226 36298 36394 36443 36428 36351 36203 36044 35946 35911 35938 35948 36017 36001 36017 36057 36051 36021 35942 35851 35780 35798 35895 35900 35964 36021 36086 36118 36288 36358 36344 36260 36127 36032 35943 35960 35968 36097 36138 36093 36114 36079 36023 35992 35950 35902 35892 36015 36127 36199 36253 36256 36227 36204 36100 36065 36009 35919 36008 36026 36011 36033 35997 36015 36052 36026 35924 35787 35705 35645 35666 35780 35692 35921 35950 35977 35895 35783 35655 35595 35612 35644 35668 35605 35607 35653 35717 35790 35808 35650 35627 35558 35599 35641 35885 36047 36014 36041 35916 35960 35920 35898 35795 35578 35940 36126 36300 36717 36790 36657 36834 36916 36880 36972 36883 36770 36758 36683 36690 36718 36721 36685 36699 36701 36831 36697 36842 36818 36791 36980 37284 37502 37578 37658 37723 37802 37852 38091 38222 38319 38408 38568 38694 38689 38808 38893 38908 38927 38951 38849 38791 38777 38731 38731 38724 38792 38793 38784 38754 38859 38925 38998 39084 39256 39313 39367 39318 39294 39266 39236 39236 39236 39181 39024 38877 38738 38592 38471 38434 38291 38101 37940 37807 37628 37467 37279 37044 36993 36924 36995 37085 37175 37187 37093 36977 36852 36707 36452 36182 35912 35646 35404 35216 35039 34871 34745 34640 34660 34690 34541 34442 34487 34423 34384 34408 34386 34319 34332 34244 34175 34165 34080 34012 33998 33975 33988 34071 34031 34041 34147 34147 34084 34091 34063 33899 33774 33798 33763 33821 33787 33727 33764 33831 33809 33835 33825 33695 33644 33709 33770 33826 33888 33830 33847 33911 33949 33955 33993 33841 34033 34042 34002 34142 34131 34058 34013 34070 34089 34064 34107 34074 34135 34102 34156 34147 34127 34185 34219 34203 34305 34425 34384 34343 34365 34430 34422 34531 34617 34663 34620 34573 34511 34553 34556 34666 34719 34738 34729 34776 34947 35125 35571 35852 36052 36251 36342 36392 36457 36421 36563 36576 36653 36871 37081 37245 37434 37531 37587 37584 37538 37517 37589 37527 37498 37579 37588 37609 37529 37365 37390 37278 37290 37403 37372 37391 37413 37353 37356 37345 37137 37324 37179 37133 37108 37135 37158 37232 37245 37275 37373 37401 37352 37416 37450 37497 37479 37495 37375 37264 37418 37473 37523 37477 37349 37183 37007 36877 36793 36656 36638 36584 36570 36599 36577 36372 36257 36131 36100 36118 36238 36303 36445 36522 36637 36752 36850 36785 36723 36696 36824 36880 36895 36959 37110 37429 37736 38083 38331 38552 38645 38558 38328 38157 37988 37783 37593 37480 37362 37241 36971 36657 36376 36152 35961 35878 35823 35709 35714 35749 35791 35864 35742 35637 35609 35599 35641 35604 35693 35623 35541 35539 35521 35411 35298 35113 35037 34943 34905 34903 34829 34814 34810 34807 34882 34818 34734 34588 34576 34514 34550 34619 34649 34662 34773 34888 34907 34812 34838 34966 35177 35335 35413 35397 35242 35056 34856 34732 34563 34302 33988 33775 33616 33581 33647 33758 33804 33790 33798 33895 33989 34041 33975 33984 34016 34095 34168 34218 34236 34321 34418 34450 34419 34328 34238 34206 34190 34261 34286 34323 34396 34412 34422 34393 34384 34347 34410 34403 34447 34477 34563 34568 34666 34807 34847 34888 34906 34882 34939 35018 35123 35153 35158 35195 35172 35289 35337 35355 35335 35309 35286 35342 35470 35456 35435 35443 35451 35393 35357 35375 35339 35314 35272 35290 35277 35245 35225 35207 35207 35213 35225 35179 35131 35166 35181 35154 35217 35195 35189 35193 35194 35265 35297 35305 35290 35220 35248 35284 35302 35336 35333 35354 35317 35348 35358 35379 35358 35338 35315 35303 35249 35237 35208 35163 35171 35200 35267 35214 35219 35209 35217 35285 35347 35449 35463 35509 35519 35494 35446 35361 35302 35230 35189 35240 35217 35247 35299 35357 35325 35266 35225 35130 35010 34971 34936 34949 34968 34979 34988 34912 34878 34855 34825 34758 34691 34659 34627 34688 34689 34722 34731 34731 34800 34871 34837 34770 34738 34752 34751 34782 34826 34837 34844 34861 34900 34967 34914 34854 34888 34896 34925 34964 35015 35064 35089 35061 35080 35125 35069 34971 34942 34947 34965 35053 35126 35216 35170 35231 35282 35331 35317 35227 35214 35241 35239 35275 35334 35336 35304 35262 35269 35319 35398 35398 35399 35363 35351 35396 35467 35513 35532 35534 35557 35550 35595 35620 35599 35636 35640 35673 35716 35793 35793 35782 35776 35788 35766 35750 35696 35652 35589 35537 35593 35620 35659 35667 35640 35647 35632 35640 35752 35628 35625 35621 35664 35695 35748 35837 35899 35986 36071 36060 36114 36071 35948 35928 35911 35907 35928 35962 35961 35969 36046 36088 36126 36103 36065 36103 36142 36288 36552 36674 36705 36807 36894 37057 37271 37424 37472 37521 37511 37557 37751 37882 37974 38172 38264 38480 38598 38809 38857 38776 38773 38649 38592 38505 38384 38345 38222 38101 37966 37933 38065 38187 38235 38328 38385 38435 38456 38405 38324 38255 38182 38084 38018 37843 37691 37561 37534 37495 37490 37449 37445 37383 37443 37371 37478 37427 37319 37166 37017 36919 36841 36805 36826 36995 37019 36947 36867 36805 36770 36626 36544 36495 36528 36472 36558 36714 36861 37134 37130 37479 37510 37546 37403 37385 37263 37240 37290 37185 37145 37049 36959 36885 36854 36772 36614 36463 36390 36268 36212 36078 36092 36081 36192 36189 36240 36446 36551 36375 36120 35898 35751 35610 35456 35303 35178 35119 35214 35287 35431 35477 35538 35481 35497 35407 35370 35285 35241 35193 35255 35392 35443 35547 35577 35473 35406 35340 35505 35730 35827 35851 35650 35827 35938 36104 36094 36019 35823 35691 35573 35605 35649 35621 35562 35530 35597 35698 35755 35818 35910 35992 36133 36100 36251 36248 36397 36484 36603 36776 36870 37000 37089 37129 36979 36923 36789 36750 36665 36683 36637 36636 36596 36525 36620 36653 36693 36715 36705 36654 36614 36702 36795 36882 36997 37032 37166 37212 37336 37335 37335 37292 37275 37294 37297 37491 37539 37570 37652 37747 37813 37873 37831 37804 37719 37656 37588 37534 37543 37421 37380 37339 37289 37153 37070 36960 36735 36448 36173 35960 35771 35700 35704 35798 35752 35643 35637 35649 35749 35662 35576 35676 35764 35895 35675 36268 36282 36595 36715 36892 37035 37169 37332 37326 37259 37218 37272 37248 37235 37113 36968 36812 36766 36849 37019 36981 36887 36710 36627 36533 36425 36356 36268 36141 36190 36156 36393 36554 36721 36788 36793 36840 36981 37148 37335 37528 37696 37848 37931 38146 38361 38358 38316 38156 38046 37955 37872 37841 37711 37641 37494 37400 37374 37242 37083 36870 36813 36910 37056 37301 37528 37765 37785 37878 37850 37809 37744 37756 37513 37520 37470 37512 37497 37434 37448 37385 37427 37408 37472 37519 37565 37569 37532 37574 37523 37524 37556 37559 37550 37628 37902 38288 38532 38413 38173 38049 38005 37822 37810 37782 37695 37615 37636 37566 37430 37309 37157 37066 37064 36942 36882 36771 36668 36735 36762 36731 36644 36737 36539 36559 36517 36330 36437 36479 36540 36748 36851 36930 36908 36907 36813 36737 36601 36619 36631 36657 36677 36567 36554 36498 36492 36632 36769 36702 36600 36461 36381 36319 36290 36352 36186 36101 35978 35788 35635 35450 35224 35046 35021 34994 35058 35006 34920 34861 34707 34585 34538 34388 34311 34105 34020 34030 34111 34208 34274 34275 34255 34262 34218 34134 34099 34101 34017 34050 34087 34247 34425 34554 34566 34622 34685 34766 34770 34723 34525 34367 34364 34359 34454 34451 34402 34410 34401 34376 34393 34382 34292 34205 34209 34226 34281 34226 34294 34216 34313 34343 34438 34470 34569 34458 34471 34426 34444 34524 34635 34637 34527 34701 34566 34718 34648 35100 35252 35217 35165 35069 35045 35105 35184 35243 35308 35345 35350 35238 35316 35231 35148 35104 35123 35164 35199 35161 35158 35213 35267 35341 35422 35610 35625 35593 35615 35730 35883 36103 36320 36579 36869 37127 37372 37530 37645 37726 37790 37773 37935 37951 37928 37950 37964 38005 37979 38117 38179 38138 38174 38264 38207 38266 38322 38389 38429 38439 38491 38526 38495 38578 38607 38519 38368 38364 38324 38186 38138 38055 37941 37895 37951 37934 37975 38225 38250 38286 38281 38271 38284 38317 38376 38350 38363 38361 38288 38180 38078 37875 37688 37539 37371 37285 37254 37237 37237 37252 37350 37349 37379 37397 37400 37465 37459 37357 37376 37427 37385 37380 37448 37413 37348 37249 37176 37012 36867 36652 36413 36285 36165 36041 36015 35922 35904 36024 36271 36145 36020 35976 35959 36133 36189 36353 36376 36380 36509 36555 36616 36620 36538 36464 36379 36396 36448 36493 36553 36569 36634 36751 36818 36865 36752 36702 36735 36757 36799 36748 36751 36739 36703 36861 37005 36969 36839 36774 36703 36844 36849 36890 36852 36828 36845 36892 36841 36806 36690 36709 36623 36665 36668 36699 36695 36766 36886 36900 37002 36951 36907 36879 36883 36873 37035 36984 37001 36937 36846 36849 36771 36727 36566 36422 36347 36336 36348 36288 36237 36197 36216 36275 36296 36311 36333 36300 36308 36335 36356 36524 36621 36646 36566 36536 36610 36740 36643 36435 36377 36258 36299 36348 36302 36242 36139 36152 36190 36249 36227 36137 36080 36229 36215 36339 36345 36319 36325 36328 36377 36467 36347 36162 36114 36121 36128 36127 36061 36073 36129 36466 36656 36729 36724 36640 36723 36634 36658 36551 36470 36499 36488 36536 36650 36551 36496 36457 36353 36302 36227 36143 36093 36128 36092 36133 36219 36111 36101 36150 36143 36162 36078 35998 36116 36118 36027 36203 36195 36221 36186 36173 36238 36196 36249 36168 36142 36120 36112 36189 36239 36179 36149 36111 36124 36149 36112 35975 35932 35740 35656 35628 35776 35786 35777 35920 35880 36030 36117 36225 36186 36109 36264 36178 36229 36325 36389 36330 36374 36283 36434 36558 36593 36579 36549 36448 36512 36469 36474 36505 36443 36602 36558 36726 36778 36749 36856 36825 36846 36767 36675 36676 36589 36549 36457 36362 36293 36216 36146 36099 36052 36005 35956 36055 35981 36139 36169 36120 36134 36009 35978 35963 35854 36039 36057 35953 36156 36357 36482 36685 36432 36701 36893 36989 37181 37082 37363 37170 37324 37441 37312 37506 37470 37564 37623 37711 37672 37708 37792 37838 37686 37720 37642 37502 37520 37377 37406 37297 37228 37217 37321 37211 37247 37226 37132 37091 37069 37079 37005 36927 36977 36971 36986 36870 36957 36840 36914 36794 36742 36639 36596 36591 36457 36775 36796 36767 36840 36869 36897 36861 36783 36785 36757 36718 37020 37102 37241 37300 37420 37683 37659 37733 37847 37769 37833 37800 37809 37824 37856 37889 37812 37866 37890 37892 37766 37672 37437 37284 37159 36941 36872 36838 36838 36787 37004 36927 36931 36856 36721 36588 36473 36336 36317 36286 36215 36128 36046 36093 36146 36217 36142 36046 35925 35939 35854 35797 36254 36326 36570 36512 36423 36690 36826 36860 36803 36608 36486 36456 36494 36373 36377 36354 36313 36345 36381 36518 36530 36456 36433 36260 36251 36298 36338 36296 36495 36631 36695 36948 37074 37183 37357 37512 37448 37439 37382 37365 37378 37453 37508 37510 37546 37619 37781 38058 38324 38514 38685 38792 38929 38951 38970 38894 38824 38728 38653 38591 38536 38509 38444 38389 38322 38130 37971 37851 37692 37526 37376 37265 37133 37057 36992 36884 36771 36729 36696 36575 36505 36430 36379 36439 36492 36508 36633 36715 36950 37125 37398 37487 37637 37679 37713 37790 37864 37854 37910 37844 37944 37986 38014 38076 38120 38114 38139 38033 37936 37893 37880 37879 37911 37868 37819 37732 37685 37697 37737 37584 37539 37364 37261 37211 37156 37168 37046 37001 36948 36884 36950 36896 36910 36829 36809 36762 36829 36776 36922 36937 36922 36919 36982 36993 37012 37045 37003 36872 36796 36729 36762 36665 36648 36646 36646 36581 36505 36359 36191 36117 36123 36090 36072 36069 36013 35799 35592 35448 35263 35091 34930 34763 34655 34555 34521 34410 34412 34594 35025 35445 35621 35726 35745 35835 35946 36068 36068 36081 36095 36161 36141 36235 36409 36458 36556 36646 36601 36674 36618 36488 36512 36493 36549 36465 36484 36497 36509 36541 36646 36584 36573 36479 36495 36569 36663 36677 36710 36763 36781 36838 36891 37009 36986 36984 36877 36785 36629 36599 36594 36608 36577 36560 36497 36405 36317 36234 36174 36105 36009 35950 35933 35927 35925 35975 35884 35854 35802 35844 35969 36144 36195 36185 36128 36206 36304 36331 36384 36384 36343 36345 36524 36444 36809 36761 36780 36880 37031 36952 37002 37139 37190 37224 37299 37307 37407 37442 37402 37354 37369 37481 37599 37703 37772 37911 37904 37851 37843 37855 37904 37870 37958 37969 37946 37914 37880 37837 37790 37733 37699 37643 37600 37489 37339 37259 37232 37281 37253 37222 37101 37049 36960 36990 37021 37042 36883 36676 36495 36212 35997 35781 35600 35452 35482 35459 35597 35511 35629 35578 35611 35647 35683 35674 35860 36016 36134 36158 36213 36354 36373 36408 36248 36064 35828 35684 35462 35391 35262 35117 34946 34909 34867 34974 35079 35028 35064 34959 35090 35063 35078 35111 35161 35346 35195 35186 35058 34922 34844 34793 34707 34692 34580 34603 34680 35083 35171 35218 35146 35147 35103 35152 35136 35284 35413 35367 35276 35209 35269 35287 35188 35024 34917 34790 34773 34805 34864 34753 34595 34566 34710 34972 35111 35186 35239 35199 35264 35260 35331 35433 35465 35512 35461 35337 35385 35395 35865 35865 36058 36068 35942 35893 36016 35878 35807 35556 35654 35547 35516 35377 35400 35320 35516 35503 35553 35582 35515 35531 35490 35622 35538 35745 36038 36109 36106 36184 36262 36202 36224 36235 36006 35970 35841 35793 35775 35883 35902 35794 35777 35645 35510 35484 35441 35514 35433 35460 35413 35331 35414 35488 35728 35725 35786 35791 35757 35615 35639 35706 35676 35744 35787 35944 36212 36362 36453 36423 36394 36261 36279 36383 36439 36431 36508 36618 36761 36877 37053 37160 37209 37211 37159 37050 36935 37107 36975 37020 37033 36966 36885 36990 36954 37051 37088 37034 36972 36940 36948 36883 36831 36806 36688 36719 36646 36570 36560 36467 36425 36236 36218 36077 35986 36023 36001 35867 35817 35727 35680 35648 35608 35456 35381 35389 35386 35462 35457 35497 35383 35462 35442 35665 35740 36015 36144 36070 36112 36123 36021 36123 36069 35993 35893 35836 35678 35744 35864 35833 35686 35587 35473 35402 35374 35322 35284 35220 35245 35169 35165 35145 35204 35270 35394 35603 35633 35610 35768 35829 35930 35815 35744 35533 35398 35229 35124 35044 35005 34984 34947 34935 34892 34823 34778 34824 34934 35019 35148 35166 35248 35426 35646 35895 36007 36094 36184 36145 36232 36251 36247 36447 36552 36660 36743 36791 36847 36887 36856 36775 36714 36620 36594 36558 36560 36479 36655 36731 36709 36734 36696 36743 36805 36916 37129 37336 37330 37561 37580 37571 37603 37716 37702 37682 37693 37646 37608 37637 37622 37635 37688 37641 37636 37538 37378 37238 37112 36954 37098 37043 37060 36924 37001 36945 36978 36877 36815 36697 36607 36601 36573 36723 36848 36975 37081 37211 37348 37434 37545 37626 37588 37499 37513 37426 37357 37396 37421 37427 37409 37601 37558 37615 37616 37536 37479 37365 37334 37258 37211 37141 37114 37026 37037 36941 37092 37057 36941 36795 36709 36787 36689 36830 36758 36803 36722 36784 36912 36943 36966 36934 36800 36644 36697 36629 36619 36564 36507 36470 36508 36455 36505 36522 36450 36315 36259 36253 36195 36288 36335 36306 36351 36511 36679 36847 36992 36987 36943 36969 36930 36978 37083 37134 37119 37146 37108 37090 37151 37147 37125 37042 36940 36936 36941 36912 37019 37048 36981 37044 37063 37073 37160 37201 37129 37042 36894 36862 36878 36921 36969 37035 37004 36953 37018 37101 37134 37247 37291 37354 37453 37470 37712 37832 37925 37903 37898 37824 37803 37705 37651 37479 37318 37246 37090 36956 36967 36864 36721 36655 36461 36384 36273 36158 35951 35965 35883 35924 35926 36019 36164 36205 36329 36295 36391 36351 36342 36353 36442 36492 36509 36622 36663 36744 36690 36769 36793 36866 36816 36780 36715 36673 36641 36721 36762 36855 36890 36851 36863 36839 36893 36788 36789 36667 36636 36718 36804 37159 37282 37355 37382 37332 37344 37215 37167 37004 36921 36825 36820 36804 36841 36882 36885 36922 37053 37097 37011 36914 36864 36777 36754 36729 36710 36881 36839 37096 37239 37331 37307 37196 37099 36980 36940 36867 36731 36766 36708 36732 36719 36757 36735 36684 36602 36663 36791 36840 36954 36961 37066 37119 37089 36983 36860 36782 36618 36555 36505 36506 36471 36523 36576 36521 36495 36388 36472 36436 36293 36236 36202 36208 36273 36322 36175 36077 36117 36034 35952 35737 35533 35488 35491 35502 35595 35560 35380 35552 35540 35506 35555 35417 35234 35262 35097 35176 35285 35379 35352 35390 35369 35415 35395 35264 35135 34994 34875 34757 34839 35003 35065 35025 35040 35074 35021 35104 35096 34925 34880 34757 34758 34728 34784 34972 35042 35097 35111 35158 35352 35345 35310 35262 35222 35248 35328 35343 35423 35598 35601 35751 35827 35996 35990 35887 35731 35569 35482 35315 35252 35160 35224 35108 35176 35339 35498 35501 35423 35503 35557 35742 35738 35872 36019 36043 36065 36208 36164 36297 36241 36145 36065 35874 35958 35926 35879 35883 35912 35767 35939 36183 36221 36317 36350 36316 36184 36209 36163 36171 36100 36071 36087 36012 36090 36130 36165 36155 36090 36186 36076 36082 36194 36228 36287 36248 36286 36239 36216 36189 36096 36030 35926 35847 35921 35962 36000 36019 36252 36264 36460 36566 36834 36683 36860 36987 37013 37161 37181 37271 37231 37215 37197 37145 37203 37053 36884 36624 36583 36569 36569 36606 36501 36513 36559 36581 36702 36876 36925 36980 36962 36841 37050 37123 37073 37233 37205 37221 37145 37074 37011 36968 36742 36500 36375 36259 36166 36216 36202 36177 36448 36514 36685 36801 36844 36805 36766 36702 36638 36533 36481 36397 36387 36341 36496 36440 36381 36369 36298 36238 36241 36241 36329 36263 36281 36248 36315 36295 36214 36207 35958 35983 35886 35880 35888 35928 35980 36040 36049 36133 36134 36003 35889 36042 36038 36090 36283 36506 36595 36587 36641 36694 36652 36567 36347 36218 36090 36024 35955 35891 35886 35871 35899 35946 36119 36209 36198 36202 36105 36135 36122 36324 36299 36424 36479 36408 36488 36487 36408 36293 36200 36197 36203 36233 36359 36189 36189 36197 36238 36141 36029 35846 35812 35788 35875 35863 35861 35806 35775 35670 36056 36009 36062 35984 35954 35917 36018 36347 36593 37108 37059 37096 37100 37075 36998 36900 36866 36752 36629 36456 36398 36353 36331 36319 36294 36197 36086 35909 35800 35698 35662 35559 35499 35365 35333 35341 35323 35365 35292 35152 34972 34915 34854 34824 34841 34895 34936 34881 34901 34895 35120 35420 35571 35696 35899 35853 35961 35935 36172 36207 36212 36451 36450 36612 36601 36678 36605 36617 36596 36530 36553 36579 36586 36537 36462 36482 36337 36171 35987 36017 36127 36245 36374 36465 36552 36694 36847 36902 37043 37082 37096 37008 36935 36807 36839 36798 36856 36807 36732 36684 36582 36525 36306 36038 35777 35687 35704 35791 35746 35843 35947 36047 36018 36196 36480 36429 36503 36720 36771 36886 37072 37040 37027 36919 36837 36812 36619 36546 36321 36036 35946 35903 35915 35953 36037 36141 36223 36145 36242 36150 36052 35768 35714 35788 35825 35898 35835 36034 36101 36156 36442 36483 36395 36637 36554 36456 36481 36503 36548 36391 36537 36491 36471 36363 36230 36162 35973 35796 35703 35674 35635 35638 35629 35640 35535 35547 35511 35452 35409 35401 35565 35679 35756 35890 35990 36162 36245 36238 36364 36195 36067 35813 35818 35747 35610 35507 35437 35529 35516 35507 35477 35324 35279 35179 35106 35085 35083 35144 35178 35240 35334 35423 35607 35655 35684 35798 35718 35973 35964 35910 35917 35865 35806 35657 35715 35643 35507 35358 35288 35257 35328 35353 35414 35431 35631 35589 35685 35643 35515 35362 35361 35401 35381 35390 35479 35636 35633 35629 35555 35924 35955 35948 36033 36003 36127 36069 36142 36150 36112 36003 36023 36046 36038 35878 35722 35622 35619 35666 35776 35738 35721 35717 35774 35701 35676 35607 35554 35512 35673 35800 35963 36210 36372 36416 36475 36544 36499 36378 36256 36108 36004 35858 35864 35847 35741 35775 35738 35780 35694 35533 35494 35446 35486 35552 35613 35680 35640 35691 35887 35950 35995 35962 35873 36085 36237 36311 36464 36521 36505 36449 36458 36402 36366 36112 35821 35616 35605 35626 35665 35652 35696 35673 35636 35860 35761 35787 35825 35723 35596 35506 35608 35590 35613 35708 35706 35656 35969 35935 35855 35896 35833 35764 35709 35856 35851 35771 35667 35554 35579 35497 35354 35381 35539 35597 35717 35806 35851 35799 35712 35687 35670 35505 35345 35273 35306 35350 35424 35526 35783 35845 35951 36085 36132 36122 35997 35998 35769 35705 35726 35556 35602 35482 35382 35284 35285 35249 34967 34899 34793 34655 34757 34801 34898 34871 34894 34890 34922 35000 35012 35186 35244 35499 35736 35866 36025 36140 36244 36204 36211 36028 35813 35578 35353 35230 35182 35221 35158 35281 35112 35329 35369 35352 35218 35062 35113 34990 34960 35032 35099 35112 35158 35256 35379 35462 35646 35704 35740 35909 36054 36198 36292 36349 36268 36211 36092 35904 35686 35545 35444 35347 35262 35204 35275 35178 35169 35145 35091 34924 34957 34963 35013 35067 35224 35285 35542 35670 35755 35735 35646 35604 35533 35528 35528 35501 35592 35662 35718 35677 35569 35282 35120 34945 34959 34881 34850 34893 34896 35056 35270 35475 35602 35538 35331 35092 34990 34933 34862 34915 35123 35262 35418 35603 35597 35521 35509 35463 35446 35355 35336 35352 35326 35437 35485 35438 35339 35044 34980 34959 34807 34732 34724 34689 34734 34879 35047 35100 34987 34886 34869 35015 35143 35326 35431 35546 35665 35735 35844 35805 35763 35487 35364 35265 35061 35012 34991 34961 34970 34985 34946 34921 34833 34707 34772 35040 35106 35120 35059 35041 35057 35200 35173 35277 35315 35339 35479 35590 35638 35738 35810 35795 35828 35831 35661 35447 35206 35065 35092 35134 35198 35234 35401 35458 35677 35627 35491 35417 35220 35062 35012 35020 35118 35283 35476 35608 35638 35529 35606 35577 35671 35681 35804 35789 35897 35785 35729 35707 35529 35351 35295 35235 35229 35496 35636 35724 35564 35861 35941 36038 36173 36088 35977 35845 36022 36133 36221 36315 36359 36477 36668 36885 37025 37061 37002 36974 36941 36960 36960 36965 37008 37040 37160 37024 36930 36839 36811 36750 36935 36907 36892 36912 36919 36832 36687 36539 36456 36528 36651 36895 36957 36988 36947 36956 36949 36879 36692 36462 36287 36170 36095 36025 35928 35845 35884 36009 36114 36023 35845 35709 35582 35622 35678 35794 35783 35647 35534 35646 35745 35702 35674 35676 35759 35795 35858 35992 36036 36068 36051 36070 36042 35870 35756 35647 35528 35407 35479 35549 35590 35569 35574 35500 35399 35323 35306 35271 35262 35309 35260 35260 35269 35316 35368 35308 35343 35467 35633 35696 35769 35755 35703 35720 35812 35828 35697 35499 35400 35374 35349 35354 35346 35313 35322 35368 35398 35414 35267 35300 35203 35268 35308 35348 35405 35377 35379 35417 35522 35525 35565 35625 35666 35723 35825 35863 35875 35975 36001 36043 36032 35914 35800 35713 35695 35630 35697 35674 35778 35803 35855 35856 35771 35788 35731 35798 35759 35729 35700 35666 35718 35749 35933 35967 36002 36065 36108 36295 36469 36556 36611 36584 36595 36605 36501 36442 36332 36151 36082 36034 36136 36288 36361 36316 36193 36168 36178 36208 36224 36279 36362 36393 36425 36455 36447 36427 36379 36250 36295 36369 36479 36562 36629 36662 36643 36845 36888 36855 36737 36637 36524 36512 36547 36466 36419 36371 36357 36384 36338 36282 36158 36052 35949 35877 35879 35867 35879 35875 35898 35880 35819 35738 35774 35866 35980 36095 36187 36273 36324 36374 36457 36471 36487 36502 36416 36403 36385 36306 36260 36165 36098 35988 35866 35700 35642 35624 35673 35788 35859 35891 35912 35979 35990 35954 35873 35755 35712 35699 35768 35887 36031 36161 36453 36751 36916 36939 36984 37131 37235 37306 37383 37517 37558 37651 37684 37801 37761 37812 37778 37730 37800 37892 37862 37879 37864 37900 37897 37836 37693 37709 37621 37600 37619 37635 37708 37724 37652 37596 37545 37409 37254 37286 37383 37553 37706 37839 37972 38095 38241 38353 38500 38453 38412 38398 38356 38311 38328 38339 38260 38348 38294 38197 38037 37813 37571 37374 37318 37230 37204 37092 37019 36967 36778 36573 36296 36096 36019 36103 36103 36113 36154 36033 36011 35983 35898 35803 35592 35554 35482 35476 35549 35651 35824 35964 36089 36028 35888 35568 35516 35765 35872 36046 36255 36249 36174 36425 36280 36133 35878 35695 35507 35399 35265 35156 34962 34703 34481 34459 34306 33911 33554 33267 33028 32982 32921 32813 32653 32496 32356 32262 31986 31780 31666 31685 31811 31914 32096 32542 32979 33579 33986 33972 33765 33404 33073 32779 32538 32364 32303 32356 32346 32374 32318 32175 32102 32077 32077 32175 32360 32579 32852 33087 33361 33509 33598 33758 33938 34112 34230 34308 34345 34388 34427 34479 34440 34361 34417 34462 34494 34499 34684 34956 35140 35261 35420 35537 35578 35606 35632 35637 35665 35684 35802 35907 35966 36002 36015 35987 35919 35832 35758 35700 35640 35583 35509 35441 35372 35316 35224 35108 35002 34899 34826 34776 34721 34695 34670 34657 34656 34633 34583 34545 34508 34496 34473 34491 34527 34541 34537 34525 34513 34427 34344 34259 34219 34210 34218 34196 34192 34217 34257 34234 34158 34129 34118 34075 34111 34119 34128 34134 34066 33961 33784 33565 33448 33415 33446 33491 33542 33604 33722 33850 33956 33930 33896 33880 33887 33908 33928 33929 33864 33754 33641 33484 33192 32917 32694 32574 32566 32575 32516 32446 32357 32305 32267 32138 32092 32213 32398 32520 32597 32655 32678 32748 32808 32924 33047 33006 32871 32851 32722 32675 32750 32884 33029 33238 33401 33460 33516 33681 33945 34185 34333 34328 34265 34234 34112 33943 33621 33343 33044 32821 32656 32572 32523 32549 32576 32680 32813 32948 33115 33157 33141 33096 33043 32966 32890 32829 32691 32603 32462 32335 32328 32354 32374 32367 32414 32370 32387 32337 32238 32165 32099 32105 32108 32048 32095 32259 32222 32164 32190 32200 32229 32233 32669 33472 33830 33926 33800 33609 33440 33238 32983 32703 32497 32373 32391 32399 32481 32578 32743 32889 32974 33042 33140 33145 33223 33148 33220 33202 33261 33406 33601 33740 33676 33577 33401 33308 33267 33327 33311 33358 33330 33380 33350 33320 33316 33454 33562 33562 33642 33674 33775 33771 33851 33904 34074 34001 33915 33908 34041 34194 34354 34866 35516 36163 36531 36691 36853 36996 37134 37157 37205 37299 37292 37350 37374 37437 37363 37303 37252 37187 37065 37048 36948 36891 36840 36755 36578 36411 36217 36172 36268 36370 36523 36643 36801 36926 36975 36909 36739 36597 36450 36285 36248 36285 36275 36223 36124 35996 35826 35769 35800 35888 35992 36178 36307 36468 36628 36803 36949 37023 37073 37121 37195 37324 37449 37574 37656 37728 37741 37655 37486 37340 37224 37101 36965 36882 36745 36634 36572 36472 36271 36188 36163 36146 36211 36238 36290 36357 36418 36369 36264 36078 35933 35756 35625 35528 35535 35594 35677 35652 35590 35506 35474 35609 35757 35889 35967 36067 36146 36252 36381 36412 36326 36168 36071 35968 35885 35841 35767 35663 35574 35514 35265 35076 35000 34970 35062 35153 35258 35376 35522 35537 35536 35410 35319 35130 34922 34758 34720 34646 34658 34669 34730 34705 34714 34877 35007 35237 35505 35674 35744 35824 35805 35760 35630 35701 35732 35771 35808 35784 35701 35640 35574 35444 35185 34957 34751 34695 34710 34752 34786 34909 34995 35102 35052 34935 34863 34794 34744 34746 34720 34730 34753 34741 34760 34763 34713 34701 34749 34815 34924 34921 34992 34952 34995 34931 34808 34683 34692 34667 34737 34766 34765 34723 34717 34649 34493 34405 34416 34433 34528 34626 34622 34621 34613 34626 34601 34617 34615 34708 34761 34834 34883 34910 34973 35114 35130 35105 35077 34929 34831 34778 34817 34853 34913 34986 34904 34769 34692 34834 35432 35424 35741 35665 35608 35989 36224 36282 36265 36277 36360 36391 36439 36364 36329 36195 36105 35932 35815 35683 35586 35496 35360 35175 35031 35018 35125 35197 35109 34968 34882 35053 35157 35216 35130 34996 34950 34856 34832 34749 34655 34618 34629 34658 34676 34669 34659 34617 34671 34607 34530 34445 34519 34734 34820 34961 34959 35112 35295 35395 35544 35538 35565 35563 35498 35371 35257 35154 35052 34937 34807 34709 34594 34697 34803 34909 35009 35336 35488 35512 35551 35471 35345 35234 35128 34975 34851 34720 34601 34452 34366 34173 34048 33984 34037 34140 34213 34060 33858 33766 33994 33916 33903 34053 34270 34475 34546 34576 34769 34834 34875 34886 34919 34978 35141 35365 35574 35752 35906 36098 36235 36379 36421 36470 36483 36567 36764 36649 36796 36907 36991 37070 37080 37033 36972 36908 36829 36724 36623 36507 36393 36283 36136 35919 35716 35548 35346 35206 35095 34994 34920 35158 35312 35441 35375 35543 35534 35698 35743 35767 35739 35640 35541 35398 35189 34998 34818 34637 34552 34493 34461 34478 34485 34458 34317 34175 34040 33958 33863 33782 33630 33523 33511 33511 33366 33329 33267 33308 33684 34066 34068 34166 34664 34811 34861 35182 35267 35164 34954 34654 34466 34448 34515 34602 34513 34256 34083 33927 33842 33965 33973 34113 34106 34110 34143 34100 34186 34228 34512 34718 35072 34761 34816 34965 35041 34939 34984 35109 34999 34914 34978 35187 35468 35846 36094 36194 36195 36374 36427 36471 36508 36581 36651 36685 36624 36679 36697 36575 36439 36340 36224 36123 36111 36035 35973 36132 36256 36290 36538 36766 36963 37176 37301 37468 37651 37708 37702 37816 37903 37986 38151 38317 38381 38390 38426 38461 38476 38414 38356 38313 38270 38297 38275 38209 38122 38031 37996 37870 37705 37546 37335 37184 37081 37196 37187 37280 37267 37058 36934 36679 36519 36488 36593 36583 36877 36967 37053 37199 37165 37056 36990 36965 36924 37040 36991 37092 37243 37311 37368 37457 37507 37641 37672 37729 37804 37817 37749 37633 37572 37256 37053 36884 36795 36568 36392 36364 36326 36182 35894 35782 35604 35615 35485 35335 35213 35220 35261 35242 35076 34969 34918 34907 34936 34999 35113 35169 35293 35358 35453 35481 35465 35137 35065 35193 35413 35510 35495 35587 35781 35843 35781 35683 35690 35622 35537 35477 35372 35287 35246 35255 35231 35167 35146 35260 35353 35411 35436 35435 35453 35441 35434 35340 35339 35297 35255 35264 35232 35258 35214 35206 35158 34804 34430 34520 34979 35398 35745 36038 36248 36443 36631 36603 36596 36505 36445 36440 36389 36328 36264 36267 36162 36040 35968 35723 35645 35811 35937 35909 35883 36031 36086 36425 36265 36572 36585 36499 36545 36628 36713 36668 36750 36627 36717 36590 36657 36778 36880 36790 36971 36991 37036 36961 37024 36930 36861 36714 36617 36501 36420 36360 36319 36320 36357 36323 36190 36062 36035 35979 36049 36125 36110 36037 36078 36315 36333 36314 36277 36342 36367 36328 36230 36144 36063 35981 36008 35806 35543 35428 35365 35433 35343 35279 35266 35304 35404 35513 35365 35323 35251 35244 35303 35600 35574 35607 35579 35659 35622 35480 35376 35171 35164 35190 35051 35037 35037 35039 35141 35194 35116 35145 35023 35027 34941 35020 35003 35059 34905 35308 35291 35162 35220 35048 35132 35315 35343 35235 35128 35330 35183 35054 34769 34678 34790 34696 34750 34719 34809 34691 34688 34790 34733 34725 34592 34598 34748 34875 34968 35046 35169 35184 35203 35202 35180 35163 35143 35182 35202 35301 35332 35322 35201 35032 35023 34866 34810 34687 34674 34667 34646 34580 34521 34593 34750 34727 34608 34531 34644 34715 34689 34672 34683 34751 34805 34793 34717 34883 34832 35279 35345 35486 35571 35514 35693 35606 35548 35468 35390 35540 35510 35580 35875 35899 36030 36001 36078 35812 35793 35765 35710 35655 35556 35458 35383 35358 35371 35205 35082 35430 35466 35387 35484 35509 35542 35490 35497 35378 35295 35510 35336 35199 35223 35138 35278 35519 35480 35442 35562 35660 35747 35648 36028 36086 36080 36246 36382 36383 36499 36418 36016 35826 35943 36116 36152 36013 35998 36055 36017 36198 36302 36323 36351 36279 36318 36430 36370 36516 36451 36396 36437 36428 36361 36470 36538 36572 36584 36589 36551 36539 36508 36485 36383 36227 36131 36033 36014 36046 36179 36241 36168 36046 36094 36097 35919 36115 36199 36020 35992 36169 36479 36682 36851 36954 37014 37009 36955 37067 37109 37049 37055 37060 37019 36854 36872 36691 36400 36279 36108 36104 35970 35860 35865 35842 35942 35892 35799 35651 35528 35425 35577 35674 35796 35872 35866 36029 36111 35969 35824 35705 35601 35612 35480 35396 35654 35823 35900 35730 35628 35573 35566 35476 35545 35426 35523 35695 35563 35517 35396 35460 35468 35429 35353 35170 35238 35247 35277 35272 35427 35462 35506 35493 35598 35653 35656 35658 35693 35586 35659 35701 35617 35500 35447 35411 35420 35453 35479 35532 35574 35548 35594 35448 35314 35177 35224 35203 35218 35229 35212 35203 35190 35213 35152 35092 35156 35154 35201 35097 35120 35200 35307 35351 35194 35042 34999 34966 34855 34772 34746 34823 34984 35186 35495 35587 35636 35967 36029 36099 36090 35997 35964 35956 35773 35709 35467 35377 35328 35399 35439 35515 35536 35457 35435 35422 35346 35249 35139 35163 35255 35455 35553 35520 35546 35488 35544 35367 35187 35100 35105 35047 34968 34996 34998 34996 35038 35126 35078 35135 35028 35118 35180 35198 35209 35267 35436 35486 35559 35574 35463 35443 35415 35425 35435 35453 35496 35516 35548 35592 35537 35445 35210 35163 35127 35061 35143 35175 35197 35207 35274 35190 35132 35120 35177 35154 35702 35754 35992 36000 36253 36248 36283 36027 36330 36289 36199 36273 36144 36094 36110 36035 36050 35933 35819 35952 36005 36109 36211 36302 36320 36437 36418 36365 36348 36266 36222 36211 36196 36225 36138 36069 35984 35885 35731 35694 35775 36013 36095 36212 36241 36517 36689 36757 36731 36564 36312 36131 36025 35964 35932 35948 35995 36146 36297 36238 36106 36044 36017 35968 36039 36067 36055 36073 36102 36093 36035 35960 35868 35699 35766 35817 35892 35914 35888 35941 35901 35845 35689 35604 35544 35483 35491 35460 35413 35387 35404 35440 35265 35219 35242 35239 35204 35207 35150 35102 35047 34989 34913 34908 34940 34948 34980 35056 35132 35152 35176 35181 35174 35036 34898 34811 34716 34655 34561 34633 34572 34565 34605 34533 34458 34361 34284 34236 34304 34330 34442 34435 34507 34584 34504 34434 34230 34251 34388 34381 34460 34487 34510 34500 34558 34484 34481 34442 34481 34487 34549 34640 34727 34773 34818 34814 34826 34719 34718 34887 34995 34939 34957 34893 34875 34941 34849 34807 34778 34815 34802 34821 34923 34902 35063 35227 35157 35136 35067 35011 35090 35148 35160 35198 35262 35252 35187 35132 35105 35163 35174 35288 35331 35380 35415 35502 35652 35722 35606 35523 35434 35276 35166 35110 35092 35134 35128 35117 35097 35107 35131 35077 35072 35143 35249 35334 35390 35395 35352 35291 35338 35251 35229 35241 35277 35319 35353 35336 35299 35284 35149 35074 34988 34947 34907 34938 34997 35020 34967 35047 35153 35001 35017 34979 34952 34974 35006 34922 34865 34800 34744 34686 34554 34498 34511 34627 34699 34786 34890 34949 35002 34989 34999 34837 34806 34787 34715 34757 34771 34716 34712 34741 34779 34667 34600 34504 34559 34545 34576 34587 34542 34457 34480 34435 34340 34308 34263 34281 34338 34346 34387 34239 34295 34368 34339 34450 34320 34296 34441 34439 34448 34472 34505 34604 34668 34706 34545 34589 34626 34664 34646 34534 34608 34676 34718 34715 34749 34745 34751 34867 34993 35048 35180 35292 35367 35404 35380 35465 35548 35673 35904 35972 36058 36144 36203 36241 36410 36576 36555 36440 36414 36313 36328 36589 36561 36670 36618 36489 36399 36217 36073 35890 35701 35637 35555 35567 35634 35596 35628 35650 35647 35637 35630 35608 35643 35689 35689 35753 35883 35968 36026 36015 35923 35945 35981 35870 35776 35663 35470 35422 35482 35564 35471 35298 35222 35129 35096 35151 35119 35040 34974 34988 34910 34741 34631 34608 34558 34529 34476 34482 34463 34517 34560 34508 34419 34378 34394 34303 34276 34239 34188 34181 34250 34243 34246 34126 33949 33868 33910 33918 34010 34081 34119 34143 34139 34173 34024 34068 33939 34002 34047 34045 34069 34016 33997 33927 33837 33666 33570 33477 33280 33566 33642 33667 33538 33490 33479 33322 33341 33223 33199 33281 33366 33411 33340 33299 33320 33253 33088 32968 32934 32949 33010 32981 33063 33094 33102 33040 33047 33103 33190 33246 33386 33392 33451 33455 33583 33629 33622 33559 33446 33348 33333 33401 33429 33427 33381 33437 33502 33389 33249 33120 33164 33248 33257 33248 33264 33341 33292 33349 33358 33304 33235 33365 33469 33502 33490 33549 33538 33532 33504 33285 33221 33230 33354 33468 33545 33541 33550 33634 33626 33589 33621 33644 33688 33684 33771 33904 33811 33855 34012 33994 34089 34156 34207 34274 34415 34491 34502 34405 34223 34129 34154 34190 34038 34022 34032 34019 33961 34122 34104 33978 34028 34106 34105 34039 33981 33847 33940 34040 34184 34249 34230 34250 34257 34187 34172 34213 34232 34316 34353 34384 34450 34436 34526 34486 34452 34492 34472 34445 34422 34417 34362 34317 34347 34347 34338 34248 34081 34045 33969 33918 33921 34018 34104 34189 34313 34388 34415 34360 34280 34119 34109 34000 34014 34023 34093 34211 34004 34072 34050 34007 33938 33973 34000 33930 33920 33988 34058 34161 34305 34208 34026 33827 33779 33772 33734 33683 33650 33635 33616 33746 33722 33613 33440 33602 33504 33530 33578 33596 33738 33758 34044 34252 34169 33994 33959 33744 33736 33803 33829 33807 33807 33803 33903 33899 33873 33850 33767 33733 33784 33742 33779 33805 33785 33794 33666 33615 33784 33783 33729 33689 33682 33702 33719 33711 33801 33932 33967 34305 34187 34330 34314 34443 34751 34766 34638 34577 34529 34417 34316 34220 34227 34168 34252 34563 34584 34554 34620 34531 34331 34179 34050 33981 34029 33942 33958 33955 33961 33865 33780 33636 33573 33568 33613 33726 33825 33905 33941 33999 34075 34059 33994 33962 33989 34059 34173 34368 34646 34864 34950 34984 34854 34597 34271 33962 33756 33636 33516 33498 33393 33375 33335 33306 33190 33141 33103 33016 32937 32903 32894 32943 32964 33032 32939 32746 32632 32664 32748 32770 32844 32857 32816 32835 32905 32994 32796 32576 32505 32582 32675 32734 32753 32850 32895 32864 32842 32738 32635 32553 32553 32637 32789 32789 32650 32547 32705 32880 32901 32842 32745 32815 32869 33011 32977 32983 33057 33151 33081 33090 33173 33134 33061 33041 33029 33022 33070 33135 33221 33238 33052 33093 33140 33168 33231 33234 33265 33275 33276 33300 33195 33106 33096 33149 33205 33266 33300 33422 33515 33537 33491 33359 33215 33138 33177 33216 33241 33320 33443 33479 33488 33488 33388 33243 33149 33247 33290 33291 33470 33650 33582 33936 34003 33992 33975 33922 33907 33923 33951 33981 33973 34036 34019 33992 33959 33892 33847 33806 33758 33727 33705 33659 33652 33659 33605 33522 33397 33360 33394 33421 33462 33527 33560 33573 33543 33517 33445 33370 33358 33383 33390 33377 33350 33365 33367 33398 33393 33316 33261 33259 33332 33422 33452 33403 33354 33365 33377 33407 33311 33274 33249 33188 33284 33350 33385 33461 33452 33384 33318 33235 33196 33116 33068 33103 33107 33084 33094 33090 33122 33199 33164 33133 33104 33071 33121 33174 33182 33171 33165 33178 33235 33223 33260 33338 33225 33326 33774 33901 34001 34110 34140 34148 34111 34094 34084 34057 33964 34183 34271 34214 34218 34270 34336 34444 34609 34887 35006 35197 35468 35797 36007 36169 36345 36560 36765 36748 36774 36861 37011 37198 37281 37337 37363 37387 37424 37475 37512 37579 37663 37986 38227 38405 38653 38715 38758 38752 38729 38656 38448 38227 37942 37724 37525 37413 37196 36924 36693 36491 36159 35651 35211 34911 34825 34899 34785 34561 34413 34391 34523 34661 34636 34510 34541 34669 34820 35033 35053 35114 35110 35056 34950 34717 34484 34294 34225 34245 34381 34480 34547 34550 34488 34387 34296 34077 33947 33950 33990 34048 34030 33969 34034 34119 34205 34168 34081 34063 34074 34105 34215 34308 34483 34557 34469 34378 34250 34038 33853 33555 33270 33120 32923 32803 32728 32694 32626 32428 32443 32636 32825 32781 32792 32758 32632 32459 32398 32569 32718 32656 32593 32647 32682 32609 32588 32453 32350 32197 32009 31718 31584 31606 31732 31830 31866 31854 31910 31957 32100 32246 32310 32280 32358 32551 32606 32669 32670 32728 32802 32900 32790 32712 32614 32468 32370 32183 32034 31974 31910 31836 31749 31619 31459 31453 31512 31463 31437 31425 31451 31340 31363 31397 31340 31396 31369 31493 31593 31557 31591 31649 31762 31838 31684 31639 31591 31464 31395 31474 31466 31559 31734 31846 32012 32052 32055 31956 32048 32191 32441 32584 32629 32468 32474 32642 32785 32870 32866 32863 32868 33018 33183 33201 33186 33152 33206 33219 33205 33227 33272 33257 33267 33458 33376 33385 33416 33443 33546 33576 33672 33641 33910 34088 34240 34387 34526 34546 34506 34652 34722 34864 34898 35063 34982 35232 35360 35438 35564 35594 35538 35441 35404 35291 35257 35361 35263 35149 35156 34955 34727 34577 34516 34538 34620 34630 34729 34907 34930 34852 34655 34732 34662 34593 34572 34736 34649 34798 34756 34908 35072 35176 35156 35142 35104 35146 35167 35094 35071 34805 34557 34457 34371 34307 34283 34188 34199 34261 34319 34315 34180 34098 34087 34178 34082 34412 34497 34471 34531 34461 34262 34076 33947 33896 33888 33860 33955 34013 34119 34081 34051 33968 33904 33773 33854 33808 33783 33811 33703 33903 33903 33722 33668 33569 33408 33378 33313 33471 33414 33569 33721 33810 33617 33653 33693 33744 33696 33617 33624 33608 33567 33609 33589 33552 33557 33692 33780 33902 33922 33863 34030 34150 34129 34162 34102 34010 33914 33914 33929 33946 33900 33926 33963 33826 34022 34107 34281 34269 34446 34565 34522 34538 34522 34414 34342 34309 34219 34263 34364 34390 34550 34554 34716 34790 34683 34756 34664 35051 35035 34926 34916 34896 35034 34994 34942 34792 34680 34795 34922 34963 34839 35130 35228 35198 35293 35141 35028 35035 35099 35128 35243 35278 35289 35284 35373 35345 35546 35363 35588 35561 35571 35555 35617 35617 35612 35662 35698 35487 35395 35381 35340 35355 35260 35276 35276 35280 35366 35424 35538 35464 35383 35250 35208 35302 35362 35446 35354 35408 35211 35189 35202 35268 35304 35363 35204 35101 35139 35107 35172 35064 34932 35036 35003 35078 35029 35031 35076 35049 35035 35084 34908 34786 34806 34586 35080 35299 35441 35503 35494 35399 35288 35162 35084 34956 34871 34818 34781 34831 34776 34743 34716 34733 34647 34493 34346 34472 34661 34763 34651 34568 34515 34493 34584 34476 34499 34633 34652 34677 34817 35116 35130 35357 35470 35632 35753 35469 35397 35384 35166 35137 35171 35127 35010 35020 35045 35140 35153 35095 35161 35366 35438 35315 35306 35407 35428 35314 35348 35521 35425 35378 35461 35513 35414 35336 35311 35243 35250 35302 35214 35165 35064 35069 35096 35297 35344 35407 35313 35400 35484 35478 35417 35474 35458 35350 35314 35294 35419 35354 35303 35204 35052 34933 34873 35161 35174 35168 35192 35248 35290 35366 35551 35622 35538 35737 35748 35832 35755 35793 35851 35799 35728 35752 35678 35563 35553 35528 35488 35486 35565 35747 35817 35792 35886 35878 35787 35662 35789 35729 35886 35808 35816 35767 35747 35667 35638 35566 35515 35534 35502 35540 35628 35674 35673 35729 35788 35699 35724 35618 35544 35537 35408 35510 35509 35511 35486 35415 35265 35221 35332 35222 35192 35147 35187 35279 35405 35419 35392 35304 35207 35065 35014 34984 35010 35097 35238 35411 35366 35322 35206 35062 34823 34745 34673 34629 34682 34717 34755 34787 34919 34826 34771 34827 34942 34886 34917 35084 35004 35019 35029 35072 34938 34895 34816 34832 34920 35059 35185 35293 35189 35421 35357 35305 35139 35086 35103 35068 34922 35046 35071 35003 35160 35221 35077 35135 35070 35060 35029 35127 35167 35109 35174 35129 35207 35410 35308 35376 35351 35431 35539 35800 35996 36137 36244 36271 36245 36329 36112 36242 36231 36576 36535 36462 36510 36502 36532 36690 36651 36870 36961 37289 37363 37444 37510 37707 37697 37928 38084 38023 38097 38052 38055 38096 38193 38464 38476 38566 38638 38559 38537 38360 38257 38159 38172 38059 37981 37931 37785 37648 37459 37362 37146 36914 36672 36397 36085 35804 35530 35384 35263 35066 35011 34730 34485 34396 34447 34551 34665 34726 34704 34823 34909 34930 34978 34931 34963 34808 34676 34680 34718 34756 34749 34646 34626 34631 34445 34227 34119 34098 34057 34025 33991 33945 33932 33881 33790 33652 33382 33165 33171 33157 33143 33293 33474 33584 33736 33878 34015 33895 33785 33810 33835 33892 33967 34062 34085 34120 34170 34232 34152 33837 33426 33442 33416 33600 33909 33910 34180 34171 34307 34166 34184 34084 34156 34243 34365 34558 34690 34828 34848 34986 35021 35020 34969 34934 34898 34820 34921 35058 35050 34963 35086 35131 35020 35025 34912 34907 35006 35002 35235 35193 35222 35229 35254 35272 35220 35198 35263 35336 35404 35484 35554 35598 35685 35691 35738 35789 35796 35706 35695 35794 35893 35941 36107 36153 36166 36124 36022 35866 35734 35625 35520 35365 35258 35044 34918 34839 34795 34782 34593 34493 34453 34578 34612 34719 34826 34837 34818 34846 34807 34743 34741 34821 34926 35001 35129 35181 35174 35249 35260 35331 35295 35137 35013 34884 34928 34882 34814 34764 34650 34696 34677 34596 34397 34218 34146 34148 34196 34184 34254 34302 34266 34354 34272 34167 34084 34044 34039 34065 34083 34102 34128 34069 34041 34042 33894 33770 33723 33665 33707 33795 33821 33812 33809 33759 33745 33690 33561 33474 33408 33441 33510 33544 33535 33540 33521 33538 33457 33297 33102 32965 32858 32881 32871 32878 32895 32879 32880 32806 32831 32818 32729 32629 32693 32972 33259 33692 34064 34208 34261 34269 34370 34354 34482 34616 34720 34872 34830 34807 34883 34846 34718 34628 34448 34388 34368 34273 34190 34119 33989 33923 33811 33668 33496 33380 33307 33347 33400 33451 33505 33512 33500 33419 33302 33188 33150 33135 33131 33255 33372 33369 33378 33428 33455 33393 33269 33171 33263 33661 33694 33775 33880 34116 34539 34872 35077 35332 35435 35547 35513 35635 35632 35675 35822 35937 35994 35917 35874 35745 35607 35544 35444 35385 35159 35124 34905 34734 34589 34441 34144 33794 33574 33413 33430 33378 33353 33285 33224 33202 33181 33044 33014 33146 33226 33328 33417 33496 33445 33374 33398 33491 33295 33145 33078 32932 32977 32921 33028 33114 33170 33147 33052 32864 32720 32657 32656 32656 32575 32524 32471 32407 32471 32474 32275 32079 31978 31964 31951 31976 32004 32060 32065 32120 32259 32272 32165 32137 32128 32037 32052 32097 32083 32089 32093 32119 32071 31877 31821 31833 31970 32055 32223 32427 32576 32646 32655 32668 32491 32223 32103 32043 32150 32245 32219 32349 32375 32374 32559 32513 32336 32982 33378 33815 34109 34444 34694 34823 34992 35100 34963 34907 34864 34827 34748 34752 34734 34659 34757 34877 34936 34968 34818 34633 34451 34264 34057 34041 34120 34172 34194 34332 34372 34420 34327 34174 34119 34149 34211 34318 34562 34636 34710 34789 34748 34715 34742 34818 34906 35106 35230 35341 35495 35612 35699 35712 35642 35510 35356 35220 35289 35332 35552 35651 35719 35778 35751 35671 35512 35464 35613 35717 35743 35796 35864 35961 35952 35949 35917 35900 35930 35866 35802 35805 35856 35885 35850 35784 35647 35724 35076 35198 35344 35487 35529 35499 35505 35530 35611 35612 35567 35408 35262 34937 34849 34861 34808 34862 34998 35039 34907 34864 34775 34693 34586 34482 34427 34470 34596 34533 34742 34824 34803 34832 34729 34559 34427 34313 34386 34498 34561 34560 34564 34599 34573 34465 34344 34312 34374 34462 34463 34305 34262 34367 34392 34334 34068 33788 33568 33393 33236 33079 32991 32965 32971 32994 33014 32960 32882 32804 32779 32715 32744 32720 32789 32778 32746 32883 32848 32699 32642 32757 32886 32845 32884 32907 32984 33030 33089 33097 33062 33120 33094 32982 33035 33068 33106 33056 33096 33091 33067 32896 32738 32593 32605 32595 32576 32566 32594 32650 32639 32622 32540 32544 32578 32583 32577 32671 32760 32813 33008 33039 33016 33111 33040 33006 33220 33311 33332 33464 33447 33468 33514 33525 33598 33517 33527 33474 33559 33564 33609 33628 33702 33659 33619 33636 33563 33431 33492 33526 33598 33494 33446 33533 33609 33661 33695 33682 33770 33917 33860 33902 33963 34048 34186 34231 34252 34296 34236 34253 34285 34429 34597 34557 34499 34539 34552 34521 34455 34399 34508 34640 34564 34677 34671 34807 34782 34772 34795 34806 34795 34726 34676 34659 34594 34789 34785 34837 34943 34919 34862 34701 34682 34821 34860 34942 34793 34761 34776 34785 34944 35024 35120 35042 34905 34913 35065 35251 35219 35095 35018 35074 35112 35182 35101 34898 34813 34757 34700 34590 34579 34710 34750 34769 34751 34699 34653 34619 34564 34630 34730 34828 34863 34781 34777 34879 34898 34766 34662 34564 34541 34594 34553 34604 34624 34593 34662 34764 34827 34765 34635 34708 34812 34776 34747 34879 34897 34823 34722 34843 34904 34858 34884 34837 34871 34776 34901 34893 34973 34988 34992 34922 34772 34846 34933 34959 34910 34895 35060 35088 35145 35039 35035 34903 34861 34812 34783 34866 34860 34886 34939 35016 34987 34866 34785 34752 34864 34909 34965 35064 35075 35050 35344 35424 35408 35338 35206 35132 35170 35166 35123 35266 35175 35187 35191 35189 35202 35132 35038 35037 34961 34988 35044 35034 35051 35067 35024 35258 35144 34899 34883 34928 34849 34799 34731 34661 34601 34716 34810 34813 34697 34567 34458 34546 34658 34678 34661 34635 34652 34678 34785 34654 34529 34498 34572 34568 34641 34641 34564 34659 34715 34770 34831 34738 34755 34690 34867 34898 34920 34950 34880 35001 34946 35112 35026 34932 34825 34738 34719 34629 34671 34591 34539 34472 34626 34785 34760 34838 34781 34854 34827 34868 34921 34866 34835 35036 34878 34857 34713 34769 34627 34842 34923 34872 34896 34900 34929 34898 35090 34973 34930 34946 34957 34914 35218 35342 35353 35555 35601 35560 35443 35198 34972 34849 34891 34870 34806 34741 34648 34604 34582 34543 34501 34547 34629 34699 34769 34778 34844 34937 35004 35029 35107 35087 34939 34839 34912 34858 34967 35019 35052 35087 35068 34994 34955 34892 34841 34802 34793 34738 35010 35148 35133 35241 35243 35268 35261 35205 35152 35023 35039 34979 34983 34999 34990 34933 35032 35017 34954 34932 35049 34976 35124 35260 35299 35195 35264 35212 35275 35257 35278 35215 35200 35068 35014 34994 35126 35418 35550 35634 35636 35532 35558 35603 35625 35643 35595 35639 35704 35712 35661 35613 35549 35645 35577 35551 35528 35492 35625 35538 35566 35661 35699 35674 35704 35641 35606 35677 35777 35770 35785 35718 35726 35779 35846 35892 35881 35991 36063 35972 35916 35975 35961 35915 35903 35820 36070 36173 36168 36152 36176 36119 36019 36021 35986 36004 36011 35986 36069 36001 36008 35946 35947 35941 35912 35775 35732 35733 35713 35803 35858 35899 35900 35941 35891 35967 36054 35960 35858 35818 35755 35816 35894 35846 35860 35989 36003 35846 36199 36213 36042 36035 36077 36045 35994 36004 35906 35885 35811 35728 35740 35642 35497 35493 35334 35339 35413 35643 35534 35893 36062 35975 36041 36111 36012 35919 35883 35795 35863 35957 35886 36010 36013 35894 35971 36001 35967 35819 35907 35783 35694 35740 35935 35812 36027 36178 36228 36167 36095 36119 36334 36345 36404 36400 36402 36259 36273 36120 36128 35919 35992 35853 35694 35478 35460 35457 35470 35593 35601 35620 35703 35698 35621 35647 35525 35498 35683 35906 35997 35901 36040 36080 35917 36023 35929 35880 35688 35657 35715 35680 35674 35676 35723 35855 35982 35838 36018 35960 35962 35996 35933 35962 35938 35852 35799 35754 35766 35640 35774 35534 35450 35490 35446 35411 35626 35742 36076 36122 36305 36421 36468 36420 36418 36445 36436 36540 36773 36835 36817 36733 36783 36806 36636 36636 36535 36532 36616 36843 36839 36871 36826 36827 36908 36800 36852 36815 36816 36968 37084 37129 37112 37102 37033 36993 36927 36879 36725 36555 36341 36444 36457 36474 36482 36668 36725 36774 36868 36736 36818 36721 36660 36556 36598 36812 36807 36895 37068 37149 37083 37105 36993 36889 36720 36513 36451 36345 36261 36121 36015 35952 35736 35779 35872 35584 35282 35043 35030 34996 35071 35164 35148 35184 35394 35411 35496 35350 35231 35157 35072 34898 35048 35025 35187 35093 35033 34884 34836 34975 34659 34740 34661 34532 34479 34525 34758 34792 34859 35024 34997 34914 34948 34819 34895 34777 35225 35189 35170 35109 35260 35460 35287 35302 35273 35249 35052 34930 34931 35020 35220 35048 35172 35331 35263 35286 35113 35128 34901 34992 35045 35015 35141 34971 35158 35313 35144 35446 35276 35361 35280 35155 35374 35360 35294 35403 35532 35514 35562 35564 35543 35356 35164 35208 35044 35194 35298 35134 35338 35410 35403 35224 35270 35366 35413 35214 35330 35662 35509 35478 35756 35938 35935 35934 35926 35724 35689 35700 35818 35828 35797 35773 35802 35798 35698 35620 35509 35406 35298 35227 35083 35151 35174 35021 34892 34785 34728 34815 34842 34893 34829 34429 34179 33911 33688 33335 33145 32970 32849 32818 32719 32579 32289 32189 32302 32279 32259 32384 32439 32503 32427 32557 32636 32699 32596 32561 32607 32689 32834 32777 32895 32858 33027 32980 32929 32832 32692 32482 32523 32371 32416 32447 32472 32545 32428 32486 32424 32684 32497 32476 32546 32493 32641 32533 32477 32473 32461 32563 32535 32531 32566 32616 32661 32786 32759 32723 32679 32735 32648 32745 32895 32912 32731 32701 32642 32545 32459 32639 32706 32615 32870 33196 33374 33319 33288 33364 33410 33291 33399 33518 33599 33551 33664 33744 33750 33831 33770 33646 33689 33566 33748 33664 33677 33650 33713 33759 33882 33899 33829 33770 33656 33746 33882 33984 33948 33994 33990 33924 33905 33869 33839 33750 33717 33770 33931 34054 34220 34433 34499 34425 34328 34220 34155 34164 34144 34126 34134 34129 34177 34170 34220 34295 34344 34360 34402 34464 34560 34620 34714 34816 34836 34782 34752 34806 34970 35003 34877 34796 34802 34768 34763 34737 34752 34800 34890 34867 34833 34744 34663 34581 34515 34471 34502 34479 34449 34505 34535 34588 34661 34567 34475 34454 34365 34336 34342 34365 34351 34309 34348 34358 34504 34538 34440 34259 34119 34200 34272 34192 34182 34172 34241 34228 34313 34293 34355 34327 34185 34108 34032 34004 33963 33906 33855 33852 33907 33940 33969 33973 33877 33805 33957 33965 34083 34087 34182 34229 34290 34253 34258 34258 34309 34286 34196 34105 34027 33952 34003 34132 34097 34124 34144 34185 34288 34581 34477 34326 34316 34304 34309 34330 34253 34325 34421 34523 34607 34681 34818 34774 34778 34847 34886 34939 35136 35147 35143 35268 35270 35307 35393 35285 35363 35497 35623 35604 35747 36007 36274 36403 36499 36534 36666 36760 36677 36901 36852 36811 36992 36983 37105 37181 37334 37358 37341 37384 37313 37253 37190 37429 37581 37683 37651 37559 37598 37737 37766 37753 37756 37854 37749 37659 37524 37427 37441 37526 37687 37659 37689 37740 37909 37900 37922 37789 37712 37713 37654 37635 37562 37480 37312 37383 37322 37261 37223 37150 37003 36901 36899 36980 36877 36829 36895 36777 36758 36734 36645 36527 36227 36024 35885 35917 35948 36018 36011 36055 36050 36079 36070 36038 35775 35588 35434 35485 35517 35530 35553 35479 35548 35550 35474 35593 35284 35095 34908 34843 35002 35020 34992 34926 34867 34790 34680 34600 34502 34361 34254 34235 34420 34478 34522 34596 34772 34862 34850 34790 34668 34382 34121 33887 33591 33549 33593 33535 33689 33805 33872 33906 33664 33341 33384 33517 33584 33586 33572 33684 33717 33647 33692 33736 33525 33217 33033 33016 33034 33024 32954 32971 33070 33048 33080 33176 33209 33167 33083 32986 32952 32774 32932 32953 33052 33122 33153 33233 33332 33343 33293 33328 33437 33514 33586 33443 33360 33413 33508 33554 33452 33303 33157 33014 32914 32778 32635 32699 32805 32973 33017 33032 33099 32956 32821 32808 32888 32896 32926 33026 33077 33034 33239 33425 33522 33539 33452 33399 33414 33447 33435 33395 33565 33742 33752 33906 34117 34149 34203 34193 34158 34219 34293 34407 34394 34371 34404 34404 34505 34530 34571 34577 34697 34835 35052 35104 35217 35280 35288 35429 35583 35642 35746 35621 35667 35682 35576 35460 35438 35311 35227 35137 34927 34741 34673 34539 34397 34464 34492 34427 34481 34629 34598 34641 34705 34616 34519 34460 34431 34348 34426 34445 34439 34419 34517 34561 34475 34601 34569 34536 34732 34761 34702 34870 35017 35117 35051 35022 34946 34766 34705 34494 34494 34472 34443 34375 34199 34112 34150 34101 34191 34133 33995 34009 33969 33919 33882 33972 33901 34005 34101 34212 34158 34039 33926 33883 33751 33920 33922 34110 34101 34115 34028 34076 34064 34027 33905 34002 33883 33906 33975 33823 33994 34003 34028 34091 34003 33976 33828 33875 33814 33799 33741 33710 33680 33718 33738 33690 33838 33962 33965 33857 33740 33715 33807 33823 33821 33934 34168 34128 34241 34244 33989 33942 33971 33907 33912 34062 34145 34352 34460 34513 34543 34633 34798 35138 35065 35173 35372 35552 35588 35745 35865 36093 36180 36342 36400 36370 36308 36289 36214 36236 36256 36285 36302 36495 36621 36750 36807 36815 36686 36760 36800 36740 36808 36842 36849 36827 36758 36666 36559 36577 36685 36675 36659 36545 36518 36503 36557 36701 36699 36892 37012 37196 37226 37278 37256 37201 37134 37104 37140 36979 36952 36976 36915 36886 36896 36865 36757 36565 36346 36151 35983 35928 35793 35507 35273 35048 34871 34902 34876 34972 34844 34878 34873 34796 34913 34773 34758 34884 35144 35086 35351 35444 35247 35104 34958 34938 34728 34628 34734 34856 34871 34865 34882 34756 34710 34623 34438 34490 34549 34511 34600 34731 34801 34830 34769 34662 34437 34317 34286 34322 34308 34195 34165 34119 34067 33958 33892 33741 33507 33357 33289 33329 33383 33523 33639 33545 33597 33661 33737 33882 33862 33790 33957 34082 34237 34477 34645 34655 34633 34728 34627 34473 34270 34258 34164 34218 34364 34330 34324 34280 34426 34477 34413 34231 34062 34073 33897 33800 33765 33813 33880 33961 33960 33959 33996 34120 34274 34189 34266 34277 34310 34363 34396 34329 34330 34270 34448 34513 34528 34513 34475 34612 34646 34701 34692 34643 34619 34719 34802 34832 35229 35313 35500 35504 35428 35535 35641 35799 35885 35798 35774 35751 35885 35889 35826 35759 35742 35733 35587 35478 35482 35383 35197 35073 34961 34942 34903 35079 35254 35378 35498 35559 35599 35627 35467 35362 35331 35373 35350 35352 35359 35442 35441 35492 35543 35521 35442 35412 35442 35566 35732 35929 36046 36139 36349 36444 36513 36411 36174 36155 36286 36449 36656 36856 36833 36832 36889 36959 36967 36995 36790 36642 36439 36271 36179 36218 36630 36886 37060 37149 37147 37090 36982 36756 36547 36252 36037 35917 35777 35754 35879 35845 35763 35620 35676 35698 35740 35712 35614 35547 35570 35395 35280 35215 35283 35395 35475 35581 35599 35531 35487 35458 35415 35450 35582 35781 35938 36114 36231 36172 36221 36185 35945 35825 35725 35893 36141 36383 36679 36875 36852 36883 36875 36851 36760 36583 36468 36343 36418 36529 36606 36719 36687 36713 36633 36595 36529 36412 36146 35904 35669 35473 35265 35194 35254 35421 35570 35543 35389 35207 34984 34750 34626 34635 34577 34575 34526 34502 34463 34520 34655 34792 34766 34678 34743 34901 35078 35189 35337 35413 35371 35386 35427 35635 35817 35999 36268 36407 36412 36346 36264 36128 35993 35892 35845 35788 35854 35771 35666 35518 35404 35243 35080 34941 34831 34804 34840 34966 35214 35562 35794 35825 35873 35914 35974 36036 35954 35846 35795 35748 35719 35594 35437 35301 35208 35092 35209 35088 35082 35061 35195 35380 35395 35415 35523 35562 35705 35949 36090 36174 36286 36330 36547 36531 36641 36732 36754 36868 36954 36943 37136 37104 37253 37109 36987 36926 36892 36606 36403 36355 36123 36075 35920 35892 35802 35836 35728 35699 35514 35199 34972 34991 34919 34911 34945 34941 34886 34924 34957 34944 34755 34735 34585 34655 34449 34356 34394 34235 34371 34316 34279 34123 33912 33903 33914 34023 33958 34036 33862 33971 34051 34105 33992 33852 33737 33689 33678 33776 33875 33840 33670 33419 33259 32993 32720 32365 31987 31753 31671 31719 31675 31601 31548 31562 31559 31343 31126 30976 30837 30955 31074 31079 31312 31165 31017 31028 31154 31239 31286 31224 31037 31046 31154 31294 31545 31690 31796 31916 31908 31787 31797 31840 31933 31860 31850 31975 32056 32071 32047 32061 31969 31803 31822 31901 31962 32017 32012 31995 32122 32152 32102 32053 32064 32043 32064 32084 32178 32267 32324 32422 32368 32408 32468 32423 32222 32112 32263 32328 32323 32401 32363 32415 32631 32631 32605 32513 32409 32382 32606 32715 32741 32753 32796 32858 32931 32952 32949 33012 33221 33310 33200 33192 33306 33359 33316 33575 33533 33553 33611 33456 33470 33522 33595 33541 33755 33842 33884 34091 34254 34241 34176 34016 33996 33964 34037 34092 34058 34086 34069 34058 34093 34291 34208 33981 33870 33710 33686 33770 33794 33827 33961 34046 34086 34128 34112 34066 34035 34158 34311 34558 34703 34863 34946 34947 34865 34838 34683 34606 34528 34525 34429 34344 34300 34461 34646 34635 34674 34499 34260 34251 34281 34332 34446 34662 34585 34387 34381 34523 34730 34773 34752 34709 34712 34787 34816 34905 35010 35194 35324 35431 35392 35386 35324 35269 35294 35262 35409 35488 35518 35636 35705 35739 35692 35617 35549 35460 35311 35517 35559 35433 35660 35684 35851 36136 36025 36099 36099 36046 35894 36005 35976 35941 35852 35808 35686 35626 35424 35204 35334 35310 35268 35400 35395 35507 35559 35642 35750 35622 35553 35486 35214 35284 35296 35362 35228 35116 35246 35321 35210 35188 35416 35348 35521 35507 35763 35812 35869 35769 35925 35780 35867 35747 35758 35504 35518 35538 35580 35587 35657 35851 35984 36007 36053 35961 35910 35789 35800 35792 35657 35751 35831 35918 35687 35820 35739 35628 35535 35536 35416 35437 35580 35571 35516 35799 35967 35909 35856 35687 35546 35517 35389 35520 35408 35391 35231 35278 35286 35362 35265 35065 34926 35032 34973 34987 34833 34810 34790 34648 34684 34690 34806 34974 34883 34891 35034 35191 35238 35545 35617 35605 35759 35730 35842 35743 35549 35566 35500 35358 35283 35303 35246 35176 35176 35066 35119 35061 34772 34482 34237 34155 34015 34067 34179 34191 34101 34247 34200 34221 34292 34269 34262 34043 33878 33809 33728 33776 33806 33935 33832 33805 33759 33680 33659 33621 33779 34024 34244 34440 34685 34832 34987 35211 35312 35408 35363 35424 35489 35509 35621 35725 35855 35877 35960 36003 35967 36027 36033 35943 35913 35894 35906 35905 35930 35870 35808 35702 35616 35504 35455 35350 35324 35359 35476 35677 35762 35804 35859 36014 36101 36179 36128 36042 35927 35801 35724 35639 35648 35761 35802 35933 35914 35986 36055 36138 36205 36163 36191 36057 36040 35920 35825 35624 35536 35496 35271 35064 35035 35049 35103 35318 35455 35759 35938 36076 35989 35893 35613 35372 35278 35088 34888 34699 34528 34423 34411 34213 34065 33902 33680 33590 33707 33815 34220 34284 34424 34485 34686 34476 34215 33995 33639 33567 33700 33769 33734 33673 33487 33488 33469 33332 33123 33451 33234 33296 33248 33229 33247 33386 33605 33801 33830 33973 34294 34295 34595 34696 34730 34637 34555 34495 34241 34017 34000 33763 33766 33884 33897 33907 33901 33843 33763 33755 33790 33851 33724 33766 33966 34095 34061 33914 33905 33831 34134 34096 34018 34093 34119 34535 34583 34814 34887 35089 35269 35270 35229 35354 35412 35577 35990 36131 35984 36054 36168 36342 36296 36334 36177 36100 36107 36031 35964 35881 35844 36055 36130 36394 36327 36433 36526 36347 36486 36457 36514 36359 36404 36189 36152 35795 35878 35746 35514 35416 35300 35152 35220 35610 35525 35415 35347 35356 35611 35752 35924 35998 36264 36471 36630 36820 36766 36673 36804 36639 36807 36929 36960 37153 37264 37293 37345 37350 37351 37205 37123 37224 37221 37275 37469 37617 37611 37661 37749 37541 37347 37193 37023 37055 37041 37189 37265 37407 37541 37528 37599 37211 37196 36954 36973 36953 37036 36795 36914 36925 36840 36555 36429 36341 36252 36262 36142 36074 36054 36015 35934 35876 35764 35764 35609 35635 35666 35664 35915 35887 35859 35827 35774 35742 35454 35256 35123 34939 34935 34880 35010 35063 35207 35257 35157 34885 34766 34715 34886 34839 34986 34963 34915 34843 34694 34393 33928 33577 33337 33319 33374 33314 33230 33363 33417 33583 33631 33604 33454 33655 33724 33797 33780 33834 34009 34142 34446 34664 34682 34628 34563 34473 34371 34244 34128 33930 33832 33649 33516 33336 33265 33153 33143 33041 33007 33092 33118 33135 33246 33339 33446 33206 33103 33157 33079 32955 32870 33005 33030 33326 33637 33616 33510 33415 33429 33458 33464 33585 33651 33560 33611 33690 33690 33586 33626 33687 33629 33564 33511 33656 33775 33627 33632 33625 33593 33647 33624 33633 33586 33542 33549 33713 33811 33806 33782 33844 33813 33759 33692 33803 33815 33849 33859 33881 33957 33886 33775 33738 33901 34074 34190 34074 34186 34137 34138 34082 34154 34040 33972 33958 33992 34008 34132 34142 34121 34126 34368 34280 34320 34112 34196 34298 34297 34201 34186 34220 34196 34393 34435 34460 34793 35175 35598 35964 36345 36436 36583 36687 36718 36775 36629 36359 36208 36069 35853 35826 35757 35715 35685 35677 35658 35680 35552 35539 35700 35680 35639 35468 35430 35404 35327 35206 35243 35230 35068 35114 35335 35482 35392 35348 35284 35367 35262 35043 34892 34691 34496 34470 34481 34505 34436 34426 34345 34121 33951 33884 33840 33882 33920 34101 34204 34404 34302 34390 34448 34513 34793 34833 34920 34957 34955 34888 34789 34742 34718 34477 34391 34380 34258 34225 34216 34224 34306 34293 34303 34202 34028 33910 33796 33686 33681 33925 34088 34116 34095 34028 33955 33917 33907 34017 33989 34121 34209 34230 34218 34278 34190 34063 34153 34177 34237 34096 34146 34223 34286 34551 34699 34725 34543 34674 34672 34739 34719 34710 34660 34747 34806 34804 34854 34864 34880 34792 34763 34750 34705 34784 34846 35057 35146 35126 34957 34794 34788 34855 34748 34743 34722 34777 34759 34753 34688 34539 34471 34628 34716 34748 34929 34906 34927 35112 35117 35230 35345 35453 35582 35628 35721 35703 35795 35844 35868 35833 35715 35660 35634 35680 35698 35746 35804 35908 35871 36001 35972 35951 36108 36041 36169 36084 35984 35811 35895 35705 35863 35932 35660 35941 35950 35979 35946 35887 35829 35746 35724 35498 35412 35303 35307 35328 35350 35746 35669 35856 35778 35616 35422 35334 35232 35234 35204 35178 35315 35357 35342 35223 35078 35033 34906 34836 34960 35015 34985 34969 34950 34997 34907 34838 34802 34772 34779 34747 34755 34713 34524 34421 34374 34184 34049 33965 33879 33816 33854 33887 33893 33863 33923 33915 33774 33770 33755 33776 33777 33772 33771 33789 33740 33738 33705 33739 33883 33719 33845 34351 34373 34507 34472 34507 34345 34258 34144 34066 34153 34193 34220 34267 34219 34127 34175 34256 34279 34266 34322 34427 34438 34369 34384 34390 34465 34570 34501 34398 34428 34518 34614 34644 34731 34749 34754 34758 34725 34557 34579 34580 34554 34635 34679 34707 34717 34807 34885 34859 34848 34920 34972 35074 35218 35268 35320 35378 35427 35412 35357 35285 35252 35156 35188 35162 35097 35115 35146 35130 35115 35108 35069 35108 35140 35119 35170 35168 35140 35139 35152 35099 35065 35069 35239 35301 35387 35449 35367 35367 35375 35306 35222 35245 35284 35373 35485 35567 35609 35673 35747 35790 35713 35706 35610 35676 35707 35666 35762 35773 35821 35690 35538 35445 35326 35241 35243 35245 35245 35247 35217 35157 35227 35046 34921 34832 34797 34810 34798 34774 34786 34849 34872 34830 34739 34636 34561 34596 34625 34640 34649 34655 34733 34700 34570 34482 34482 34598 34662 34696 34768 34864 35042 35023 34934 34890 34763 34787 34838 34820 34732 34649 34540 34553 34634 34582 34423 34382 34377 34598 34775 34819 34898 35320 35326 35402 35264 35094 35116 35143 35004 35048 35183 35187 35186 35237 35125 35112 35206 35286 35294 35254 35258 35244 35230 35156 35062 34982 34904 34846 34860 34862 34963 35072 35063 35092 35231 35236 35277 35323 35279 35305 35440 35488 35567 35631 35653 35662 35566 35391 35393 35418 35438 35431 35505 35582 35579 35586 35542 35374 35342 35380 35427 35466 35535 35534 35559 35568 35524 35502 35462 35391 35361 35393 35327 35347 35383 35317 35275 35255 35108 34979 34882 34881 34877 34884 34933 34901 34936 34988 34945 34868 34814 34659 34613 34688 34663 34658 34752 34764 34768 34724 34551 34411 34401 34441 34561 34658 34677 34736 34781 34781 34647 34621 34608 34619 34675 34775 34769 34831 34819 34673 34689 34601 34555 34603 34541 34542 34577 34656 34622 34697 34724 34752 34704 34600 34604 34640 34726 34656 34657 34769 34710 34678 34643 34468 34501 34647 34745 34909 34953 35072 35215 35318 35333 35339 35438 35412 35347 35295 35275 35348 35396 35395 35345 35342 35205 35143 35183 35123 35226 35335 35318 35329 35310 35342 35473 35449 35440 35526 35510 35583 35657 35715 35727 35749 35751 35792 35760 35712 35749 35757 35813 35871 35881 35925 35905 35948 35965 35963 35893 35817 35700 35627 35598 35585 35596 35582 35663 35663 35590 35566 35562 35521 35513 35535 35520 35535 35557 35540 35489 35420 35280 35265 35369 35429 35635 35730 35894 35861 35963 35780 35726 35772 35647 35671 35637 35541 35491 35486 35361 35184 34970 34963 34806 34779 34832 34954 34887 34862 34935 35007 35100 34873 34756 34646 34542 34528 34567 34554 34538 34513 34485 34362 34180 34130 34077 33996 33932 33952 33973 34045 34156 34112 34108 34161 34189 34159 34189 34133 34082 34115 34077 34043 33994 33893 33834 33804 33772 33872 33927 33853 33889 33899 33821 33807 33771 33672 33749 33898 33931 34041 34043 34001 34114 33978 33815 34023 34019 33872 33996 34008 34027 34056 34282 34344 34409 34443 34349 34312 34292 34244 34315 34344 34270 34370 34269 34297 34440 34462 34429 34304 34258 34349 34488 34530 34589 34621 34641 34713 34863 34795 34800 34723 34634 34662 34713 34546 34535 34578 34616 34704 34800 34996 35131 35175 35290 35463 35337 35385 35425 35307 35337 35416 35446 35504 35515 35432 35272 35317 35350 35422 35455 35498 35516 35505 35495 35562 35506 35457 35471 35443 35432 35455 35472 35475 35510 35490 35469 35451 35314 35295 35309 35374 35417 35435 35473 35572 35587 35510 35449 35375 35376 35409 35376 35339 35400 35383 35351 35296 35118 35079 34941 34953 35012 34945 35010 35056 35002 35018 34895 34676 34654 34686 34550 34553 34514 34403 34402 34369 34295 34184 34108 34159 34289 34339 34464 34572 34551 34588 34437 34249 34171 34154 34136 34247 34254 34220 34167 34094 34127 34148 33973 33862 33835 33835 33866 33993 34015 34036 34025 33935 33898 33875 33832 33848 33791 33862 33892 33890 33976 34134 33995 34096 34074 34043 34146 34186 34196 34205 34187 34185 34125 33985 33983 34028 34047 34111 34185 34156 34078 34032 34071 34044 34022 34146 34169 34184 34254 34218 34303 34351 34270 34172 34071 34020 34045 34075 34073 34200 34314 34442 34606 34692 34672 34759 34708 34618 34585 34674 34712 34780 34781 34766 34764 34718 34788 34737 34786 34854 34891 34930 34973 34981 35064 35005 34924 34936 34937 34970 35025 35072 35115 35135 35131 34962 34924 34919 34895 35001 35009 34942 34978 35001 34936 34866 34782 34684 34740 34771 34794 34948 35083 35138 35106 35142 35169 35185 35217 35222 35187 35090 35060 35143 35112 35160 35214 35159 35249 35398 35576 35687 35704 35630 35509 35369 35158 34971 34826 34740 34684 34662 34661 34743 34812 34733 34789 34684 34558 34555 34502 34468 34488 34471 34467 34424 34410 34452 34340 34210 34078 33984 33966 33992 33914 33910 34000 34071 34103 34042 33992 34025 34131 34214 34160 34175 34160 34049 33984 33827 33645 33484 33497 33632 33732 33744 33833 33926 33802 33728 33605 33465 33496 33499 33424 33398 33407 33422 33445 33515 33519 33295 33114 33119 33115 33191 33298 33367 33370 33403 33413 33320 33120 33131 33150 33132 33162 33248 33346 33400 33547 33648 33690 33776 33997 34265 34394 34571 34722 34883 34991 35021 34855 34683 34523 34396 34188 34097 34064 33884 33834 33864 33844 33794 33635 33503 33591 33774 33870 33862 33903 33940 33914 33915 33847 33731 33794 33874 33908 33985 34037 34011 34055 34239 34364 34348 34548 34578 34407 34177 34052 34038 33985 34008 34065 34095 34062 34054 34016 34121 34191 34108 34141 34153 34164 34231 34121 34064 34118 34162 34375 34455 34516 34673 34663 34751 34790 34609 34478 34395 34279 34357 34417 34388 34436 34507 34559 34617 34604 34465 34535 34615 34630 34664 34705 34664 34604 34623 34518 34488 34434 34358 34327 34341 34277 34175 34156 34157 34177 34111 34021 33909 33903 33819 33915 33934 33921 33920 33901 33774 33663 33508 33470 33382 33439 33403 33529 33545 33523 33611 33685 33785 33692 33851 33972 34054 34235 34301 34289 34244 34200 33971 33885 33834 33765 33770 33825 33762 33686 33588 33529 33491 33485 33446 33454 33518 33573 33692 33794 33822 33805 33831 33765 33649 33558 33429 33457 33607 33800 33783 33890 33988 33915 33954 34042 33996 34093 34189 34209 34308 34407 34496 34517 34443 34356 34293 34361 34334 34349 34429 34434 34367 34349 34232 34118 34091 34081 34059 34080 34125 34243 34255 34234 34274 34139 34214 34303 34363 34403 34552 34589 34618 34700 34779 34650 34590 34673 34827 34819 34891 34829 34986 35159 35292 35242 35242 35285 35323 35360 35522 35452 35485 35409 35352 35271 35182 35159 35189 35158 35166 35122 35119 35086 35172 35080 34866 34747 34716 34689 34814 34930 35015 35010 35137 35124 34979 35184 35405 35328 35468 35413 35451 35526 35717 35615 35742 35990 36016 35929 35907 36005 36026 35995 35954 35893 35597 35285 35034 35117 35297 35472 35603 35660 35740 35818 35911 35874 35901 35902 35815 35699 35540 35426 35395 35267 35108 34915 34677 34447 34281 34175 34152 34140 34106 34028 33972 33853 33793 33773 33787 33834 33990 34034 34026 33961 33886 33739 33628 33617 33578 33591 33654 33725 33662 33659 33670 33583 33385 33367 33385 33431 33470 33592 33661 33765 33789 33740 33775 33749 33752 33887 33982 34003 34024 34062 34175 34064 33973 33947 33913 33923 33965 33996 34012 34020 34044 34083 33998 33869 33851 33847 33842 33890 34031 34028 33900 33872 33889 33919 33971 33961 34080 34145 34176 34233 34259 34304 34256 34135 34147 34137 34060 34181 34319 34394 34394 34381 34346 34258 34214 34200 34238 34173 34154 34165 34123 34146 34075 33971 33974 33923 33979 34089 34170 34214 34275 34323 34295 34142 34097 34117 34175 34277 34317 34321 34356 34429 34520 34495 34408 34409 34308 34238 34260 34286 34344 34452 34575 34672 34624 34653 34688 34718 34771 34882 34975 35141 35157 35072 34700 34557 34523 34510 34920 34836 34841 34941 35216 35837 35899 35899 35753 35702 35524 35886 35805 35748 35679 35876 36060 35840 35686 35657 35638 35575 35491 35528 35551 35608 35714 35822 35976 36050 36092 35970 35903 35721 35604 35461 35347 35266 35076 34930 34866 34807 34845 34809 34829 34784 34802 34659 34426 34331 34293 34351 34359 34423 34483 34442 34483 34492 34312 34227 34225 34259 34267 34298 34342 34316 34286 34303 34215 34110 34176 34271 34418 34570 34721 34827 34981 35150 35187 35127 35084 34983 34985 35009 35099 35162 35193 35241 35196 34989 34787 34608 34417 34316 34272 34191 34105 34116 33998 33825 33707 33641 33747 33781 33771 33798 33707 33861 33945 33800 33727 33749 33733 33803 33885 33862 33965 34100 34222 34310 34400 34438 34421 34450 34518 34491 34443 34428 34387 34232 34118 34039 34033 34068 34089 34067 34044 33909 33824 33713 33672 33611 33598 33690 33820 33832 33894 33987 34125 34122 33997 34025 34022 34113 34144 34144 34275 34285 34292 34232 34160 34124 34286 34517 34736 34924 34837 34847 34975 35091 35209 35329 35521 35724 35887 35969 36031 36152 36267 36371 36394 36335 36338 36388 36406 36425 36270 36291 36339 36409 36423 36488 36574 36576 36622 36619 36545 36539 36497 36452 36339 36104 35992 36020 36010 36164 36297 36549 36848 36985 37117 37110 37161 37137 37071 36990 36913 36848 36875 36851 36714 36627 36568 36460 36333 36208 36084 35963 35921 35926 35855 35694 35613 35539 35567 35594 35627 35610 35634 35708 35546 35401 35251 35241 35274 35329 35475 35537 35687 35939 36173 36347 36171 36155 36002 35876 35731 35598 35531 35562 35451 35241 35072 34986 34897 34832 34757 34718 34581 34714 34693 34394 34183 34130 34078 34038 34020 33999 34081 34135 34166 33988 33903 33874 33813 33929 33945 33911 33967 33959 33914 33851 33822 33957 34083 34153 34176 34244 34233 34296 34348 34237 34272 34253 34257 34343 34479 34557 34603 34459 34404 34197 33992 34031 34072 34157 34170 34138 34224 34307 34322 34259 34012 33899 33758 33724 33843 33957 34039 34060 34094 34167 34175 34263 34415 34610 34842 35030 35255 35403 35514 35521 35478 35399 35327 35398 35392 35352 35289 35267 35154 35019 34821 34643 34598 34597 34674 34761 34842 34929 34972 35061 35041 35093 35034 34978 34952 35011 34988 35063 35085 35156 35218 35011 34993 35064 35192 35413 35605 35628 35596 35609 35581 35481 35381 35378 35493 35639 35774 35931 35938 35869 35776 35624 35543 35396 35354 35254 35221 35153 35038 35019 35140 35066 34989 34812 34722 34686 34661 34694 34685 34615 34595 34641 34498 34383 34370 34502 34630 34821 34966 35038 34998 35036 34850 34634 34547 34546 34621 34720 34819 34859 34809 34750 34535 34347 34157 34025 33967 34033 34046 34042 34100 34161 34130 33973 33869 33989 34081 34141 34130 34166 34191 34225 34246 34122 34030 34145 34384 34632 34753 34917 35045 35073 35036 34868 34810 34765 34781 34885 34963 34968 34937 34750 34713 34463 34194 34077 34069 34151 34206 34316 34349 34446 34532 34520 34373 34250 34254 34328 34318 34365 34393 34370 34399 34494 34369 34382 34402 34556 34794 35015 35180 35337 35371 35383 35155 35036 34977 34952 35014 34929 34967 34835 34826 34652 34421 34287 34169 34250 34396 34557 34707 34832 34900 34979 34910 34788 34670 34632 34689 34696 34842 35004 35246 35567 35709 35694 35659 35658 35724 35808 35896 35991 36088 36153 36135 36099 36071 36107 36184 36274 36474 36649 36894 37189 37477 37580 37443 37236 37029 36940 37038 37200 37316 37216 37151 36948 36629 36389 36204 36158 36203 36274 36305 36362 36424 36434 36317 36160 36041 35859 35638 35322 35295 35422 35454 35519 35476 35438 35456 35489 35584 35695 35782 35846 35895 35932 35899 35719 35497 35304 35010 34884 35133 35474 35643 35677 35717 35625 35426 35338 35389 35486 35672 35729 35800 35791 35757 35745 35722 35584 35516 35441 35388 35486 35610 35712 35847 