5055 5060 5055 5060 5061 5059 5064 5062 43000 43012 43027 43016 43067 43155 43207 43216 43189 43208 43220 43233 43207 43217 43214 43199 43215 43202 43198 43177 43183 43178 43179 43190 43175 43184 43147 40891 38365 36790 36680 36508 36219 35985 35914 35829 35719 35744 35690 35706 35750 35777 35790 35835 35822 35801 35791 35744 35749 35732 35695 35610 35554 35461 35380 35326 35373 35375 35384 35457 35529 35581 35624 35646 35663 35699 35763 35866 36019 36593 38495 40060 41126 41710 42207 43160 44014 44086 44217 44237 44294 44330 44290 44279 44291 44313 44368 44392 44379 44373 44384 44355 44247 44154 44015 43800 42209 41090 38838 38098 38167 38266 37868 37523 37395 37386 37480 37608 37726 37852 37976 38096 38290 38525 39215 40757 43612 44243 44270 44255 44296 44301 44308 44308 44283 44283 44163 43113 41479 40481 39826 39711 39883 40158 40380 42997 44344 44395 44403 44419 44408 44398 44412 44410 44416 44412 44393 43808 40555 40626 41817 41818 41897 41606 41209 40496 40017 39766 39354 38905 38749 38662 38595 38558 38551 38563 38553 38549 38536 38549 38551 38574 38586 38608 38599 38613 38634 38693 38744 38782 38800 38819 38827 38842 38875 38974 39064 39187 39409 39809 40808 43208 44535 44531 44572 44567 44577 44596 44599 44599 44612 44595 44628 44629 44639 44637 44656 44646 44646 44661 44651 44645 44646 44659 44662 44645 44688 44661 44661 44666 44671 44674 44673 44639 44652 44662 44664 44676 44680 44675 44704 44675 44681 44697 44683 44673 44695 44684 44694 44710 44693 44716 44710 44707 44713 44714 44723 44713 44749 44736 44758 44754 44739 44735 44742 44763 44726 44673 44604 44502 44438 44365 44316 44224 44132 44055 43945 43902 43840 43781 43713 43663 43653 43590 43477 43299 43101 42922 42786 42685 42597 42546 42477 42387 42308 42284 42235 42195 42161 42148 42129 42083 42040 41849 41633 41442 41322 41239 41162 41075 41001 40903 40851 40833 40833 40831 40744 40670 40589 40490 40403 40230 39953 39543 39228 38909 38626 38363 38086 37822 37542 37307 37097 36911 36735 36559 36406 36276 36123 35978 35862 35610 35250 34907 34618 34382 34199 34032 33882 33722 33574 33458 33364 33284 33256 33213 33180 33175 33135 33136 33103 32992 32786 32618 32517 32444 32424 32388 32368 32351 32327 32292 32303 32312 32329 32327 32348 32361 32377 32408 32345 32200 32051 31949 31905 31869 31881 31857 31806 31757 31742 31757 31758 31784 31778 31835 31849 31887 31900 31786 31622 31478 31402 31361 31361 31348 31355 31346 31350 31350 31385 31426 31454 31500 31537 31562 31619 31660 31580 31424 31294 31200 31163 31179 31180 31181 31199 31202 31222 31271 31316 31337 31364 31439 31484 31527 31572 31584 31474 31366 31307 31258 31252 31253 31289 31321 31332 31346 31367 31405 31449 31466 31487 31506 31553 31572 31535 31424 31311 31249 31211 31261 31308 31335 31335 31362 31381 31412 31448 31499 31517 31542 31557 31560 31553 31463 31337 31283 31278 31311 31346 31393 31407 31404 31445 31472 31500 31559 31598 31626 31682 31715 31752 31716 31604 31513 31447 31434 31429 31482 31532 31545 31581 31624 31680 31739 31803 31871 31957 31999 32082 32150 32113 32017 31945 31907 31909 31946 31948 31933 31939 31942 31937 31939 31938 31961 31972 31965 31947 31935 31854 31689 31555 31480 31435 31429 31425 31415 31402 31404 31441 31455 31467 31511 31548 31563 31614 31559 31439 31353 31310 31269 31297 31321 31304 31314 31309 31340 31371 31398 31427 31445 31471 31503 31486 31411 31295 31224 31203 31192 31188 31206 31205 31209 31250 31280 31302 31344 31373 31433 31439 31504 31483 31355 31289 31199 31201 31220 31244 31239 31256 31247 31243 31259 31289 31307 31312 31361 31372 31366 31276 31165 31071 31025 30981 30964 30920 30910 30870 30881 30884 30902 30924 30952 31030 31137 31233 31230 31163 31082 31052 31056 31084 31098 31123 31158 31220 31282 31340 31403 31453 31505 31559 31637 31676 31621 31497 31402 31382 31385 31307 31216 31188 31210 31237 31274 31248 31261 31295 31347 31387 31438 31473 31469 31347 31232 31131 31103 31142 31177 31264 31317 31374 31440 31486 31513 31553 31609 31645 31706 31813 31875 31840 31773 31754 31767 31819 31844 31872 31897 31905 31889 31889 31868 31863 31947 32047 32102 32123 32060 31970 31952 31955 31981 32012 32032 32057 32073 32100 32136 32166 32218 32281 32324 32357 32349 32278 32220 32158 32132 32077 32077 32058 32101 32120 32206 32255 32326 32398 32459 32497 32493 32492 32440 32370 32326 32293 32285 32351 32464 32536 32652 32793 32958 33165 33370 33602 33857 34197 34540 34833 35146 35347 35650 35918 36197 36425 36578 36704 36872 37061 37268 37437 37623 37700 37801 37836 37929 37951 37974 38040 38131 38217 38289 38374 38448 38506 38565 38635 38686 38735 38798 38852 38888 38868 38855 38879 38902 38965 38989 39028 39091 39131 39184 39235 39263 39332 39369 39395 39458 39485 39481 39442 39437 39452 39503 39529 39571 39613 39628 39662 39749 39781 39827 39882 39949 39984 40004 40012 39979 39975 39976 40027 40058 40074 40114 40168 40204 40281 40285 40325 40249 39350 38682 38298 38017 37994 38196 38278 38376 38373 38381 38412 38460 38564 38741 38948 39272 39501 40200 40285 40264 40259 40232 40154 39984 39509 39146 38942 39021 38948 38925 38945 38954 38970 38752 38777 38769 38988 38952 38872 38820 38776 38688 38618 38590 38630 38683 38726 38589 38975 38991 39420 39491 39550 39584 39603 39647 39690 39696 39694 39643 39548 39450 39307 39202 39135 39079 38987 38906 38852 38767 38718 38683 38655 38614 38596 38592 38543 38448 38292 38181 38118 38042 38002 37961 37925 37904 37866 37839 37852 37850 37843 37820 37846 37847 37867 37817 37745 37634 37553 37484 37443 37395 37349 37320 37272 37239 37192 37175 37163 37140 37139 37157 37149 37122 37041 36944 36853 36759 36741 36701 36695 36654 36640 36648 36637 36641 36665 36673 36702 36724 36747 36764 36747 36714 36645 36586 36592 36591 36604 36616 36592 36607 36617 36638 36697 36718 36749 36791 36859 36914 36956 36958 36918 36890 36879 36868 36874 36890 36895 36915 36946 36961 36988 37034 37064 37093 37145 37183 37211 37167 37149 37112 37100 37082 37124 37115 37099 37114 37118 37122 37165 37200 37214 37262 37296 37351 37371 37365 37286 37213 37188 37154 37166 37161 37175 37197 37205 37224 37260 37258 37288 37326 37346 37356 37407 37435 37384 37333 37284 37236 37211 37152 37147 37110 37099 37112 37124 37135 37139 37168 37172 37192 37211 37223 37154 37109 37012 36986 36942 36890 36873 36870 36832 36820 36849 36887 36934 36974 37036 37087 37151 37201 37199 37187 37159 37163 37139 37140 37161 37150 37177 37206 37223 37230 37240 37213 37219 37247 37287 37284 37275 37255 37259 37295 37336 37362 37400 37427 37457 37521 37555 37575 37594 37634 37692 37718 37730 37752 37719 37698 37674 37695 37711 37767 37810 37894 37946 38008 38081 38142 38202 38250 38283 38314 38335 38363 38384 38434 38503 38552 38613 38648 38664 38665 38680 38689 38728 38759 38803 38807 38828 38810 38796 38812 38821 38879 38905 38918 38932 38966 38992 39015 39086 39105 39152 39224 39306 39369 39376 39345 39249 39216 39053 38811 38696 38609 38527 38457 38475 38506 38537 38456 38411 38445 38439 38472 38526 38631 38731 38788 38839 38870 38918 39044 39242 39502 39381 39156 39088 39115 39065 39247 39532 39634 39744 39771 39748 39762 39773 39744 39806 39967 40104 40058 39758 39642 39623 39568 39698 40018 40188 40276 40307 40246 40237 40201 40164 40235 40280 40239 40251 40032 39944 39915 39928 40063 40138 40199 40248 40250 40106 40055 40074 40069 40241 40130 40179 40196 39895 39804 39775 39825 40007 40010 39981 40014 39989 39952 39976 39906 39961 39994 39978 40043 40029 39807 39695 39663 39791 39996 40126 40172 40228 40196 40119 40133 40105 40316 40351 40471 40393 40230 40054 39213 39011 40195 40417 40477 40456 40461 40419 40394 40388 40425 40608 40671 40658 40579 40461 40330 40363 40469 40661 40824 40907 40872 40914 40847 40814 40814 40903 41155 41403 41302 41018 40883 40777 39794 39979 41259 41409 41446 41271 41166 41092 41024 41086 41437 41624 41724 41520 41171 40452 38127 37641 39089 41366 41510 41514 41398 41250 41055 40917 41170 41573 41790 41919 41466 41098 38929 37562 37462 39493 41096 41512 41460 41338 41078 40871 40905 41087 41387 41588 41500 41083 40412 37189 36151 36311 39352 41086 41187 41073 40896 40403 40311 40542 40855 41019 41098 41130 40663 40169 39164 38565 39030 40031 40462 40497 40353 40184 40003 39909 39913 40080 40152 40126 40031 39688 39375 39248 39179 39219 39417 39541 39506 39376 39276 39109 39036 38971 39055 39099 39059 39092 38947 38699 38649 38631 38703 38830 38928 38963 38959 38877 38700 38591 38525 38562 38485 38505 38517 38417 38182 38178 38181 38174 38359 38384 38425 38455 38407 38296 38285 38294 38385 38387 38312 38305 38166 38000 37963 37951 38146 38235 38255 38195 38261 38250 38173 38193 38202 38288 38297 38344 38461 38558 38508 38491 38497 38550 38662 38687 38684 38735 38727 38672 38726 38760 38831 38924 38941 39061 39018 38908 38879 38891 38883 39076 39147 39175 39267 39315 39271 39267 39205 39271 39249 39408 39458 39323 39311 39349 39366 39337 39303 39294 39232 39161 39161 39150 39179 39191 39104 39098 39099 39127 39238 39328 39339 39440 39436 39411 39432 39435 39318 39227 39251 39236 39228 39260 39252 39226 39166 39176 39166 39186 39192 39170 39172 39133 39108 39014 38889 38742 38710 38799 38944 38888 38735 38556 38486 38536 38635 38770 38884 38972 38977 38946 38897 38817 38794 38806 38810 38825 38865 38923 38988 39010 39026 39080 39194 39187 39271 39228 39186 39103 39020 38978 39007 39136 39294 39433 39586 39742 39842 39962 40020 40121 40208 40176 40065 39981 39995 40019 40070 40104 40072 40158 40236 40314 40507 40499 40520 40505 40518 40435 40479 40470 40406 40328 40279 40311 40332 40355 40372 40440 40469 40490 40521 40573 40610 40609 40634 40655 40702 40771 40763 40653 40641 40664 40654 40568 40678 40768 40857 40936 40972 41016 41014 41042 41020 41039 41078 41096 40989 40901 40882 40799 40752 40791 40764 40783 40755 40752 40733 40739 40726 40751 40737 40715 40662 40699 40668 40635 40497 40262 40151 40053 40033 39985 40032 40016 39940 39764 39667 39661 39655 39577 39371 39242 39264 39294 39338 38807 39420 38097 35263 33612 35901 37308 38204 38734 39444 39596 39638 39572 39606 39202 37836 39014 39133 39777 37818 31880 29124 29814 32816 36270 38291 40822 40819 40698 39644 39528 39283 37310 37828 38919 39409 36577 32804 33490 34201 36616 38628 39570 40010 39863 39487 38652 38837 38877 37873 37937 39094 38582 36523 29610 27898 29252 32172 35445 38480 38662 38954 37857 37374 38203 38606 38226 38653 40329 40294 36355 36501 38505 36705 35528 39107 39812 39836 39658 39380 39340 39368 39391 39309 39441 39578 39990 34184 28443 26434 29658 34450 37204 39712 39624 39268 38615 38486 38530 38237 40404 40648 40706 37522 32561 31570 34135 37658 40255 40555 40517 40503 40302 39722 39579 39101 39706 40776 40924 37019 31957 33400 35422 35629 37400 38821 39531 39434 39224 38976 38426 37951 37141 40003 40693 39379 34646 31798 32252 33820 35643 37625 39635 39599 39577 39356 39055 38643 38639 38561 40672 40891 40286 36642 35852 38211 38269 38026 39171 40229 40562 40599 40453 40180 39747 39582 40189 40434 40607 40748 40483 36729 37298 38364 38593 38921 40063 40250 40244 40169 39639 39509 39389 39262 39819 39855 39684 36733 33239 37631 37753 37359 38391 39891 40318 40289 40259 39846 39227 39376 40156 40492 40588 40573 39282 36472 38011 39128 38889 39151 40022 40466 40472 40389 40186 39962 40007 40041 40224 40467 40596 39320 35280 37039 36659 36697 36807 38348 39112 39387 39441 39607 39328 39908 40170 40361 40664 41023 40448 37125 36330 37897 37727 38472 39968 40530 40596 40588 40512 40248 40104 40316 40467 40964 41394 41132 38447 36266 36640 36333 37615 38891 39952 40398 40367 40275 39655 39422 39253 40192 40724 40929 40950 40211 37631 38815 39318 40015 40271 40418 40610 40562 40488 40407 40324 40286 40264 40381 40534 40718 40948 40718 40577 40478 40525 40587 40685 40872 41008 41090 41086 40899 40757 40757 40770 40941 41072 41234 41097 40811 40504 40451 40566 40635 40904 41130 41247 41269 41216 41057 40999 41047 41094 41288 41262 41070 40949 40962 40966 40970 40989 40901 40891 40874 40830 40786 40686 40606 40544 40462 40454 40535 40543 40526 40453 40360 40301 40267 40303 40258 40194 40145 40031 39823 39827 39786 39781 40006 40319 40573 40686 40459 40108 40040 39996 39949 39918 40014 40117 40088 40088 40043 39955 39929 39931 40087 40189 40213 40208 39902 39625 39579 39569 39674 39844 40048 40193 40229 40143 40017 39916 39849 39939 39919 40001 40042 39775 39638 39546 39580 39682 39744 39650 39401 39154 38973 38841 38743 38656 38563 38541 38610 38679 38712 38641 38529 38421 38404 38401 38384 38418 38381 38249 38136 38009 37949 37917 37907 37884 37786 37692 37656 37681 37745 37828 37927 37909 37970 37925 37806 37691 37636 37554 37553 37682 37891 38109 38174 38093 37887 37818 37831 37839 38044 38416 38725 38828 38860 38897 38874 38801 38834 39117 39287 39400 39299 38908 38741 38684 38662 38863 39136 39236 39231 39178 39042 39010 39011 38986 39146 39282 39364 39263 39008 38741 38625 38597 38534 38496 38427 38407 38342 38351 38280 38190 38076 37951 37878 37813 37820 37837 37880 37805 37696 37595 37593 37705 37647 37629 37549 37434 37304 37322 37371 37408 37547 37580 37758 38018 38215 38195 37927 37736 37694 37735 37864 38152 38314 38392 38393 38303 38212 38209 38209 38395 38498 38547 38529 38360 38039 37931 37938 38006 38215 38620 38796 38829 38703 38549 38433 38387 38327 38461 38596 38695 38708 38643 38277 38188 38140 38102 38301 38670 38832 38850 38783 38695 38625 38604 38579 38767 38842 38871 38852 38585 38299 38229 38295 38421 38700 38817 38914 38923 38840 38765 38714 38638 38537 38499 38598 38836 38686 38475 38415 38437 38556 38810 39053 39145 39064 39064 38902 38833 38788 38716 38728 38787 38899 39020 38975 38688 37426 35880 36298 38723 38943 39000 39027 38954 38799 38683 38626 38643 38644 38590 38795 38874 38646 38524 35080 33256 35171 38168 39117 39228 39271 39202 39003 38341 38907 38876 38942 39124 39303 39229 38922 33626 28195 31345 36194 37132 37636 38499 38832 38864 38963 39265 40543 40609 40850 41045 41249 40951 40583 37865 35939 35318 36928 39797 39984 39933 39886 39580 39586 40102 40358 40462 40609 40832 40639 40339 39634 37644 36284 37206 40348 40769 40418 40106 39434 38195 37384 38749 40224 40388 39990 38976 39722 39899 39891 39808 39717 39611 39582 39548 39515 39405 39264 39205 39194 39216 39198 39167 39047 38880 38688 38502 38338 38272 38304 38199 38156 38054 38248 38304 38484 38546 38618 38790 39017 39154 39005 38826 38754 37410 35661 37616 39460 39567 39533 39416 38787 38278 39286 39515 39760 39905 40101 39986 39710 39440 39338 39347 39389 39835 40160 40260 39941 39076 38369 38735 39589 39868 40074 40234 40322 39879 39426 39301 38767 37711 39569 39929 39949 39823 39503 38969 39067 39134 39164 39389 39745 40005 39703 39380 39266 37883 36085 37818 39991 40210 40087 39331 38745 38960 39878 39971 40244 40512 40733 40581 40218 39933 39808 38662 37337 40079 40743 40617 40160 39425 39099 39557 40712 40976 41156 41474 41575 41020 40771 40879 41008 41342 41779 41974 41994 40702 39775 39263 39731 40475 41418 41694 41964 42184 42217 41612 41125 41106 40663 39968 41633 41654 41322 40409 39170 38981 39279 40709 41636 41757 41894 41725 41227 39671 37417 36976 38864 41059 41330 41318 41183 40320 40166 41045 41014 41264 41443 41616 41899 41627 41206 40959 40940 41024 41625 41864 41926 41778 41339 40962 40806 40840 41081 41278 41485 41518 40976 40592 40482 40433 40357 40458 40874 41069 41073 40856 40617 40403 40322 40243 40289 40398 40630 40863 40927 40749 40429 40162 40041 40069 40417 40753 41012 41168 41212 41201 41099 40992 40868 40826 40882 41063 41364 41252 40592 40380 40323 40347 40482 40894 41208 41318 41232 40944 40743 40739 40734 40968 41230 41684 41650 41084 40625 40571 40531 40679 40814 40984 40990 40833 40800 40756 40777 40760 40941 41161 41542 41737 41434 40873 40448 40321 40334 40716 41034 41260 41353 41208 41215 41221 41258 41241 41261 41456 41478 40727 40154 39866 39804 39877 40132 40525 40790 40821 40692 40405 40199 40088 40042 40264 40514 40898 40380 39741 39559 39577 39670 39964 40213 40358 40365 40263 40088 39984 39948 39989 40298 40711 40888 40341 39773 39588 39477 39340 39389 39625 39613 39304 38980 38907 38811 38549 38326 38078 38286 38445 38318 38198 38044 37865 37761 37735 37774 37829 37858 37694 37478 37546 37672 37978 38763 38954 39028 39127 38659 38283 38082 37970 38011 38100 38369 38895 39177 39163 38891 38679 38538 38471 38745 39124 39352 39088 38577 38315 38295 38258 38177 38234 38542 38525 38535 38344 38153 38094 38030 38072 38749 39218 39127 38689 38124 37900 37775 37613 37418 37478 38108 38366 38161 37909 37798 37712 37658 37704 38419 38782 38647 38219 37894 37776 37778 37769 37936 38203 38187 38689 38921 39014 39210 39590 39813 39750 39635 39545 39621 39734 39908 40018 40295 40494 40258 40315 40336 40521 40746 40739 40827 40949 41009 40968 41030 41005 40884 40959 41033 40946 40849 40732 40773 40861 40798 40804 40801 40708 40644 40524 40793 41058 41168 40858 40381 40144 40016 39965 39962 40163 40365 40447 40368 40235 40081 39962 39882 39836 40085 40291 40515 40580 40141 39789 39663 39625 39608 39798 40119 40215 40233 40193 40120 40016 40016 39987 40058 40286 40453 40661 40668 40104 39508 39292 39241 39343 39663 40040 40021 39711 39415 39249 39182 39122 39015 38917 38974 39271 39551 39487 39111 38924 38887 38930 38928 39056 39148 39232 39271 39269 39244 39197 39107 39250 39509 39800 40012 39745 38981 38652 38500 38474 38854 39244 39430 39460 39352 39235 39148 39009 38796 38798 39024 39294 39270 38923 38523 38357 38314 38312 38399 38667 38680 38626 38598 38537 38569 38643 38627 38643 38774 38996 39461 39679 39255 38777 38567 38431 38383 38805 39160 39341 39339 39329 39270 39255 39246 39364 39553 39874 40111 39823 39192 38973 38977 39069 39363 39658 39846 39970 39972 39889 39868 39820 39805 39925 40091 40279 40354 40229 39661 39300 39284 39290 39529 39882 40039 40056 39906 39542 39328 39264 39329 39518 39763 39812 39453 38687 38427 38239 38142 38108 37560 37238 37167 37143 37113 37174 37129 36996 36844 36753 36672 36678 36643 36562 36480 36397 36335 36357 36417 36514 36410 36280 36136 35945 35805 35691 35720 35810 35850 35881 35865 35710 35464 35337 35385 35591 35762 35970 36158 36360 36442 36184 36082 36092 36225 36446 36543 36495 36438 36331 36176 35980 35817 35813 35958 36111 36201 35974 35558 35519 35717 35922 36242 36630 36866 37140 37087 36930 36977 37113 37110 37162 37181 37284 37404 37633 37884 37958 37823 37732 37757 37830 37991 38066 38062 38062 37962 37890 37880 37920 37989 38276 38267 38162 38280 38357 38475 38535 38678 39035 39089 39258 39009 38826 38764 38825 38946 39319 39525 39396 39369 39351 39317 39314 39334 39412 39678 39940 40051 40054 39680 39458 39418 39414 39523 39830 40087 40268 40135 40092 40096 40038 39985 39912 40210 40614 40699 40130 39780 39767 39683 39717 39797 39807 39893 39894 39817 39755 39651 39610 39617 39759 40094 40312 40299 39938 39599 39421 39518 39783 40019 40256 40596 40590 40432 40235 40180 40161 40157 40349 40576 40459 40177 39951 39811 39713 39692 39787 39844 39910 39907 39809 39680 39583 39523 39536 39619 39997 40411 40293 39823 39536 39417 39336 39312 39312 39363 39505 39430 39390 39279 39169 39127 39119 39266 39522 39471 39123 38791 38761 38747 38713 38640 38601 38614 38584 38437 38272 38174 38118 38099 38128 38363 38705 38745 38474 38162 38103 38105 38071 37980 37945 38055 37982 37917 37868 37879 37897 37963 38055 38358 38680 38520 38111 37992 38014 38025 38030 37988 38010 38133 38050 37909 37785 37766 37780 37822 38063 38321 38522 38249 37998 37944 37967 37963 37922 37877 37964 38073 38023 37983 37947 37968 38020 38147 38315 38626 38602 38176 37971 37975 38019 38021 38059 38167 38389 38400 38310 38209 38124 38124 38157 38278 38546 38978 38928 38571 38346 38333 38308 38253 38247 38350 38394 38362 38330 38283 38265 38310 38348 38585 38972 39287 38901 38412 38377 38375 38366 38348 38415 38523 38509 38439 38347 38225 38166 38126 38334 38568 39080 39306 39076 38779 39059 39286 39352 39481 39487 39436 39275 39096 38950 38905 38896 39003 39241 39663 40093 39750 39375 39104 39194 39305 39459 39677 39887 39823 39774 39673 39577 39505 39410 39588 39803 40167 40301 39904 39615 39429 39631 39751 40089 40267 40166 40027 39863 39770 39684 39655 39817 40122 40485 40863 40483 40069 39891 39742 39655 39943 40416 40571 40309 40008 40015 40144 40224 40320 40558 40800 41323 41241 40802 40470 40320 40230 40337 40675 40814 40928 40895 40796 40676 40564 40417 40441 40683 41103 41409 41031 40550 40318 40197 40080 40162 40350 40480 40399 40320 40224 40107 40029 39993 40258 40524 40866 40703 39820 39402 39304 39257 39340 39538 39407 39057 38822 38677 38579 38290 38012 37710 37750 37755 37718 37678 37592 37446 37353 37301 37235 37038 37006 36899 36714 36665 36917 37164 37295 37279 37456 37609 38032 38097 37782 37280 36971 36834 36764 36761 36812 36914 36797 36706 36620 36520 36312 36147 36239 36570 36787 36680 36498 36181 35999 35918 35918 36058 36161 36266 36225 36045 36035 35958 35839 35756 35903 36249 36467 36240 35782 35553 35440 35403 35470 35564 35675 35686 35715 35804 35840 35832 35672 35719 36005 36411 36405 36081 35585 35416 35369 35392 35796 36274 36406 36346 36338 36329 36323 36291 36343 36670 37186 37482 37251 36832 36669 36568 36485 36606 36918 37109 37198 37291 37329 37392 37438 37601 37826 38196 38448 38075 37582 37374 37355 37400 37622 38022 38282 38379 38447 38487 38481 38399 38387 38670 39019 39408 39177 38828 38612 38673 38817 39068 39311 39312 39234 39202 39100 39001 39042 39145 39449 39723 40021 39889 39416 39022 39224 39470 39606 40086 40163 39985 39730 39620 39399 39457 39503 39691 39838 40118 40320 39817 39679 39733 39752 39738 39904 40281 40268 40123 39831 39562 39410 39342 39422 39702 39935 40246 40110 39694 39380 39517 39648 39720 40230 40458 40496 40267 40127 39854 39790 39867 40157 40447 40455 40705 40150 39662 39508 39600 39771 40033 40489 40481 40224 40050 39851 39662 39594 39718 40162 40535 40795 40616 40067 39703 39634 39838 39922 40050 40335 40398 40295 40256 40155 40101 40089 40321 40563 40786 40862 40202 39813 39708 39687 39677 39687 39915 40212 40187 39931 39701 39493 39403 39450 39709 39874 40022 39942 39519 39281 39197 39205 39224 39501 39731 39743 39648 39580 39511 39487 39460 39526 39714 39984 40330 39965 39474 39236 39189 39195 39231 39585 39833 39811 39789 39698 39567 39492 39452 39526 39690 39996 40251 39789 39493 39263 39299 39359 39518 39669 39783 39693 39579 39425 39271 39218 39247 39481 39716 40095 40254 39807 39532 39484 39488 39515 39732 39912 39840 39776 39752 39586 39437 39383 39459 39585 39831 40214 39971 39787 39696 39635 39663 39749 39831 40082 40083 40054 39956 39816 39760 39751 39949 40275 40623 40462 40126 39823 39743 39712 39733 39873 40142 40140 40071 39969 39816 39673 39616 39772 40100 40447 40430 39856 39455 39272 39246 39349 39624 39741 39851 39805 39761 39663 39580 39515 39584 39986 40744 40729 40368 39922 39787 39732 39708 39760 39674 39560 39431 39329 39299 39293 39097 38938 38785 38761 38791 38677 38560 38448 38389 38281 38236 38210 38118 38079 38037 37941 38042 38277 38648 39013 39333 39578 39738 39950 39819 39555 39414 39387 39377 39370 39422 39489 39408 39316 39170 39037 39040 39167 39309 39491 39650 39540 39239 39023 38915 38829 38802 38856 38861 38840 38870 38890 38772 38648 38665 38852 39096 39377 39549 39504 39279 39179 39129 39224 39418 39612 39706 39603 39525 39424 39362 39337 39449 39690 39893 40111 40050 39618 39393 39360 39368 39520 39755 39930 39924 39867 39831 39776 39772 39781 39952 40086 40267 40324 40053 39775 39697 39730 39778 40040 40232 40288 40224 40079 40032 40015 40013 40056 40245 40421 40636 40660 40369 40066 39932 39923 39900 40086 40290 40294 40299 40223 40082 39938 39814 39707 39628 39759 39913 40035 39848 39640 39495 39477 39526 39529 39702 39767 39652 39539 39335 39247 39133 39078 39240 39388 39600 39821 39791 39452 39093 38857 38741 38659 38721 38745 38706 38743 38735 38685 38650 38544 38575 38759 38866 38989 38703 38355 38192 38082 38107 38221 38411 38498 38458 38404 38369 38317 38281 38382 38648 38943 39325 39113 38678 38392 38235 38098 38033 38183 38410 38425 38375 38273 38158 38109 38110 38280 38456 38740 38655 38088 37742 37648 37589 37626 37778 38013 38159 38054 37774 37535 37378 37341 37524 37897 38250 38568 38281 38207 38182 38179 38227 38196 38194 38245 38290 38323 38273 38183 38174 38332 38612 38716 38719 38105 37546 37228 37130 37165 37093 37146 37275 37399 37427 37355 37240 37041 36911 37126 37609 38020 38043 37615 37406 37437 37560 37698 38010 38089 38013 38141 38247 38286 38270 38287 38456 38852 39176 39025 38558 38212 38079 38006 37933 37898 38014 38286 38258 38219 38128 37992 37988 37998 38273 38658 38684 38021 37539 37400 37367 37350 37377 37504 37694 37612 37451 37262 37026 36899 36822 37016 37488 37915 38436 38173 37969 37875 37807 37771 37786 37904 37952 37806 37668 37472 37292 37199 37164 37525 37880 38220 38131 37509 37132 37029 37068 37093 37188 37354 37476 37468 37202 36896 36624 36487 36522 36973 37465 37837 37651 37296 37019 37149 37246 37318 37318 37331 37233 37066 36915 36734 36609 36556 36703 36977 37392 37117 36392 36036 35941 35915 35903 35843 35883 35941 35850 35778 35678 35508 35383 35256 35431 36155 36769 36914 36312 35900 35816 35874 35813 35778 36189 36601 36735 36562 36150 36027 36037 36158 36510 36860 36836 36305 36059 36052 36031 35963 35962 36037 36616 36775 36444 36061 35833 35642 35483 35598 35965 36233 36440 36301 36015 35962 35856 35799 35733 35671 36185 36895 37485 37865 38026 38140 38205 38192 38187 38288 38262 37961 37748 37585 37434 37314 37239 37273 37488 37705 37804 37804 37736 37535 37285 37396 37670 37760 37788 37474 36951 36792 36850 36967 37344 37517 37602 37396 37153 37058 37072 37064 37161 37364 37651 37912 37735 37103 36698 36511 36378 36487 36899 37131 37180 37048 36848 36677 36575 36425 36479 36658 37098 37420 36906 36373 36216 36170 36150 36481 36906 37168 37076 36730 36469 36320 36218 36206 36487 36847 37233 37067 36304 35892 35715 35561 35488 35668 36100 36310 36314 36327 36257 36124 36021 36098 36207 36569 36743 36249 35819 35757 35755 35757 35840 36045 36181 36215 36264 36268 36205 36181 36221 36424 36887 37425 37307 36815 36491 36329 36386 36446 36766 37100 37152 37285 37399 37445 37442 37325 37357 37672 38097 38433 38031 37650 37510 37471 37565 37782 38010 38129 38097 38049 37958 37822 37746 37704 37889 38051 38243 38145 37555 37135 36960 36850 36766 36897 37166 37382 37318 37107 36880 36764 36656 36566 36675 36793 36989 37017 36768 36417 36268 36297 36334 36337 36451 36572 36616 36464 36171 35948 35895 35906 35914 36066 36235 36404 36631 36692 36291 35877 35748 35755 35765 35821 35988 36142 36211 36151 36017 35847 35660 35554 35561 35802 36037 36171 35953 35674 35474 35394 35313 35245 35210 35276 35346 35353 35352 35315 35309 35322 35628 36064 36559 36649 36151 35732 35619 35624 35621 35695 35945 36225 36368 36428 36379 36300 36186 36172 36403 36874 37403 37189 36862 36753 36774 36766 36776 36984 37148 37246 37265 37307 37233 37200 37118 37294 37607 37949 38224 37761 37529 37414 37496 37589 37601 37720 37802 37807 37734 37626 37429 37312 37354 37729 38001 38277 37701 37265 37151 37114 37117 37013 37053 37138 37178 37229 37286 37310 37294 37276 37632 38086 38579 38438 37828 37587 37544 37669 37886 38182 38241 38306 38309 38296 38233 38114 37967 38107 38513 38682 38778 38268 37946 37896 37947 37999 38214 38261 38133 38054 37936 37842 37774 37712 37870 38072 38431 38328 37822 37439 37240 37182 37159 37340 37453 37409 37379 37174 37083 37009 36890 36988 37213 37659 37909 37564 37460 37478 37511 37669 37898 38066 38028 37949 37896 37754 37657 37574 37794 38146 38601 38677 38177 37823 37622 37594 37686 38014 38251 38212 38207 38147 38033 37958 37992 38120 38514 38861 38681 38096 37707 37579 37657 37927 38408 38678 38625 38213 37983 37864 38053 38382 38647 38669 38657 38652 38658 38634 38761 38854 38817 38531 38385 38330 38454 38660 38858 38907 38938 38924 38804 38812 38980 39000 38807 38554 38248 38066 37902 37749 37692 37619 37500 37307 37122 36866 36611 36388 36288 36106 36061 35885 35757 35653 35451 35277 35127 34807 34519 34234 34071 34041 34033 34061 34210 34511 34990 35450 35144 34719 34580 34512 34568 34679 34868 35061 35162 35293 35495 35559 35544 35539 35664 36157 36671 36392 35953 35871 35847 35863 35900 36001 36069 36093 36217 36201 36183 36214 36426 36749 37155 37198 36681 36284 36106 35980 35967 36209 36341 36367 36389 36419 36427 36511 36518 36737 37108 37554 37362 36840 36571 36507 36542 36722 37025 37121 37092 37022 37005 37001 37045 37076 37374 37629 38031 37718 37251 36962 36811 36675 36713 36991 37232 37180 37092 37033 37003 37023 37101 37415 37702 38021 37508 36873 36562 36426 36414 36479 36754 36949 36962 36884 36721 36530 36379 36336 36593 37038 37445 37308 36759 36413 36294 36203 36108 36290 36513 36551 36512 36426 36380 36378 36416 36585 36898 37237 37542 36931 36297 36023 35975 35978 36195 36486 36661 36626 36573 36405 36239 36137 36269 36522 36881 37179 36812 36267 36048 35990 35883 35843 36007 36138 36073 35978 35975 35967 35979 36004 36311 36684 37217 37061 36487 35907 35712 35604 35561 35772 36024 36222 36206 36075 35906 35747 35648 35598 35922 36291 36870 36756 36431 35971 35803 35757 35684 35646 35828 35961 35847 35694 35480 35369 35394 35424 35508 35679 35717 35773 35810 35654 35235 35035 34953 34980 35098 35252 35439 35589 35529 35389 35241 35068 35008 35299 35771 36074 35779 35303 35078 35033 34981 34899 34999 35085 35192 35256 35251 35144 35062 35076 35413 35791 36211 36032 35465 34976 34830 34891 34930 35153 35396 35681 35807 35758 35619 35451 35350 35392 35658 36153 36085 35495 35130 35066 35104 35136 35188 35361 35540 35622 35721 35672 35588 35607 35824 36206 36790 36916 36210 35644 35466 35448 35500 35824 36111 36227 36310 36283 36159 36035 35817 35865 36206 36739 36977 36397 35811 35553 35562 35614 35727 35903 35971 35820 35638 35362 35185 35143 35262 35569 35893 36380 36334 35644 35346 35207 35152 35186 35479 35704 35671 35575 35383 35282 35226 35159 35316 35904 36562 36138 35495 35275 35182 35162 35256 35579 35798 35756 35700 35540 35332 35270 35343 35689 36245 36796 36421 36009 35825 35684 35516 35294 35030 34787 34596 34592 34621 34653 34787 34903 34934 35033 34981 35049 35080 34998 34965 35068 35250 35190 35149 35453 36187 36518 36692 36656 36750 37115 37584 37626 37399 37156 37078 37049 37192 37819 38150 38127 37975 37807 37720 37772 37799 37940 38332 38597 38702 38254 37666 37334 37165 37191 37904 38272 38449 38487 38417 38257 38250 38186 38032 38269 38565 38819 38473 37936 37680 37684 37790 38096 38446 38519 38506 38386 38246 38109 38032 38050 38356 38616 38889 38602 38128 37825 37652 37599 37792 38254 38472 38498 38439 38283 38223 38241 38164 38277 38285 38587 38119 37665 37375 37278 37352 37652 37992 38165 38043 37834 37649 37571 37510 37543 37799 37970 38197 37714 37172 36909 36907 37062 37554 37970 37813 37492 37346 37428 37440 37165 36671 36415 36438 36312 36157 36043 35946 35819 35603 35452 35316 35300 35326 35243 35597 36172 36659 36905 37038 37331 37376 37481 37137 36701 36419 36239 36043 35799 35749 35714 35597 35393 35084 34927 34874 34854 35062 35246 35290 35222 34714 34112 33954 33875 33806 34357 34879 35117 35101 34858 34698 34525 34371 34268 34394 34710 35150 35023 34686 34421 34382 34356 34442 34789 34994 34948 34729 34507 34463 34482 34494 34655 34898 35129 34868 34236 33732 33656 33645 33674 34181 34621 34820 34832 34664 34560 34500 34409 34356 34751 35493 35646 35164 34730 34642 34691 34706 35010 35417 35532 35456 35338 35266 35177 35140 35180 35453 35721 35952 35482 34831 34510 34410 34389 34460 34758 34986 35109 35170 35138 34976 34897 34757 34892 35206 35749 35783 35240 34955 34944 34953 34871 34937 35166 35323 35391 35334 35261 35231 35207 35299 35554 35874 36030 35350 34614 34402 34336 34288 34289 34539 34866 34935 34760 34598 34393 34478 34521 34546 34777 35446 35816 35546 35222 35193 35103 35056 35134 35298 35385 35436 35427 35474 35511 35523 35461 35502 35614 35756 35994 35428 34830 34639 34619 34658 34860 35570 36193 36382 36251 36106 35850 35746 35662 35957 36401 36741 36485 35892 35523 35293 35110 35034 35249 35645 35903 35900 35816 35701 35613 35482 35390 35438 35676 35873 35192 34606 34507 34508 34542 34512 34620 34855 34838 34670 34477 34327 34287 34325 34527 34920 35521 35338 34497 33984 33832 33796 33750 33867 34216 34502 34598 34554 34465 34238 34123 34090 34254 34708 35137 34535 34006 33864 33898 33863 33768 33829 34140 34259 34207 34094 34009 34025 34100 34302 34552 35074 35103 34333 33770 33575 33569 33600 33673 33885 34183 34285 34151 33983 33778 33730 33715 34000 34650 35255 34861 34189 33973 33896 33790 33715 33859 34167 34290 34309 34324 34281 34268 34230 34309 34580 35054 34924 34409 33987 33869 33968 34213 34816 35381 35636 35462 35289 35164 35094 35065 35063 35253 35966 36522 36243 35675 35319 35070 34915 34964 35205 35368 35408 35462 35509 35549 35470 35223 35130 35316 36041 35997 35230 34857 34810 34801 34866 35206 35419 35376 35224 35031 34887 34890 34874 35077 35624 36395 36653 35933 35531 35373 35351 35358 35557 35861 36121 36264 36314 36172 35946 35783 35822 36196 36634 36773 35891 35471 35259 35157 35146 35056 34982 35066 34941 34851 34760 34649 34621 34687 35091 35704 36299 35656 35035 34737 34584 34567 34651 34935 35200 35205 35231 35134 34920 34779 34689 34925 35398 35958 35694 35253 35047 35056 35211 35241 35306 35358 35412 35378 35277 35121 35064 34971 35147 35663 36348 36306 35538 34963 34789 34817 34841 35064 35339 35469 35487 35420 35192 34942 34816 34896 35326 35868 36310 35648 35088 34923 34897 34746 34714 34969 35207 35319 35341 35288 35156 35128 35065 35362 35576 35727 35076 34194 33839 33698 33625 33552 33734 34279 34656 34520 34034 33672 33524 33444 33532 33968 34476 34780 33892 33476 33546 33451 33226 33232 33545 33876 33931 33769 33629 33616 33690 33840 34197 34373 34155 33258 32834 32813 32860 32847 33100 33605 33948 33971 33712 33397 33202 33154 33164 33559 34076 34444 33845 33347 33275 33201 33054 33042 33437 33911 34153 34357 34411 34336 34358 34331 34564 34981 35657 35029 34382 34058 33975 33949 34032 34520 35057 35153 35034 34935 34704 34709 34674 34869 35232 35880 36019 35438 35014 34815 34685 34651 35002 35438 35579 35617 35627 35515 35454 35436 35478 35673 36035 36020 35256 34801 34714 34705 34764 35221 35820 36044 35815 35580 35345 35170 35121 35124 35410 35918 36430 36012 35297 34776 34556 34434 34379 34803 35335 35713 35774 35756 35737 35681 35480 35250 35266 35712 36290 36224 35795 35580 35517 35525 36029 36570 36765 36804 36947 36979 36921 36833 36729 36859 37181 37454 37665 36877 36369 36121 36001 36124 36403 36774 37041 37127 37090 36972 36740 36518 36282 36201 36070 36116 36163 35129 34475 34289 34214 34010 33918 34172 34321 34306 34015 33696 33512 33470 33478 33714 34105 34718 34829 33944 33502 33472 33480 33480 33760 34151 34363 34366 34113 33798 33601 33448 33419 33710 34183 34612 34132 33638 33492 33472 33349 33464 33891 34152 34196 34043 33886 33773 33765 33788 34015 34264 34975 35064 34633 34635 35036 35030 35097 35506 35785 35665 35469 35082 34634 34345 34115 34028 34241 34514 34878 34434 33964 33887 33869 33938 34207 34634 34852 34915 34836 34816 34850 34905 34907 35070 35376 35857 35268 34812 34562 34486 34447 34646 35236 35539 35358 34948 34600 34282 34067 33910 33965 34365 34975 35266 34671 34206 34023 33878 33794 33789 33896 34122 34159 34123 34049 34017 34076 34014 34136 34372 34822 34736 34009 33541 33540 33540 33570 33875 34604 34977 34877 34775 34665 34559 34582 34676 34870 35285 35568 35002 34289 33825 33624 33588 33824 34560 35170 35244 35129 34973 34881 34723 34468 34408 34590 34989 34680 34133 33787 33753 33856 33936 34124 34343 34405 34356 34338 34233 34191 34194 34163 34394 34971 35568 34993 34185 33881 33881 33920 34008 34459 35096 35403 35469 35338 35114 34924 34840 34902 35099 35493 36030 35640 35116 34883 34869 34799 34869 35159 35333 35427 35425 35430 35427 35508 35579 35967 36105 36301 36250 35541 34906 34797 34825 34954 35462 35806 35847 35659 35380 35066 34812 34573 34508 34539 34949 35467 35133 34708 34595 34561 34622 34986 35371 35490 35621 35705 35668 35715 35639 35478 35367 35508 36137 35755 35068 34744 34698 34688 34726 35110 35301 35265 35022 34855 34732 34724 34725 35071 35429 35833 35538 34843 34615 34542 34297 34159 34521 34876 34983 34903 34884 34779 34625 34356 34244 34287 34487 34549 33849 33591 33602 33656 33864 34439 34687 34557 34424 34200 34073 34161 34523 34956 35081 34856 34804 34859 35127 35407 35521 35618 35478 35506 35649 35783 35885 35957 36000 36003 35857 35652 35513 35536 35590 35682 35728 36033 36279 36320 35960 35952 36004 36093 36319 36644 36860 36791 36729 36282 36006 35815 35708 35778 36001 36322 36300 36046 35961 35862 35140 34806 34645 34321 34083 33803 33574 33386 33271 33184 33106 33085 32906 32554 32284 32182 32187 32135 32174 32067 31897 31896 32113 32793 33747 34145 34216 34089 33657 33327 33094 32949 33071 33285 33399 33431 33363 33182 33035 32948 32902 32962 33368 33648 33940 33129 32385 31951 31657 31528 31761 32136 32384 32498 32487 32546 32516 32402 32286 32543 32865 33311 33181 32607 32349 32321 32439 32530 32729 32992 33001 32887 32794 32690 32618 32652 32993 33537 34021 33631 32832 32290 32107 32050 31951 32083 32448 32709 32784 32775 32753 32642 32527 32474 32951 33323 33690 33683 33216 33127 33116 33238 33645 34081 34447 34462 34492 34554 34602 34681 34802 35131 35506 35893 35470 34821 34604 34498 34432 34316 34375 34409 34384 34051 33547 33239 33088 32963 33062 33640 34273 34585 34081 33647 33439 33261 32985 33105 33523 33858 33893 33865 33861 33913 34043 34068 34388 35019 35592 35131 34725 34596 34612 34670 34862 35501 35958 36193 36162 35905 35698 35634 35620 35820 36099 36253 35814 35097 34821 34591 34372 34208 34402 34782 34926 34760 34707 34707 34641 34584 34545 34814 35278 35643 35071 34689 34553 34627 34754 34819 34795 34786 34665 34511 34388 34251 34244 34208 34547 34766 34962 34903 34011 33447 33255 33213 33181 33341 33556 33636 33478 33045 32656 32365 32103 32063 32358 32904 33521 33115 32718 32950 33394 33637 33860 33828 33596 33312 32997 32867 32809 32765 32768 33521 34255 34689 34353 33827 33588 33638 33677 33776 34011 34220 34226 33988 33546 33214 33030 32827 33005 33485 34089 34409 33999 33705 33782 34043 34205 34508 34487 34247 33758 33156 32804 32646 32581 32482 32705 32706 33044 33001 32799 32722 33149 33368 33505 33713 33417 32936 32244 31670 31329 31165 31187 31560 32497 33055 33342 33058 32396 32176 32339 32586 32770 32945 32926 32875 32649 32323 32038 31878 31805 32012 32482 33452 33491 33110 33282 33669 33841 33855 34023 33809 33508 33194 32769 32415 32342 32322 32490 32482 32209 31931 31046 30604 30720 30886 31021 31223 31669 31714 31375 30989 30629 30440 30515 30589 30922 31274 31905 32030 31420 31180 31202 31233 31224 31520 32242 32685 32772 32674 32518 32348 32150 31984 32107 32532 32953 32919 32083 31985 32107 32126 32072 32147 32340 32540 32603 32660 32669 32726 32685 32825 33286 33693 33789 33208 32784 32749 32850 32942 33196 33729 33965 33981 33886 33748 33627 33562 33504 33877 34443 35031 34898 34147 33635 33395 33321 33455 34113 34856 35194 35143 34992 34831 34692 34387 34252 34636 35515 36046 35546 35315 35387 35565 35657 35714 35852 35679 35158 34727 34398 34044 33751 33543 33505 33420 33246 33151 33161 33169 33046 32883 32917 33081 33032 32776 32610 32306 32449 32671 32921 33461 34472 34866 35364 35061 34457 33954 33718 33593 33605 33743 34091 34208 34224 34148 34079 33904 33705 33798 34068 34262 34589 33903 33457 33438 33272 32987 32880 33232 33662 33733 33708 33784 33707 33669 33663 33627 33862 34299 33854 33237 33106 33164 33251 33416 33908 34316 34293 34097 33920 33831 33879 33985 34232 34770 35207 34912 34180 33866 33781 33761 33697 33820 34272 34725 34686 34436 34270 34160 34133 34199 34687 34937 35031 34350 34175 34145 34004 33822 33685 33995 34310 34339 34243 34157 34208 34186 34190 34456 34803 35434 35074 34594 34486 34508 34534 34743 35040 35097 35099 34989 34897 34895 34879 34979 35227 35280 35298 34413 33992 33923 33895 33774 34051 34596 34926 35030 34898 34643 34445 34330 34288 34467 34769 35257 35353 34671 34192 33972 33803 33636 33422 33590 34180 34537 34463 34138 34030 33959 33831 33633 33680 34173 34763 34862 33987 33745 33718 33575 33316 33201 33789 34180 34053 33772 33509 33492 33477 33323 33248 33554 34561 35200 34498 34044 33989 33932 33823 33667 34089 34256 34107 33686 33366 33236 33139 33096 33496 34279 34880 34797 34791 35038 35018 35163 35307 35539 35438 35222 34730 34093 33779 33642 33477 33617 34131 34527 34840 34659 34726 35048 35368 35483 35584 35970 36284 36229 36081 35865 35764 35765 35804 35965 36333 36580 36499 36252 36139 36337 36322 36250 36602 36974 37189 37287 37405 37260 37130 37106 37079 37166 37178 37082 36825 36110 35920 35826 35750 35625 35618 35614 35422 35188 34768 34518 34379 34380 34378 34744 34828 34891 34173 33930 33788 33785 33760 33817 34119 34460 34588 34468 34303 34180 34109 33990 34082 34149 34183 33998 33399 33129 33004 32917 32864 33015 33266 33384 33334 33131 33020 32941 32884 32958 33100 33372 33531 32902 32821 32909 33020 33022 32951 33194 33510 33696 33656 33512 33486 33478 33532 33836 34291 34517 33846 33186 33051 33094 33171 33013 32760 32844 32779 32402 32090 32159 32248 32226 32315 32808 33266 33878 33599 33416 33670 34175 34295 34575 34619 34468 34428 34264 33990 33880 33685 33515 33794 34144 34743 34988 34530 34509 34616 34801 35060 35390 35576 35628 35615 35426 35402 35377 35214 35238 35355 35311 35582 35251 34927 35455 36151 36272 36572 36679 36618 36412 36154 35838 35708 35632 35546 35777 35797 35990 35772 35111 34894 34872 34931 34939 35235 35363 35430 35302 35029 34915 34755 34567 34807 35063 35359 35804 35394 35282 35308 35270 35352 35931 36438 36674 36790 36691 36453 36470 36410 36294 36314 36283 36387 35869 35388 35396 35485 35646 35935 36346 36459 36442 36311 36273 36168 36052 35927 36123 36061 35845 35275 34701 34657 34695 34651 34649 34963 35254 35350 35260 34870 34718 34711 34672 34752 35014 35444 35659 34804 34536 34435 34314 34225 34511 34898 34747 34343 34159 34005 33492 33087 33003 33083 33005 32983 33101 33261 33288 33161 33138 33061 32916 33038 33233 33291 33846 34435 35145 35641 35823 36016 35914 36000 35834 35295 35068 35005 35169 35330 35782 35917 35836 35615 35547 35545 35541 35389 35608 35836 35944 35538 34820 34394 34273 34244 34305 34717 35414 35829 35974 35828 35669 35511 35404 35437 35717 35962 36363 35962 35453 35182 35029 34962 34968 35375 35787 35791 35649 35438 35300 35211 35155 35423 35861 36365 36076 35359 35107 35123 35025 34789 34767 34922 35025 35021 34861 34749 34705 34698 34834 35121 35275 34862 34000 33722 33736 33739 33585 33571 33858 33753 33455 33154 33078 33108 33108 33121 33870 34502 34600 34039 33354 33217 33178 33122 33059 33003 33254 33340 33218 33080 33068 33042 32994 33012 33259 33895 34195 33712 33439 33500 33542 33021 32996 33471 34110 34261 34147 34230 34225 34195 34089 34364 34931 35133 34483 34199 34256 34324 34105 33912 34091 34435 34572 34533 34528 34526 34578 34563 34618 34815 35042 34440 33823 33784 33837 33842 33697 34123 34617 34740 34727 34618 34606 34556 34439 34522 34898 35399 35146 34405 34012 34005 34023 33958 34149 34602 34766 34824 34671 34304 34257 34187 34163 34317 34547 34916 34413 33890 33752 33746 33736 33647 33982 34308 34290 34186 33859 33783 33661 33418 33357 33657 34065 33943 33182 33218 33349 33323 33195 33139 33298 33444 33399 33266 33333 33513 33494 33454 33685 34208 34679 34136 33740 33730 33866 33977 34209 34554 34784 34718 34624 34600 34705 35012 35005 35431 36203 36808 36533 35980 35501 35265 35136 35142 35456 35714 35670 35624 35364 35167 35077 34964 35100 35430 35800 35685 35355 35140 35107 35018 34964 35177 35493 35443 35330 35022 34824 34730 34481 34310 34236 34257 34285 33921 33763 33976 34089 34176 34258 34286 34352 34217 33886 33561 33525 33473 33373 33467 33448 33406 33701 33327 33027 33377 33732 33814 33967 34210 34243 34147 34010 33940 33954 33929 33871 33943 34221 34732 34885 34484 33695 33437 33349 33381 33479 33936 34284 34367 34121 33738 33538 33470 33423 33581 34073 34607 34860 34296 33826 33731 33839 33897 34330 35032 35304 35329 35249 35079 34986 34767 34556 35038 35731 36277 35676 35238 35080 34908 34941 35242 35941 36251 36172 35891 35524 35367 35259 35131 35363 35729 35975 35667 34888 34554 34465 34555 34661 35034 35332 35335 35247 35140 34931 34867 34801 34891 35362 35697 35663 34730 34142 34073 34027 33908 33952 34527 34859 34828 34561 34327 34236 34107 34007 34372 34982 35437 34753 34110 33933 33840 33803 33861 34936 35391 35068 34774 34541 34032 33428 33325 33398 33403 33414 33458 33444 33415 33293 33213 33164 33245 33266 33213 33057 33118 33330 33540 33904 34816 34980 34900 34844 34263 33923 33947 33884 33827 34121 34729 34881 34729 34490 34471 34463 34462 34445 35140 35578 35791 35227 34700 34592 34540 34431 34426 34874 35462 35656 35575 35424 35381 35346 35371 35618 35966 36500 36251 35699 35440 35345 35259 35249 35811 36419 36549 36465 36318 36265 36190 36020 36038 36308 36455 36563 36212 35940 35905 35933 36052 36240 36707 36892 36831 36782 36654 36612 36573 36555 36765 36954 37188 37032 36667 36482 36469 36599 36735 37082 37250 37190 37014 36801 36718 36705 36660 36778 37080 37215 37167 36652 36290 36182 36230 36315 36643 37033 37008 36954 36709 36577 36541 36581 36677 37075 37270 37221 36600 35920 35709 35748 35807 36357 36956 37331 37165 36824 36700 36607 36372 36127 35988 36175 36522 36760 36379 35784 35511 35300 35160 34941 34992 35467 35778 35819 35735 35689 35617 35403 35218 35354 36012 36678 36504 36032 35774 35659 35496 35327 35925 36544 36751 36658 36362 36253 36220 36211 36181 36365 36900 37172 36883 36308 36044 35947 35935 36004 36028 36095 36031 36101 36028 35880 35792 35711 35751 36061 36166 35970 35478 34795 34547 34576 34713 35125 35789 36068 35846 35532 35324 35195 35084 35010 35239 35566 35818 35265 34367 34046 33842 33715 33566 33720 34105 34314 34358 34306 34135 33927 33773 33733 34084 34511 34283 33559 33279 33251 33118 32830 32850 33448 33731 33838 33789 33786 33863 33792 33720 33954 34212 34500 34031 33802 33806 33800 33918 34219 34585 34664 34701 34653 34578 34598 34541 34619 35148 35585 35488 34720 34123 33959 33917 33824 33999 34412 34604 34676 34564 34375 34329 34250 34200 34632 35249 35557 34818 34366 34122 33990 33877 34111 34701 34986 35095 35154 35117 35068 35002 34887 35032 35413 35818 35280 34549 34316 34304 34176 33917 34257 34559 34579 34574 34684 34864 35118 35180 35444 35740 35881 35064 34162 33893 33915 33928 33781 33772 34048 34201 34210 34082 34061 34308 34545 34695 35032 35786 35862 35265 34539 34295 34219 34143 34182 34531 34826 34953 34821 34699 34612 34557 34505 34832 35299 35477 34832 34269 34086 33906 33714 33684 34109 34471 34674 34759 34766 34823 34730 34673 34995 35583 35686 34983 34473 34391 34455 34433 34669 35028 35141 35209 35219 35168 35128 35091 35179 35677 36148 35861 34997 34430 34371 34272 34171 34432 34788 34981 34997 34865 34758 34783 34881 34906 35386 36188 36365 35613 34984 34729 34572 34428 34427 34979 35353 35450 35357 35228 35188 34948 34798 35104 35576 36100 35680 35104 34947 34852 34751 34675 34933 34999 34670 34438 34310 34259 34223 34237 34705 35630 36301 36252 35858 35388 35242 35276 35452 35937 36357 36326 36169 35932 35781 35714 35530 35553 35886 36307 35857 34817 34286 34130 33938 33692 33917 34590 34741 34612 34230 34039 33870 33756 33812 34460 34897 34556 33837 33544 33414 33261 32937 32877 33292 33504 33494 33344 33267 33183 32906 32755 32995 34011 33579 32704 32588 32625 32347 32090 32650 33239 33235 32970 32797 32714 32727 32714 32795 33326 33895 33776 32881 32524 32588 32541 32822 33682 33958 33712 33506 33519 33350 33326 33208 33197 32942 32952 33114 33253 33229 33304 33460 33485 33461 33458 33683 33864 34272 34632 34738 34799 34853 35608 36027 35954 35625 35051 34742 34537 34349 34297 34525 34779 34929 35017 35157 35339 35432 35463 36002 36659 37220 37157 36386 36010 35875 35961 36224 36667 36933 37086 37081 37006 36884 36891 36897 37056 37295 37474 37091 36358 35795 35514 35483 35487 36085 36691 36925 36850 36601 36470 36514 36496 36519 36733 37226 37534 36780 36280 35996 35827 35810 36074 36462 36643 36750 36717 36530 36362 36250 36294 36567 36820 37021 36302 35874 35653 35570 35568 35920 36424 36727 36847 36688 36523 36557 36512 36483 36549 36745 36712 35835 35187 34911 34817 34761 34921 35514 35785 35622 35215 34847 34711 34641 34598 35005 35390 35704 35040 34182 33831 33675 33591 33693 34405 34978 35186 34919 34642 34385 34302 34185 34435 34814 35053 34515 33922 33667 33518 33368 33299 33567 33806 33840 33740 33464 33393 33331 33176 33209 33418 33788 33790 33121 32940 32971 33118 33394 34140 34575 34471 34186 33922 33813 33828 33779 33966 34362 34603 34179 33616 33273 33645 33946 34121 34386 34413 34239 33598 32940 32670 32489 32390 32608 32842 33246 32935 32671 32566 32556 32705 32900 33222 33500 33551 33521 33448 33358 33228 33074 33129 33517 34256 34092 33722 33519 33592 33747 33864 33964 33832 33740 33416 32891 32634 32530 32508 32672 33364 34181 34383 33824 33264 33132 33156 33119 33165 33553 33567 33248 32805 32440 32168 32099 32035 32655 33584 34170 33843 33022 32750 32627 32588 32500 32586 33138 33351 33343 33257 33058 32952 32904 33303 34026 34698 34974 34547 34090 33799 33570 33499 33572 34034 34315 34436 34524 34407 34314 34144 33963 34425 34725 34673 34054 33347 33141 33109 33036 32819 32930 33268 33445 33462 33394 33334 33333 33325 33649 34173 34395 34183 33285 32872 32896 32951 32836 32899 33364 33683 33726 33633 33406 33394 33368 33335 33774 34062 34157 33399 32637 32493 32496 32234 31934 32229 32751 32967 33015 32917 32720 32594 32515 32896 33771 34383 33709 33089 33083 33074 32995 33294 33768 34163 34078 34174 34313 34290 34130 33981 34573 35417 35751 35378 34498 34183 34066 33950 33671 33357 33412 33790 33921 33958 33828 33660 33633 33584 33837 34463 34980 34392 33621 33367 33383 33480 33559 33821 34164 34230 34169 33990 33777 33696 33671 34082 34799 35137 34602 34135 33914 33914 34083 34355 34837 35275 35603 35769 35674 35429 35304 35234 35407 35816 36298 36096 35569 35095 34825 34615 34437 34517 34840 35045 35213 35280 35168 35053 34839 34910 35530 35989 35880 35284 34995 34881 34902 34997 35018 34990 35196 35589 36163 36398 36574 36888 37097 37531 37797 37548 36579 36305 36154 36067 36145 36512 36994 37030 36848 36742 36606 36563 36509 36634 36998 37348 37613 36908 36377 36071 36077 36217 36664 37112 37271 37360 37233 36912 36777 36771 36956 37251 37618 37293 36587 36216 36074 35983 35958 36299 36855 37184 37111 36832 36641 36566 36587 36560 36712 37114 37446 36713 35999 35622 35406 35347 35342 35748 36208 36301 36140 35959 35873 35916 35855 35780 35908 36380 36762 35857 34996 34657 34537 34519 34547 35068 35445 35393 35392 35233 35128 35107 35229 35657 36266 36414 35452 34766 34410 34214 34213 34675 35467 35885 35936 35717 35495 35367 35230 35134 35218 35535 36206 36063 35464 35294 35588 35563 35644 35869 35989 35884 35885 35812 35672 35617 35457 35354 35487 35731 35987 35332 34864 34736 34815 34893 34986 35176 35141 35005 34754 34417 34326 34293 34376 34772 35114 35598 35288 34682 34493 34515 34674 34940 35553 35956 35764 35573 35136 34943 34871 34878 35250 35755 36277 35755 34794 34336 34285 34568 34935 35497 35708 35355 35064 34582 34176 33870 33654 33684 34249 34896 34791 34023 33724 33554 33378 33252 33452 33820 33926 33941 33814 33686 33681 33560 33482 33675 34017 33986 33359 33130 33074 33141 33187 33538 34038 34128 34026 33838 33672 33634 33596 33857 34315 34395 33990 32951 32593 32550 32628 32546 32596 32913 33067 32997 32867 32771 32770 32791 32992 33763 34402 34060 33313 32904 32730 32610 32551 32923 33308 33489 33579 33590 33486 33296 33253 33871 33987 33740 33331 32952 32826 32865 32819 32636 32363 32356 32465 32578 32564 32598 32700 32685 32613 32688 32644 32615 32413 32334 32564 32599 32687 32728 32564 32285 31827 31942 32362 32742 32951 33178 33773 34465 34670 34140 33646 33454 33390 33401 33557 33972 34326 34456 34460 34407 34275 34304 34350 34766 35384 35379 34713 34211 33895 33701 33398 33518 34138 34617 34759 34734 34683 34647 34688 34639 34775 35272 35578 34915 34456 34319 34277 34252 34367 34642 34843 34892 34899 34818 34769 34811 34956 35368 35659 35795 35160 34435 34242 34269 34139 34149 34751 35244 35261 35145 35054 35019 35087 35067 35257 35770 36268 36079 35263 34752 34591 34529 34443 34717 35177 35391 35465 35442 35254 35140 35128 35421 35987 36396 36019 35423 35056 34885 34700 34503 34699 35274 35631 35785 35715 35636 35700 35773 35773 35986 36365 36316 35674 35027 34738 35325 35828 36131 36181 35982 35694 35253 34844 34654 34592 34614 34863 35278 35700 35393 34849 34780 35085 35319 35591 36169 36479 36396 36090 35614 35175 34995 34870 34985 35332 35635 35785 34868 34213 33876 33720 33632 33900 34401 34676 34663 34532 34237 34000 33848 33762 34077 34601 34911 34110 33612 33529 33499 33312 33243 33651 34145 34297 34296 34264 34201 34179 34216 34517 35022 35396 34407 33783 33545 33503 33527 33702 34227 34605 34411 34243 33987 33791 33767 33720 33941 34389 34807 34706 34079 33517 33431 33361 33295 33618 34212 34472 34395 33977 33673 33539 33564 33729 34106 34643 34625 33918 33488 33299 33329 33517 34033 34726 35192 35446 35549 35367 35180 35005 34799 34845 35251 35549 34885 34208 33981 33989 33998 33906 33957 34206 34372 34351 34144 33992 33948 33936 33940 33989 34030 33513 32616 32475 32591 32666 32692 32703 32829 32952 32547 32185 32039 32059 32122 32196 32477 32921 32884 31869 31387 31379 31473 31468 31417 31515 32121 32302 32040 31732 31565 31444 31392 31692 32420 32825 32044 31620 31693 31590 31405 31322 31730 32644 33164 33248 33015 32963 32951 32956 33077 33359 33963 33536 32793 32545 32555 32607 32546 32639 33019 33438 33561 33485 33399 33346 33347 33371 33980 34737 34795 33879 33255 33027 33065 33242 33461 33854 34107 33931 33618 33233 33100 33152 33158 33360 33548 33617 33043 31987 31583 31430 31434 31495 31682 31939 31870 31385 31038 30930 30876 30860 30877 31245 31718 31621 31016 31051 31183 31167 31059 31171 31743 32080 32130 32016 31810 31700 31641 31579 31874 32699 33639 33633 33520 33487 33357 33771 34388 34948 35357 35335 34997 34605 34547 34493 34534 35055 35671 35617 34445 33566 33434 33226 33080 32927 32716 33008 33008 32838 32518 32388 32362 32351 32562 33311 33969 33877 33054 32690 32453 32321 32147 31964 32506 33292 33391 33270 32966 32740 32611 32511 32830 33329 33669 33118 32711 32689 32723 32563 32391 32572 32982 33191 33284 33192 33122 33246 33349 33327 33647 34047 33758 33074 32817 32841 32898 32985 33165 33683 34235 34329 34248 34064 34020 34087 34258 34541 34879 35068 34521 33985 33833 33800 33855 33980 34478 34931 34991 34862 34744 34605 34732 34809 34808 34966 35332 35407 34739 34142 33739 33743 33962 34550 35312 35727 35757 35425 35069 34911 34910 35121 35315 35656 35513 34804 34534 34386 34211 34071 34385 35091 35440 35366 35173 35030 34976 34880 34800 34903 35328 35300 34691 34319 34233 34323 34547 34876 35698 35841 35735 35543 35304 35200 35187 35237 35537 35867 35830 34947 34324 34200 34146 34170 34320 34819 35374 35457 35412 35295 35235 35359 35562 35831 36212 36658 36023 35172 34763 34540 34438 34431 34684 35311 35681 35595 35322 34979 34783 34757 34916 35244 35815 35879 35121 34460 34111 33819 33612 33554 33838 34173 34164 34038 33751 33432 33211 32994 33006 33573 34165 34102 33507 33278 33277 33147 32961 32918 33310 33751 33753 33734 33550 33478 33409 33290 33516 33999 34071 33316 32846 32774 32829 32818 32722 32872 33247 33323 33310 33236 33173 33217 33266 33427 33764 34219 34318 33473 33035 33071 33083 33116 33253 33601 33864 33694 33540 33394 33311 33305 33233 33366 33867 34251 33845 32953 32558 32485 32606 32766 33245 34033 34558 34417 34087 33812 33685 33654 33674 33973 34587 34739 34199 33769 33488 33454 33557 33838 34372 34938 35122 35211 34868 34554 34330 34217 34305 34669 35188 34986 34298 34038 33872 33650 33562 33695 34128 34406 34486 34444 34273 34158 34043 33901 34184 34737 35176 35057 34523 34236 34394 34760 34866 35038 34808 34549 34093 33584 33339 33241 33138 33030 32970 32846 33159 33127 32709 32936 33550 33958 34101 34178 34153 33808 33385 32965 32775 32539 32434 32490 32575 32425 32310 31695 31342 31483 31746 31933 32208 32499 32515 32504 32603 32459 32341 32289 32288 32461 32930 33543 33597 32810 32132 32063 32066 32130 32361 33119 33829 34193 34287 34230 34156 34117 34098 34108 34272 34748 35122 34305 33544 33222 33090 33119 33228 33744 34397 34611 34353 34017 33682 33472 33347 33347 33575 34265 34484 33839 33473 33199 33205 33368 33783 34301 34592 34660 34578 34437 34114 33851 33584 33659 33804 33637 33468 32850 32432 32485 32334 32222 32137 32335 32933 33291 33311 33086 32865 32707 32590 32340 32473 32673 32994 32852 32190 32036 32120 32085 32020 32329 33152 33628 33542 33373 33209 33106 33050 32891 33104 33525 33786 33444 32715 32617 32671 32800 32895 33140 33380 33499 33559 33597 33494 33512 33465 33540 33942 34257 34233 33604 33073 33053 33140 33311 33723 34349 34700 34601 34521 34364 34240 34188 34101 34411 35149 35593 35406 34650 34223 33896 33750 33807 33922 34056 34042 34115 34124 33930 33748 33623 33911 34583 34988 34857 34027 33775 33586 33429 33363 33423 33847 34010 33850 33751 33641 33489 33314 33122 33303 33487 33564 33250 32763 32723 32828 32661 32779 33615 33857 33651 33393 33218 33179 33253 33190 33024 32646 32363 32213 32117 32119 32437 32931 32718 32250 32341 32429 32453 32624 32780 32745 32595 32719 32692 32544 32256 32040 31947 31913 31806 31818 31771 31769 31805 31798 31523 31520 31985 32597 33483 34080 34621 34602 34596 34213 33567 33134 32896 32828 32773 32951 33384 33278 32955 32488 32215 32037 32009 32272 32653 33115 33395 32910 32443 32120 31998 31997 32200 32788 33140 33036 32932 32804 32617 32413 32344 32606 33189 33870 33356 33041 32883 32891 32890 32996 33652 34343 34724 34795 34734 34731 34847 34845 34820 35022 35327 35020 34515 34252 34283 34193 34251 34504 34763 34723 34553 34364 34247 34292 34345 34422 34899 35250 35320 34821 34678 34860 35052 35276 35637 35888 35814 35257 35067 34735 34361 34158 33910 33874 34164 34347 34394 33724 33222 33165 33295 33424 33788 34374 34435 34187 33867 33502 33307 33148 32976 33227 33526 33690 33518 33232 33314 33997 34368 34597 34878 34732 34314 33781 33545 33293 32871 32413 32363 32481 32576 32071 31641 31806 32587 32904 32700 32756 32968 33017 32647 32168 32132 32220 32332 32330 32390 32515 32789 31993 31314 31283 31332 31338 31460 31591 31476 31290 31178 31126 31142 31242 31296 31503 31727 32025 31501 30981 31032 31215 31328 31464 31955 32507 32424 32027 31589 31471 31478 31447 31585 32103 32481 32394 31458 31318 31348 31493 31552 31801 32162 32235 31982 31673 31509 31574 31683 31781 32065 32537 32937 32662 32274 32115 32146 32262 32418 32801 33366 33453 33361 33132 32865 32673 32474 32498 32798 32861 32452 31777 31756 31884 31858 31643 31573 31864 32303 32484 32542 32444 32443 32423 32185 32147 32361 32567 32266 31932 31981 32187 32466 32560 32718 33169 33515 33735 33865 33725 33629 33587 33624 33789 33833 33370 32718 32532 32596 32757 32895 33093 33567 33629 33292 32899 32608 32589 32610 32597 32706 33170 33386 33294 32870 32435 32385 32479 32698 32983 33757 34414 34397 34069 33701 33528 33434 33432 33450 33642 33998 34118 32925 32345 32254 32269 32290 32349 32788 33397 33325 32870 32450 32362 32372 32392 32630 33071 33307 32783 32108 32011 32051 31995 31845 31960 32511 32762 32667 32331 32113 32026 31964 32000 32777 33544 33617 32834 32427 32337 32225 32111 32013 31733 32291 32696 32601 32315 32127 32057 31937 31847 32324 32782 32388 31813 31673 31963 32131 32077 31916 31746 31883 32209 32461 32565 32591 32615 32590 32613 33488 33995 33576 32902 32649 32805 32894 32707 32388 32053 32887 33239 32990 32771 32699 32770 32881 32825 33228 33153 32751 32148 32157 32403 32589 32680 32576 32149 32369 32855 32893 32877 32799 32810 32888 32922 33424 34068 34039 33182 32737 32871 32938 32951 32839 32401 32830 33514 33540 33343 33181 33125 33187 33469 34399 34956 34933 34526 33755 33518 33377 33421 33635 34126 34410 34447 34514 34449 34357 34129 34038 34464 35249 35579 35024 33878 33404 33102 32955 32771 32586 32990 33712 33277 32626 32240 32117 32024 31969 32590 33104 33108 32319 31963 31892 31833 31642 31453 31468 31718 31640 31535 31403 31317 31155 30978 30997 31449 31848 31400 30799 30834 30890 30784 30616 30513 30902 31143 31178 31141 31273 31377 31270 31113 31503 32041 31924 31240 31113 31382 31566 31368 31194 31355 31622 31629 31549 31507 31474 31510 31568 31965 32422 32655 32041 31672 31701 31807 32082 32245 32586 32817 32737 32602 32487 32329 32261 32123 32175 32717 33294 33816 33748 33161 32765 32780 32977 33073 33802 34525 34602 34515 34201 33864 33883 33877 33840 34008 34165 34520 34680 34130 33682 33510 33557 33752 34030 34546 34785 34484 34022 33648 33510 33452 33424 33708 34016 34035 33629 32705 32467 32483 32483 32320 32870 33765 33965 33519 33033 32809 32747 32654 32597 32910 33093 33488 33441 32688 32264 32195 32227 32300 32653 33055 33080 32923 32745 32523 32396 32343 32390 32833 33283 32899 32392 32279 32356 32336 32213 32125 32163 32337 32419 32313 32212 32245 32120 32020 32108 32269 32442 32308 31979 31973 32116 32139 32008 31990 32257 32693 32797 32554 32458 32537 32549 32425 32330 32400 32585 32506 32102 31979 32173 32414 32569 32564 32899 33383 33504 33409 33168 33094 33013 32944 32995 33135 32991 32729 32048 31930 32090 32237 32320 32511 32716 32791 32785 32738 32635 32655 32688 32676 32838 33219 33516 33683 33127 33291 33918 34277 34478 34897 35338 35362 34954 34820 34541 34396 34295 34208 34378 34558 34578 33809 33092 32882 32901 33047 33306 33954 34519 34689 34487 34171 33958 33850 33738 33776 34105 34727 35052 34600 34117 34066 34127 34078 34262 35002 35581 35791 35809 35483 35115 34780 34533 34435 34416 34159 33831 33088 32849 32818 32743 32608 32775 33200 33304 33172 32907 32853 32864 32799 32608 32582 32638 32582 31854 31636 31841 32048 32174 32077 32521 33303 33660 33731 33344 33186 33163 33142 33023 32787 32530 32156 31288 30993 31210 31394 31509 31509 31747 31626 31342 30932 30578 30701 30835 30921 31076 31627 31838 31641 31142 31028 31144 31296 31517 32001 32641 32909 32630 32238 31959 31906 31872 31948 32332 32987 33329 32815 32428 32210 32175 32287 32759 33304 33747 34093 34121 33868 33620 33440 33258 33354 33853 34141 33716 33276 33192 33215 33193 33212 33529 33865 33996 34007 33992 33854 33737 33588 33440 33727 33995 33962 33309 33069 33069 33185 33411 33818 34482 34782 34871 34751 34601 34511 34471 34399 34532 34667 34625 33950 33412 33296 33420 33528 33722 34283 34852 34865 34775 34562 34364 34318 34292 34431 34681 34452 33674 32800 32515 32522 32503 32459 32707 33317 33559 33404 33006 32798 32766 32817 32982 33403 34034 34089 33443 33139 33034 32991 33023 33201 33760 34077 33901 33490 33169 33019 32702 32663 32720 32846 32786 32095 31930 32063 32038 31810 31669 31945 32449 32508 32210 32035 32054 32075 31787 31528 31768 32371 32018 31410 31446 31690 31829 31929 32094 33158 33314 33002 32601 32626 32686 32746 32845 33192 33545 33248 32179 31831 32030 32131 32072 32326 32933 32967 32582 32234 31982 32002 32101 32078 32148 32258 32314 32316 32247 32294 32330 32448 32770 33219 33255 33225 33096 32986 33022 32984 33383 34073 34548 35128 35480 35710 35861 36076 36203 36171 36106 36102 36300 36381 36502 36350 35945 35771 35801 35861 35843 35858 35920 35898 35870 35879 35797 35592 35504 35476 35519 35288 35005 34762 34467 33922 33447 33097 32801 32449 32130 31895 31862 31832 31555 31006 30649 30645 30767 30642 30712 31019 31415 31745 32385 32681 32558 32717 32394 32006 31862 31790 31764 31727 31750 31856 32007 32140 32028 31864 31775 31725 31937 32065 31893 31218 30613 30562 30584 30585 30466 30689 31063 30746 30521 30389 30263 30285 30326 30492 31138 31551 31262 30297 29992 29968 29986 29952 29930 30346 30856 30917 30758 30404 30259 30282 30356 30624 30935 31072 30591 30059 29916 29816 29750 29703 29926 30351 30560 30713 30650 30373 30217 30190 30209 30682 31459 31620 30948 30743 30701 30544 30370 30474 30984 31500 31661 31551 31404 31322 31213 31143 31200 31729 32111 31787 31229 30995 31028 30975 30765 30610 30868 31164 31053 30806 30567 30513 30551 30554 30929 31543 31726 31321 30663 30571 30543 30582 30590 30641 30820 30944 30913 30727 30596 30602 30689 31080 31750 31903 31449 30675 30565 30584 30584 30621 30649 31117 31571 31497 31378 31121 31038 31237 31596 31918 32216 32441 32074 31582 31287 31156 31175 31241 31598 32158 32412 32335 31961 31717 31564 31532 31600 31881 32199 32217 31979 31703 31497 31286 31292 31634 32045 32737 33028 33102 32782 32427 32123 32102 32254 32537 32837 32556 32089 32024 31924 31733 31654 31772 32167 32573 32843 32877 32654 32478 32290 32126 32359 32604 32684 32283 31887 31835 31814 31676 31494 31471 31881 32219 32344 32217 32006 31926 31951 32142 32296 32297 32145 31622 31427 31369 31334 31401 31479 31770 31973 31850 31777 31604 31560 31515 31555 31906 32084 32148 31908 31360 31093 31147 31186 31238 31420 31927 32029 31760 31562 31312 31243 31240 31318 31639 31977 32028 31307 30532 30423 30462 30495 30548 30927 31601 31778 31595 31334 31157 31024 30981 31094 31668 32106 32481 32048 31390 31089 30934 30886 30958 31369 31779 31976 32024 31736 31425 31244 31126 31294 31836 32376 32124 31425 31308 31117 30957 30763 30742 31061 31474 31533 31342 31186 31136 30901 30611 30710 31168 31599 31112 30655 30696 30744 30654 30348 30328 30396 30410 30385 30310 30373 30453 30473 30389 30688 30944 30777 30188 30164 30347 30460 30515 30490 30524 30595 30550 30451 30318 30372 30427 30437 30674 31111 31661 31474 30919 30896 31523 31870 32137 32346 32554 32480 32183 32006 31866 31700 31592 31505 32022 32671 32898 32442 31964 31893 31918 32027 32204 32588 32882 33027 32950 32682 32438 32322 32264 32362 32674 32915 32364 31617 31303 31279 31275 31218 31331 31679 31887 31919 31814 31626 31486 31380 31458 32003 32443 32218 31821 31662 31668 31728 31802 32064 32464 32657 32714 32643 32372 32238 32031 31827 31794 31955 31842 31140 30856 31028 31122 30961 30973 31349 31715 31826 31691 31542 31503 31494 31432 31396 31678 31839 31195 30911 31071 31137 31161 31153 31084 31211 31133 31022 30967 31062 31163 31159 31247 31489 31408 30954 30369 30244 30464 30643 30750 30941 31337 31474 31593 31389 31170 31129 31154 31004 31151 31685 32322 31778 30989 30709 30791 30943 30974 31070 31378 31712 31578 31297 31083 31030 31018 31043 31222 31489 31582 31252 30511 30274 30439 30652 30819 30957 31327 31406 31259 30836 30235 30096 30088 29997 29942 30153 30679 30993 30479 29930 29857 29951 30052 30045 30406 30877 30875 30775 30542 30335 30239 30229 30307 30794 31302 31331 30889 30712 30577 30523 30647 30922 31535 31972 32257 32269 32172 31946 31832 31657 31731 32130 32163 31450 31055 31097 31166 31051 30865 31048 31528 31864 32015 31980 31901 31959 31970 31846 31871 32331 32186 31839 31644 31615 31722 31873 32187 32719 33009 33123 33132 32917 32755 32805 32886 33097 33101 33246 32533 32023 31922 31915 31926 31990 32393 32814 32729 32637 32430 32278 32256 32257 32386 32967 33448 32854 31955 31636 31613 31655 31648 31722 31972 32158 32068 31885 31739 31687 31720 31723 31883 32321 32811 32353 31833 31576 31486 31505 31543 31719 32032 32216 32174 32085 31955 31862 31892 31994 32245 32702 32601 32020 31634 31536 31407 31287 31306 31597 31897 32022 31999 31884 31791 31640 31400 31245 31389 31888 32109 31643 31289 31365 31436 31319 31197 31480 31972 32128 32106 32000 31977 32030 31967 31932 32118 32326 31739 31419 31455 31561 31668 31792 31904 32071 32080 32137 32036 31948 31992 31980 32082 32342 32463 31943 31504 31370 31321 31493 31836 32252 32744 32800 32494 32284 32156 32162 32215 32369 32674 33196 33154 32374 31861 31689 31681 31765 31923 32429 32828 32943 32834 32500 32238 32126 32211 32577 33005 33263 32638 32239 32049 31824 31714 31640 31819 32426 32568 32543 32350 32271 32130 32028 32142 32467 32433 31893 31678 31773 31938 31929 31764 31876 32203 32440 32578 32632 32609 32711 32719 32689 33031 33608 33346 32860 32523 32516 32608 32735 33088 33402 33504 33620 33662 33437 33333 33454 33564 33727 33927 33731 33196 32806 32740 32760 32788 32820 33146 33474 33492 33301 33010 32848 32801 32810 32994 33470 33641 32818 32081 31895 31848 31909 32086 32583 33033 33282 33270 33004 32713 32584 32518 32652 33227 33410 32824 32434 32391 32272 32133 32125 32408 32787 33018 32965 32877 32759 32572 32297 32234 32596 33018 32575 32078 31869 31895 31882 31680 31598 31884 32239 32401 32285 32203 32142 32191 32300 32404 32659 32567 32041 31734 31679 31766 31838 31913 31966 31997 31983 31950 31719 31631 31591 31549 31709 31927 31601 30933 30167 30148 30309 30406 30464 30603 30993 31043 30595 30094 29939 30086 30125 30129 30324 30840 31067 30448 29797 29730 29874 29973 29969 30227 30900 31466 31542 31281 30989 30815 30695 30690 31093 31698 31892 31182 30730 30545 30482 30524 30958 31285 31717 32223 32408 32606 32854 32971 32981 32837 32464 32127 32044 31990 32064 32115 32152 32238 32199 32158 32229 32409 32685 33233 33598 33479 32577 31948 31614 31299 31114 31019 30970 30980 30988 30791 30617 30422 30208 30014 30041 30318 30588 31070 32048 32624 32676 32860 32499 31921 31649 31404 31299 31331 31341 31033 30854 30768 30861 30948 30943 31021 31147 31283 31338 30524 30087 30101 30146 30235 30378 30813 31050 31010 30986 30803 30639 30613 30610 30822 31153 31165 30346 29694 29608 29618 29650 29743 30257 30892 31066 30904 30500 30201 30104 30030 30006 30258 30629 31099 30742 30681 31135 31244 31282 31436 31795 32009 31894 31705 31224 30895 30613 30439 30488 30666 30767 30546 30177 30141 30379 30572 30901 31380 31714 31566 31489 31170 31052 30885 30634 30470 30792 31374 31279 30768 30655 30796 30978 31126 31274 31156 31031 31020 31151 31195 31216 31217 31156 31212 31336 31676 31228 31006 31131 31498 31719 32141 32806 32993 32693 32087 31716 31555 31563 31718 32075 32185 31791 31240 30976 31062 31475 31772 32123 32660 32888 32799 32608 32375 32219 32190 32227 32375 32740 32874 32183 31378 31137 31115 31217 31560 31929 32421 32265 31775 31194 30895 30836 30842 31194 31545 32060 32417 31777 31377 31209 31155 31272 31467 31805 32154 31993 31796 31466 31304 31236 31299 31526 31907 32068 31466 31154 31018 30850 30710 30615 30851 31258 31265 31129 30996 30918 30812 30730 30782 31032 31208 30654 30515 30592 30732 30673 30482 30367 30837 31014 30923 30831 30953 31074 31048 31081 30998 30906 30597 30204 30218 30435 30630 30540 30386 30698 30692 30403 30198 30244 30318 30392 30531 30639 30957 31002 30581 30523 30630 30812 31058 31328 31789 32218 32290 32248 31991 31839 31831 31842 32155 32762 32785 32131 31373 31283 31341 31396 31337 31260 31247 31072 30836 30701 30679 30809 30842 30940 31360 31817 31519 30712 30556 30670 30663 30652 31429 32369 32784 32958 33378 33813 34077 34130 34304 34529 34654 34782 34837 34768 34724 34666 34379 34194 34056 34238 34519 34501 34452 34377 34230 34112 34274 34348 34249 34161 33893 33546 33206 32821 32379 31988 31718 31440 31218 31083 30975 30743 30502 30391 30446 30411 30326 30345 30277 30132 29869 29511 29167 29089 29192 29260 29447 29193 29339 29737 30073 30183 30537 30805 30880 31576 31471 31017 30746 30599 30833 31322 31637 32072 32463 32707 32870 32853 32460 32104 32251 32406 32433 31887 31454 31202 30974 30590 30216 30720 31321 31713 32058 32074 31796 31703 31515 31429 31487 31638 31127 30867 30804 30789 30856 30870 30822 30728 30546 30586 30538 30482 30489 30464 30453 30540 30643 30670 30143 29980 29959 30031 30074 30300 30462 30433 30289 30159 29968 29941 29963 30082 30202 30017 29491 28693 28183 28312 28409 28473 28517 28798 28865 28461 28091 27921 28018 28177 28204 28405 29128 29654 29403 28611 28361 28424 28560 28692 28799 29071 29388 29388 29222 28978 28874 28908 28957 29047 29387 29566 29213 29084 28983 29030 29121 29218 29273 29429 29492 29077 28643 28547 28603 28631 28743 28878 29434 29890 29656 29129 29099 29548 30165 30399 30616 31286 31638 31813 31755 31611 31443 31461 31603 31936 32289 32647 32388 32026 31858 32126 32577 32684 32900 33343 33554 33343 32734 32167 31808 31698 31607 31759 32237 32691 32230 31914 31920 32123 32429 32611 32898 33162 33167 33187 33186 32907 32641 32384 32329 32448 32926 33123 32451 32239 32309 32571 32713 32867 33192 33474 33498 33470 33314 33041 32780 32555 32453 32309 32272 32190 31702 31499 31607 31708 31756 31826 32118 32280 32568 32697 32477 32257 32154 31958 31842 31664 31183 30621 29888 29933 30103 30118 30028 29916 29929 30088 29853 29684 29607 29638 29654 29649 29586 29797 30462 30772 30517 30595 30877 31260 31642 31690 31226 30608 29963 29376 29239 29258 29291 29413 29878 30127 30413 29865 29629 29769 30242 30656 30927 30960 30644 30222 29874 29697 29675 29661 29721 30109 30794 31402 31136 30478 30429 30734 31002 31392 31715 31909 31776 31423 31274 30928 30753 30760 30991 31594 32048 32086 31145 30757 30517 30468 30518 30855 31551 31839 31951 31862 31539 31249 31293 31509 31781 31990 31639 31014 30798 30548 30390 30342 30380 30914 31312 31318 31098 30859 30637 30563 30783 30916 31122 30886 30241 30215 30246 30187 30068 30152 30524 30712 30813 30593 30394 30417 30525 30592 30749 30908 30803 30452 30268 30242 30386 30438 30322 30732 31003 31152 31084 30814 30743 30833 30933 30964 30799 30729 30442 29969 29930 30083 30228 30307 30568 30909 31043 31104 30779 30556 30539 30608 30719 30758 30688 30340 29684 29627 29757 29886 29865 29977 30241 30378 30483 30209 29987 30052 30174 30251 30653 31192 30510 29813 29666 29719 29817 29802 30029 30547 30874 30908 30642 30341 30287 30320 30322 30514 30924 30994 30219 29790 29759 29825 29811 29876 30216 30556 30679 30621 30446 30338 30338 30331 30485 30893 31141 30720 30523 30506 30446 30341 30252 30541 30970 31214 31142 31033 30927 30759 30667 30708 30838 31353 31822 31299 31073 31045 31088 31160 31390 31612 31824 31982 32150 32230 32107 31903 31622 31529 31740 31998 31451 31109 31096 31118 31093 31043 31271 31618 31754 31848 31729 31572 31633 31590 31375 31206 31596 31375 30900 30785 30797 30974 31218 31432 31666 31909 32077 32036 31808 31685 31655 31636 31690 31568 31264 30647 30421 30509 30626 30649 30669 30786 30809 30744 30630 30573 30580 30667 30825 31431 31672 31432 31639 31743 31882 32127 32542 32995 33305 33663 33872 33986 34099 34063 34098 34158 34332 34452 34524 34467 34471 34521 34576 34572 34612 34517 34449 34441 34513 34609 34750 34593 34128 33952 33866 33851 33612 33313 32844 32253 31845 31538 31201 30636 30556 30447 30319 30098 29794 29696 29508 29175 29174 29222 29320 29396 29469 29679 29954 29506 29311 29362 29471 29666 29791 29718 29583 29386 29366 29367 29325 29322 29358 29359 29303 29196 28996 28755 28705 28682 28724 28628 28582 28811 28871 29176 29942 30659 30612 30597 30445 30016 29957 29867 29639 29489 29440 29723 29648 29816 29808 29695 29669 29536 29505 29337 29263 29283 29270 29615 30213 30642 30775 30835 30974 30668 30834 30840 30632 30513 30470 30538 30479 30245 29917 29507 29402 29320 29435 29746 30018 30260 30210 30181 30272 30132 30089 30179 30258 30612 31016 31006 30602 30282 30376 30625 30844 31171 31423 31588 31381 31298 31159 30818 30659 30591 30671 30959 31283 30889 30437 30200 30580 30883 31014 31155 31351 31448 31122 30811 30480 30309 30312 30388 30629 31099 31195 30779 30471 30292 30209 30142 30084 30148 30338 30331 30283 30034 29726 29641 29561 29650 29821 30274 30513 30410 30310 30403 30382 30529 30595 30755 30797 30645 30565 30357 30155 29924 29801 29993 30383 30884 30437 30275 30293 30386 30383 30381 30393 30502 30467 30535 30714 30704 30635 30336 30250 30563 30911 30541 30297 30321 30480 30633 30758 30852 31225 31215 31266 31052 30930 30864 30873 30940 31081 31066 30718 30531 30590 30782 30936 31066 31268 31361 31215 31135 30944 30808 30803 30916 31158 31501 31507 30830 30364 30225 30309 30640 30907 31216 31372 31240 30785 30478 30268 30246 30500 30638 30845 31257 31528 30855 30330 30105 30046 30067 30121 30241 30587 30875 30733 30303 29775 29455 29338 29210 29196 29251 29594 29162 28540 28384 28366 28520 28627 28814 29367 29516 29163 28699 28494 28423 28423 28538 29071 29789 29807 29056 28948 28981 28865 28712 28663 28849 28863 28830 28857 28923 28844 28645 28533 28669 29113 29586 28813 28707 28851 28932 28760 28692 29012 29374 29361 29312 29244 29295 29390 29327 29385 29858 30151 29561 29116 29215 29189 29842 30747 30802 30564 30792 30833 30906 31260 31483 31626 32041 32238 32450 32704 32875 32953 33042 33061 33107 33083 33093 33129 33210 33169 33203 33251 33330 33426 33360 33403 33426 33402 33462 33606 33699 33793 33781 33718 33986 34010 34116 34208 34201 34232 34235 34199 34275 34260 34066 33391 32721 32219 31788 31263 30925 30865 30801 30556 30200 29812 29475 29188 29108 29296 29198 29083 29123 29087 29004 28935 28888 28722 28582 28664 28750 28449 28760 28929 28973 29157 29524 29751 29715 29683 29169 28935 28852 28617 28380 28211 28676 29229 29377 29499 29388 29271 29027 28805 28911 29231 29420 28940 28671 28729 28763 28640 28370 28308 28601 28649 28752 28791 28726 28727 28662 28596 28751 29200 29040 28973 28891 28845 28849 28862 28845 28792 28808 28952 28982 28949 28945 28957 29147 29800 30078 29471 28977 29006 29050 29079 29150 29456 29853 29914 29961 29769 29574 29452 29432 29696 30107 30120 29313 28899 28748 28698 28682 28747 29031 29369 29678 29691 29495 29284 29198 29189 29283 29679 29946 29571 29493 29552 29490 29580 29553 29477 29405 29253 29246 29115 28927 28846 28829 28755 28806 29237 29857 29506 29189 29109 28964 28838 28756 28865 29363 29789 29839 29670 29533 29403 29264 29196 29290 29514 29757 29594 29518 29537 29628 29633 29563 29712 30039 29980 29967 29854 29860 29931 29899 29878 30135 30610 30566 30325 30291 30584 30748 30830 30784 30850 31324 31290 31195 31013 30909 30853 30815 30802 30734 31024 30638 30352 30287 30301 30327 30346 30412 30680 30562 30528 30228 30147 30151 30402 30729 30879 31140 30797 30399 30181 30230 30562 30823 31172 31882 32233 32044 31961 31639 31340 31204 31154 31250 31518 31714 31848 31376 31315 31558 31747 31998 32308 32529 32680 32398 32275 31966 31723 31791 31764 31949 32331 32754 31984 31248 30996 31031 31126 31283 31701 32282 32406 32390 32135 31660 31354 31255 31315 31603 32028 31830 31105 30684 30554 30460 30355 30316 30590 30878 30984 30679 30281 30079 30014 29997 30244 30714 30695 30378 30219 29972 29781 29679 29731 30140 30506 30558 30461 30377 30275 30112 30011 30055 30598 31029 30297 30076 30123 30086 29923 29933 30136 30421 30636 30663 30513 30444 30353 30185 30381 30355 30145 29829 29784 29912 29999 30065 30018 30126 30409 30430 30098 29963 29943 29929 29981 29967 29939 30145 29951 29644 29757 29805 29843 29720 29677 30053 30335 30456 30526 30537 30769 31104 31412 31742 32114 32579 32022 31515 31279 31182 31170 31181 31529 32055 32147 32099 31780 31491 31564 31704 31829 32121 32491 31933 31190 30926 30911 31049 31431 31900 32357 32480 32255 31990 31662 31599 31567 31484 31723 32073 31731 30715 30411 30361 30464 30484 30555 31206 31548 31257 30983 30818 30741 30757 30726 30986 31418 31449 31083 30838 30588 30391 30291 30297 30625 31138 31251 31233 30988 30623 30475 30584 30871 31803 32121 31721 31384 31124 30824 30541 30260 30108 30550 31427 31818 32001 31983 31770 31554 31658 31946 32480 32554 32078 31844 31644 31293 30946 30690 30627 31102 31194 31133 31102 30925 30624 30410 30565 30827 30942 30888 30752 30637 30276 29858 29508 29370 29882 30205 30026 29957 29913 29897 29888 30076 30878 31481 31159 30846 30804 30676 30524 30239 29750 29642 29785 29790 29798 29792 29793 29792 29767 30099 30965 30641 30194 30023 29989 29883 29665 29253 29006 29445 29668 29534 29447 29435 29460 29389 29577 29676 29412 29111 29035 29101 29087 28926 28838 29050 29741 29882 29466 29320 29295 29343 29403 29686 30111 30211 29872 29527 29575 29469 29396 29279 29044 29213 29310 29139 29047 29030 29163 29314 29596 30030 30276 29986 29708 29603 29559 29433 29466 29387 29604 30000 29920 29727 29658 29694 29778 29877 30376 30980 30997 30628 30251 29962 29827 29924 30279 30706 30881 30855 30767 30670 30574 30565 30571 30771 31062 31204 31054 30788 30631 30463 30288 29984 29663 29621 29741 29735 29631 29406 29298 29224 29155 29430 29858 29827 29739 29817 29640 29322 29076 28765 28777 29242 29560 29642 29705 29755 29778 29863 29945 30370 30323 30246 30229 30180 30045 29755 29370 29045 29249 29446 29404 29429 29431 29386 29160 28989 29545 29768 29663 29656 29825 29870 29681 29200 28590 28844 29096 29104 29116 29201 29309 29335 29193 29535 29873 29669 29435 29483 29588 29615 29513 29184 29268 29519 29712 29691 29676 29715 29772 29715 29988 30260 29779 29427 29490 29516 29512 29508 29226 29205 29105 29092 29116 29168 29393 29521 29618 29655 29887 29760 29563 29524 29581 29629 29588 29448 29410 29635 29540 29399 29326 29353 29455 29627 29683 29875 30043 29816 29545 29418 29279 29289 29264 29116 29335 29447 29321 29156 29097 29150 29194 29212 29408 29790 29742 29575 29485 29380 29396 29374 29338 29660 29924 29954 29978 29821 29756 29836 29712 29956 30193 29986 29666 29881 29769 29640 29390 29047 29063 29303 29523 29678 29665 29619 29549 29503 30055 30563 30936 30691 30522 30449 30524 30426 30508 30732 31132 31477 31572 31475 31333 31171 31022 31190 31380 31335 30923 30714 30702 30640 30517 30376 30520 30800 31106 31118 30925 30835 30909 31036 31272 31254 31119 30651 30413 30434 30490 30567 30595 30534 30735 30933 31124 30835 30606 30589 30643 30726 30996 31111 31176 30995 30830 30576 30844 31204 31451 31999 32334 32506 32579 32290 31868 31781 31880 32280 32581 32500 31779 31455 31147 31273 31548 31787 32041 32218 31959 31699 31470 31414 31496 31586 31867 32119 31850 31242 30999 30974 30999 31055 31054 30964 31187 31450 31422 31267 31092 31048 31062 31101 31274 32000 32494 31965 31824 31931 32160 32705 33127 33206 33288 33569 33312 32998 32563 32270 32212 32546 32534 32865 32486 31767 31269 30974 30980 31124 31371 31846 32170 32000 31619 31238 31135 31151 31398 31914 31858 31455 31290 31153 30954 30789 30674 30963 31308 31776 32050 31944 31680 31332 31031 30942 31256 31771 31521 31030 30900 30667 30324 30288 30308 30427 30577 30775 30807 30733 30666 30528 30524 30849 31577 31967 31659 31364 31231 31346 31209 31102 31080 31213 31259 31240 31251 31194 31224 31179 31380 31759 32024 31716 31134 31037 31060 31042 30875 30794 31026 31152 31312 31328 31189 31183 31161 31040 31042 31479 31677 31564 31412 31413 31729 32498 32903 32791 32768 32908 32739 32559 32317 32218 32180 32375 32784 32970 32640 32050 31800 32173 32358 32624 32455 32489 32477 32458 32435 32257 32128 32109 32167 32466 32932 32886 32315 31974 31978 32229 32384 32662 32965 33310 33499 33512 33202 32800 32581 32496 32413 32330 32268 31948 31481 31303 31148 31254 31472 31663 32051 32560 32770 32742 32394 32047 31908 31907 32195 32289 32232 31522 31169 31208 31176 31199 31203 31233 31235 31086 30929 30840 30773 30853 31168 31492 31559 31336 31233 30353 30067 30109 30230 30409 30733 31321 31548 31468 31364 31113 30892 30829 30866 31039 31515 31393 30816 30600 30573 30536 30665 30977 31476 31782 31617 31282 30802 30567 30559 30599 30814 31028 31085 30350 29879 29791 29705 29798 30067 30631 31128 31060 30993 31059 31127 31441 31616 31820 32034 32269 32443 32654 32720 32587 32302 32390 32558 32642 32872 33030 32998 32922 33026 32950 32878 33102 33315 33523 33587 33629 33666 33759 33935 34013 34141 34180 34245 34279 34313 34357 34378 34376 34366 34395 34389 34226 33978 33741 33410 32968 32669 32587 32607 32427 32134 31871 31512 31125 30906 30661 30606 30486 30001 29690 29445 29279 29121 28885 28496 28398 28218 28158 27267 26813 26859 26958 26918 26929 27309 27641 28289 28686 28443 28282 28112 27827 27522 27753 28333 28259 28394 28591 28571 28442 28335 28104 28348 28802 29278 29127 28942 28801 28703 28605 28509 28768 29261 29122 29303 29279 29006 28644 28363 28439 28487 28747 28485 28321 28299 28186 27942 27713 27959 28534 28799 28924 28909 28787 28451 28277 28324 28470 28644 28381 28235 28218 28168 27970 27823 28441 28984 29026 29136 29003 28875 28706 28517 28353 28791 29193 28855 28589 28463 28436 28427 28154 28705 29030 29252 29337 29320 29230 29114 28898 28730 28298 28136 27669 27582 27676 27664 27487 27227 27523 27850 28080 28096 27986 27964 27937 27891 28316 28746 28660 28252 28026 28160 28211 28190 28134 28365 28943 28903 28849 28645 28488 28466 28478 28644 29058 29266 28652 28439 28398 28347 28298 28393 29069 29689 29942 29890 29685 29451 29349 29286 29259 29702 30238 29831 29533 29288 29403 29344 29264 29738 30249 30450 30551 30494 30364 30183 29914 29954 30176 30570 30250 29964 29816 29637 29566 29555 29749 30089 30233 30254 30121 29965 29818 29992 30287 30315 30276 30470 30577 30591 30516 30639 30960 30856 30873 30833 30756 31135 31444 31504 31561 31311 30932 30830 30858 31077 31319 31503 31582 30911 30504 30311 30125 29799 30017 29995 29857 29871 30204 30568 30303 30168 29689 29309 29181 28803 28447 28777 28573 28218 27861 27527 27339 27264 27218 27117 27105 26913 26927 27000 27060 27128 27232 27276 27178 26898 26724 26676 26097 26078 26275 26584 26998 27595 27255 27429 27185 26995 27075 27177 27197 27168 27097 27706 28215 28391 28288 28117 27964 27873 27860 28064 28136 27598 27478 27507 27539 27641 27626 27606 28034 27925 28013 27805 27651 27649 27670 27642 27900 28071 27580 27347 27390 27478 27382 27183 27960 29004 29434 29683 29823 29779 29674 29682 29865 30208 30234 29904 29347 29421 29668 30098 30312 30568 30689 30941 31020 30832 30461 30122 29961 29908 30397 30772 30788 30329 30056 29894 29494 28962 28813 29383 29997 30360 30563 30600 30481 30295 30095 30386 30908 30884 30654 30271 29891 29681 29653 29497 29470 29931 30029 30131 30005 29709 29470 29324 29213 29811 30381 30227 30113 29647 29542 29827 30166 30302 30217 30236 30089 29857 29582 29352 29217 29149 29438 29510 29286 29259 29277 29191 28991 28907 28773 28725 28479 28473 28502 28576 28498 28415 28363 28941 29569 29665 29608 29876 30212 30503 30723 30526 30271 30015 30041 30211 30317 30279 30055 30131 30516 30752 30349 30072 30117 30254 30344 30201 30309 30586 30813 30958 30955 30840 30778 30698 30510 30571 30779 30449 30116 30002 29902 30172 30482 30771 31049 30912 30668 30453 30199 30125 30171 30278 30278 30295 29807 29585 29523 29575 29893 30169 30400 30616 30498 30311 30098 29903 29838 29880 30058 30293 30363 29826 29641 29475 29529 29807 30046 30399 30795 30876 30723 30446 30150 29940 29924 29958 30314 30743 31126 31502 31535 31635 31710 31673 31869 31946 32209 32246 32386 32513 32635 32700 32864 33006 33107 33224 33306 33443 33595 33754 33927 34105 34108 34068 34315 34559 34607 34617 34682 34634 34579 34658 34765 34839 34855 34764 34690 34603 34560 34445 34693 34861 34882 34661 34477 34448 34253 34101 33855 33703 33800 33980 33512 32955 32669 32439 32173 32034 32139 32451 32556 32542 32490 32230 31968 31748 31718 31903 32097 31836 30913 30368 30149 30012 29830 29752 30412 30609 30493 30167 29786 29515 29310 29251 29471 29878 29768 29440 29244 29150 29095 29050 29136 29614 30028 30349 30211 29839 29527 29300 29164 29350 29702 30015 29773 29330 29129 28932 28907 29002 28908 29289 29605 29410 29264 28924 28727 28680 28690 29326 29933 29883 29570 29519 29343 29238 29286 29297 29731 30042 30283 30301 29958 29655 29437 29364 29562 30046 29856 29552 29614 29512 29382 29340 29312 29738 30314 30433 30387 30131 29862 29643 29500 29539 30032 29988 29667 29754 29778 29602 29360 29152 29424 29930 30230 30170 30048 29967 29766 29520 29481 29931 29932 29647 29737 29823 29768 29608 29512 29698 29997 30221 30139 30081 30061 29957 29712 29773 30027 29839 29439 29475 29690 29731 29655 29313 29189 29407 29601 29702 29738 29804 29830 29756 30768 31327 30668 30317 30396 30265 30032 29742 29451 29394 29456 29457 29523 29627 29689 29776 29753 29890 30944 31004 30423 30228 30252 30223 30133 30046 29931 30008 30085 30089 30031 30036 30070 29949 29942 30348 30421 29847 29550 29592 29562 29441 29382 29547 29651 29655 29564 29454 29461 29463 29447 29442 29773 30038 29733 29411 29468 29508 29495 29477 29721 30340 30861 30927 30640 30414 30316 30193 30130 30186 30639 30471 30124 30063 30001 30153 30256 30369 30597 30709 30571 30238 29969 29956 29956 29978 30049 30428 31152 31004 30831 30857 31136 31360 31852 31608 32149 32554 32251 31665 31095 30695 30512 30390 30534 30819 30685 30035 29781 29683 29604 29554 29398 29985 30206 30068 29857 29751 29713 29616 29504 29759 30050 29764 29394 29463 29619 29596 29384 28944 29112 29566 29430 29347 29240 29101 28920 28811 29112 29792 30166 29669 29632 29693 29582 29451 29312 29216 29589 29683 29581 29545 29531 29529 29461 29390 29553 29704 29592 29573 29693 29577 29360 29236 29086 29289 29507 29590 29420 29339 29325 29335 29219 29146 29615 29708 29466 29596 29755 29729 29609 29376 29307 29513 29660 29745 29700 29761 29774 29816 30140 30445 30534 30377 30377 30477 30454 30360 30016 29703 30256 30561 30900 30851 30835 30814 30655 30439 30423 30848 30832 30725 30808 30442 30791 31400 31637 31936 32352 32393 32366 32245 32071 32094 32054 32051 31903 31868 31748 31539 31360 31293 31343 31245 31229 31292 31300 31108 30976 30861 30808 30821 30708 30384 30197 30223 30329 30610 30773 30786 30743 30315 30102 30202 30219 30229 30279 30342 30420 30369 30286 30138 29874 29866 30161 30237 30357 30484 30448 30429 30362 30145 30106 30061 30102 30157 30169 30241 30370 30187 30130 30292 30347 30373 30476 30447 30516 30894 31215 31188 30980 30873 30846 30824 30845 31101 30960 30550 30388 30433 30470 30450 30347 30379 30757 30971 31025 30882 30790 30742 30631 30647 30842 31027 30900 30796 30750 30698 30729 30825 31010 31479 31748 31501 31154 30955 30937 30909 30449 30438 30451 30481 30380 30469 30428 30367 30302 30236 30263 30309 30284 30227 30205 30226 30302 30143 30489 30484 30450 30557 30501 30339 30260 29933 29887 30124 30278 30320 30242 30116 30023 30045 29950 30005 30024 30054 30289 30459 30442 30305 30121 30054 30092 30207 30302 30342 30321 30167 30014 29782 29819 29881 30008 30310 30092 30267 30271 30046 30194 30748 30950 30999 30876 30860 30837 30693 30512 31031 31648 31223 31041 31156 31145 31118 30913 30725 31266 31253 31264 31228 31110 31034 31000 31348 31811 31424 31038 30990 31058 31003 30990 30979 31210 31080 30803 30689 30662 30697 30616 30548 30704 30912 30840 30558 30528 30588 30614 30695 30913 31116 31123 31040 30957 30959 30970 30955 30950 31091 31632 31337 30787 30620 30783 30873 30907 31113 31597 31748 31794 31707 31602 31584 31622 31577 31863 32374 32457 31979 31915 32013 32205 32384 32362 32502 32608 32518 32608 32433 32219 32043 31897 31949 32593 32959 32464 31967 31932 32217 32704 32902 32415 32461 32371 31873 31702 31448 31260 31171 31378 31850 32501 32303 31951 31933 32206 32417 32657 32358 32485 32435 32152 32157 32104 32007 31880 32091 32529 33206 32927 32712 32779 32938 33009 32981 32485 32266 32045 31809 31536 31492 31409 31318 31593 32025 32935 32942 32818 32913 33081 33251 33120 32608 32585 32338 32148 32237 32405 32408 32210 32273 32661 33210 32679 32392 32463 32626 32768 32681 32306 32412 32315 32196 32202 32202 32240 32042 31944 32368 32520 31993 31900 31993 32304 32512 32735 32849 32931 32915 32958 32867 32673 32534 32509 32605 32899 32987 32593 32391 32107 32045 32402 32783 33241 33550 33227 32962 32679 32430 32356 32497 32885 33105 33052 32635 32115 32002 32275 32484 32719 33159 33542 33383 33131 32898 32652 32583 32527 32716 33193 33167 32634 32022 31742 31847 32034 32253 32614 32974 33013 32847 32517 32201 32019 31986 32182 32614 32795 32467 32199 32075 31892 31894 32002 32556 33065 33118 32989 32751 32430 32240 32124 32281 32863 33167 32823 32293 31843 31516 31368 31568 32101 32537 32785 32595 32212 31859 31606 31465 31554 31826 31791 31321 31171 31166 30917 30523 30139 30235 30273 30077 29942 29808 29570 29353 29253 29543 29850 30937 30627 30689 30880 30907 30750 30507 30230 30207 30204 30086 30046 30031 29849 29685 29977 30422 30437 29677 29677 29800 29796 29534 29112 29381 29696 29548 29313 29358 29346 29218 29133 29407 29799 29501 29087 29035 29295 29513 29438 28883 28779 29507 29518 29601 29515 29543 29472 29423 29165 29402 29869 29507 29318 29361 29401 29367 29345 29319 29830 29999 30298 30245 30200 30158 30132 30101 30363 30620 30197 29864 29912 30012 29960 29822 29820 30054 30579 30894 30837 30581 30512 30672 30867 30976 31160 30793 30437 30497 30562 30557 30538 30672 31319 31892 32033 31763 31448 31257 31149 31164 31390 31992 32123 31608 31319 31182 31104 31066 31245 31702 32411 32833 32799 32429 32178 32113 32051 32208 32575 32563 31937 31682 31415 31325 31416 31536 31954 32530 32896 32620 32249 31931 31654 31493 31476 32073 32293 31623 31368 31075 30891 30857 30750 30825 31142 31279 30929 30654 30492 30460 30422 30237 30664 31080 30721 30468 30403 30286 30039 29990 31129 31790 31433 30743 30104 29604 29278 29064 29350 29558 29670 29796 29754 29766 29591 29506 29461 29731 29785 29695 29446 29630 29932 30195 30658 31141 30954 30824 31177 30804 30670 30301 29975 29926 29970 30732 31028 31360 31584 31356 31061 30903 30722 31052 31516 31635 31211 31047 30897 30711 30473 30755 31673 31798 32057 31999 31836 31619 31362 31069 31543 31906 31411 31165 31108 31085 31090 30971 31215 32112 32378 32594 32575 32332 32169 31995 31850 32050 32177 31819 31513 31453 31433 31438 31388 31996 32538 32482 32541 32287 32120 32125 32159 32116 32500 32570 32726 32344 32172 32129 32199 32539 32882 33381 33709 33607 33856 33714 33498 33530 33519 33667 33763 33976 33605 33388 33321 33404 33497 33535 33569 33815 34065 33926 33561 33248 33150 33361 33296 33236 32942 33652 33956 33638 33436 33466 33771 34011 34277 34283 34578 34594 34415 34288 34143 34168 34130 34003 34098 34297 34249 33595 33474 33687 33854 34019 34096 34072 34082 33764 33696 33448 33258 33161 33083 33180 33559 33591 33095 32723 32300 32392 32726 32919 33337 33762 33828 33769 33610 33330 33182 33265 33456 33190 33284 33571 33699 33879 34049 34175 34200 34225 34324 34565 34804 34911 34849 34916 35078 35264 35429 35533 35456 35542 35598 35658 35700 35605 35439 35318 35543 35643 35619 35564 35473 35486 35560 35604 35810 35799 35803 35944 35602 35548 35440 35547 35662 35873 36008 35984 35990 35924 35888 36021 36117 36103 36017 35999 35819 35684 35514 35240 34963 34807 34836 34763 34568 34450 34497 34551 34584 34505 34338 34606 34830 34244 33670 33327 33084 32790 32426 32485 32716 32309 31929 31612 31306 31228 31413 31607 32021 32547 32325 31741 31506 31680 31741 31755 31809 32282 32284 32002 31621 31295 31113 31101 31197 31608 32062 31813 31391 31039 30814 30617 30450 30514 31001 31121 31141 30742 30342 30149 30064 30087 30551 31236 31399 31145 30861 30844 30970 31204 31190 31202 31193 31447 31495 31347 31104 31013 31042 31492 31934 32287 31882 31407 31039 31177 31442 31977 32122 32418 32156 31994 31748 31292 31088 31324 32119 32571 32581 32023 31743 31550 31338 31014 30597 30320 30478 30761 30916 30909 30631 30414 30329 30312 31010 31171 30886 30683 30849 30800 30459 30003 29623 29576 30011 30306 30491 30659 30579 30486 30535 31024 31556 31495 30545 30129 29968 29600 29197 29014 29676 30515 31167 31443 31401 31153 30875 30609 30968 31430 31180 30555 30456 30345 29959 29394 29176 29670 29758 29678 29558 29530 29446 29204 28965 29525 30185 30667 29997 29813 29925 29874 29588 29292 29298 29746 30199 30452 30386 30315 30204 29988 29849 30414 30894 30441 30245 30276 30243 30123 29770 29781 30224 30703 30781 30749 30656 30618 30495 30441 30826 31062 30945 30664 30614 30580 30510 30352 30103 30327 30794 31034 31032 30841 30766 30732 30693 31031 31126 31098 30914 30851 30867 30723 30450 30239 30376 31180 31737 31771 31611 31529 31597 31858 32101 32161 32137 32087 31874 31707 31506 32026 32317 32349 32610 32793 33138 33595 34218 34600 34834 34989 35099 35014 34991 35015 34946 34672 34847 34847 34689 34472 34201 33999 34177 34419 34538 34819 34703 34454 34337 34246 34244 34526 34682 34694 34709 34633 34585 34672 34534 34262 34059 33870 33696 33566 33571 33726 33723 33512 33301 33365 33442 33415 33487 33815 34147 34307 34335 34263 34325 34238 34339 34571 34534 34492 34204 33594 33511 33729 33928 34056 34222 34354 34329 34161 33819 33696 34054 34466 34714 34651 34398 34273 34459 34765 34846 34842 34687 34239 33964 33927 33140 32699 32686 32618 32788 33252 33680 33814 34189 34336 33948 34068 34464 34772 34943 35042 34993 34950 34809 34673 34621 34839 34964 34906 34855 34830 34844 34866 34891 34788 34803 34634 34462 34169 34021 33982 33727 33597 33488 33422 33438 33864 34338 34513 33722 33136 32699 32443 32126 31632 31603 32030 32520 32486 32378 32228 32095 32180 32416 33030 33559 33261 32502 32188 31808 31524 31229 31037 31636 31882 32069 32159 31566 31348 31501 31786 32436 32979 32804 32137 31761 31500 31270 30923 30811 31410 31893 32018 31973 31528 31340 31427 31613 31987 32239 31639 31436 31375 31152 30957 31544 32146 32182 32209 32210 32076 31942 31951 32025 32120 32126 31941 32057 32239 32416 32653 33223 33970 33919 34105 34209 34181 33687 33191 34098 36857 33723 34588 36304 39396 41667 38546 33160 31535 31586 32012 32453 33106 33598 33827 33878 33752 33846 34108 34140 34403 34616 34740 34849 34762 34649 34673 34752 34803 34801 34914 34945 34939 34883 34899 35056 35004 34958 35144 35187 35149 35027 34999 34996 35070 35053 35133 35280 35382 35409 35536 35646 35755 35824 35851 35996 36079 36141 36175 36202 36250 36189 36073 35913 36070 36193 36164 36132 36153 36210 36217 36214 36346 36437 36512 36624 36618 36520 36423 36535 36521 36489 36543 36580 36649 36518 36502 36519 35980 35267 34814 34763 34741 34680 34681 34773 34684 34866 35089 35178 35213 35465 35617 35623 35510 35492 35365 35303 35445 35627 35521 35355 35044 34771 34680 34859 34957 34989 35072 35181 35195 35155 34760 34546 34576 34297 34029 33975 33908 33766 33595 33530 33498 33505 33554 33419 33270 33032 32649 32479 32563 32509 32329 32148 32216 32268 32376 32483 32539 32365 32165 31993 31857 31882 32005 31825 31364 30989 30790 30747 30842 30900 31075 31330 31267 31280 31253 31186 31243 31670 31911 32022 32226 32468 32484 32327 32106 32072 32010 31832 31791 31809 31912 32008 32035 31855 31657 31508 31521 31554 31615 31822 31864 31890 31766 31730 31615 31553 31591 31731 32182 32450 32404 32136 31934 31876 31888 31883 32264 32437 32454 32151 32006 31990 32004 32004 32107 32506 32880 32879 32600 32309 32113 32134 32274 32443 32622 32491 32011 31750 31636 31626 31647 31763 32359 33009 32883 32394 32016 31841 31775 31936 32327 32593 32443 32036 31743 31599 31562 31587 31686 32232 32929 32792 32306 31955 31784 31661 31631 31882 32303 32400 31980 31575 31453 31472 31536 31662 31888 32726 32851 32548 32127 31832 31692 31624 31852 32559 32669 32064 31682 31668 31736 31920 31993 32229 32953 32835 32595 32324 32153 31997 31783 31923 32522 32626 32089 31684 31549 31467 31523 31642 31686 33051 33519 33184 32815 32442 32195 32021 32021 32420 32715 32178 31743 31720 31838 32053 32156 32107 32890 33207 33005 32809 32656 32431 32177 31877 31682 32299 32619 32000 31506 31240 31251 31419 31411 31703 32508 32153 31816 31504 31300 31049 30777 30531 30822 31033 30519 30292 30250 30326 30446 30484 30493 30832 30926 30817 30626 30610 30676 30650 30619 31305 31626 30964 30410 30621 30800 31002 30964 30929 32030 32490 32048 31484 31345 31414 31536 31343 31715 32373 32027 31464 31159 31386 31644 31927 32072 33646 34078 33493 32967 32676 32519 32454 32237 32332 33109 32760 31889 32008 32090 32129 32242 32300 33032 33355 32678 32166 31772 31668 31693 31616 31653 32016 31500 31425 31704 32062 32100 32020 31977 32249 32162 31715 31274 30903 30968 31008 30973 31008 31600 31911 31317 30638 30642 31095 31652 32005 32661 33089 32931 32215 31675 31643 31665 31659 31761 32366 32079 31102 30631 30614 30969 31405 31715 32753 34238 33912 33229 32623 32395 32401 32467 32732 33482 33426 32445 31847 31891 32287 32739 32986 34241 34946 34363 33517 32745 32489 32506 32576 32828 33409 33359 32553 32082 31988 32058 32215 32464 32829 33367 33605 33375 33009 32721 32617 32618 32704 33317 33492 32732 32090 31704 31583 31797 32166 32667 33381 33536 33285 33032 32829 32674 32517 32464 33201 33743 33273 32905 32551 32394 32344 32540 32954 34196 35144 35137 34826 34262 33915 33860 33880 33947 33945 33523 32881 32254 32060 32324 32635 32816 33026 32922 32918 32585 32127 32091 32183 31818 32626 34298 34269 33607 32925 32714 32822 32930 33098 33838 34008 33705 33231 32880 32308 31984 32098 32063 31894 32072 32355 32680 33054 33293 33187 33074 32962 32930 33366 34360 34997 35205 35174 35110 35500 36181 36721 36614 36356 35434 35178 35052 35084 35266 35684 36181 36180 35916 35643 35373 35323 35230 35471 36016 36055 35682 35106 34830 34947 35111 35342 35986 36414 36097 35814 35548 35214 34939 34729 34864 35417 35499 34988 34575 34467 34553 34666 34802 35425 36189 36212 35994 35702 35473 35259 34981 34967 35286 35452 35188 34744 34541 34505 34699 35079 36155 37181 37340 36903 36387 36103 35762 35392 35424 36146 36183 35303 34685 34582 34641 34632 34547 34848 35779 35924 35269 34632 34535 34428 34210 34063 34560 34894 34203 33582 33688 33800 33889 33920 34027 34652 35018 34800 34372 34286 34326 34245 34233 34496 34875 34465 33898 33903 34131 34283 34281 34406 35110 35295 35185 34693 34631 34717 34684 34503 34996 35292 34929 34418 34386 34566 34805 34954 35261 35703 35577 35326 34992 34873 34877 34865 34840 35179 35557 35379 34964 34844 35018 35285 35490 35597 35933 35933 35657 35299 35138 35152 35249 35604 35915 35906 35470 35181 35277 35384 35571 35730 35875 36112 35941 35679 35322 35368 35543 35681 35879 36208 36281 35854 35403 35202 35271 35495 35793 36271 37086 37034 36771 36254 36017 36158 36364 36360 36644 37049 36620 36118 35652 35711 35944 36076 36299 36664 36551 36158 35669 35528 35555 35606 35713 36172 36784 36766 36246 35834 35818 35820 36101 36637 37159 37330 37132 36742 36294 36150 36192 36285 36729 37134 36923 36450 36000 35958 36091 36325 36622 37587 38106 37774 37335 36977 36866 36866 36891 37127 37247 37034 36329 35954 35858 35908 36037 36259 36764 36823 36440 36020 35614 35599 35737 35883 36165 36372 36213 35474 35156 35112 35250 35566 35896 36368 36678 36435 36013 35563 35339 35404 35471 35692 36270 36621 36278 35725 35622 35652 35805 36037 36228 36608 36593 36423 36229 35997 35892 35962 36161 36437 36664 36328 35752 35513 35535 35638 35870 36141 36412 36410 36127 35935 35732 35731 35889 36170 36594 36806 36435 36065 35860 35756 35765 35935 36252 36438 36338 36143 35996 35831 35767 35837 36087 36672 36874 36459 36154 35923 35742 35632 35631 35709 35976 36202 36338 36303 36039 35872 35866 36038 36379 36771 36747 36310 36137 36009 36048 36218 36563 37020 37363 37179 36921 36558 36302 36198 36200 36466 36653 36504 36175 35899 35786 35744 35809 36336 36811 37121 37175 37218 37123 36936 36775 36665 36787 37108 37224 36853 36459 36249 36129 36103 36280 36542 36988 37066 37054 36939 36602 36380 36284 36384 36899 37063 36768 36495 36358 36209 36053 36264 36609 36960 37136 37038 37018 36949 36788 36662 36761 37308 37407 37002 36611 36583 36677 37082 37645 38086 37700 37504 37831 38961 40125 40904 41257 41571 41656 41813 42000 42222 42487 42629 42588 42522 42460 42326 42172 41997 41973 41929 41898 42137 41758 41776 41662 41347 40990 40720 40565 40481 40323 40311 40487 40601 40430 40379 40282 40131 39738 39089 39284 39294 38970 38592 38606 38770 38872 38679 38569 39116 39550 39406 39225 39072 39006 38980 38724 38725 38689 38363 37565 37047 36995 37252 37527 37409 37201 37065 37152 37262 37250 37276 37446 37410 37357 37319 36961 36153 35787 35989 36307 36539 36676 36982 36588 36478 36544 36517 36505 36535 36546 36731 36550 35811 35331 35327 35545 35757 36024 36179 36037 35781 35674 35554 35480 35568 35674 35974 36123 35828 35018 34751 34788 35015 35299 35591 35877 35877 35448 35169 34967 34961 35058 35215 35590 35971 35381 34649 34473 34595 34759 34952 35132 35424 35125 34877 34682 34587 34726 34899 35099 35606 35784 35031 34362 34202 34250 34409 34587 34900 35553 35638 35134 34726 34548 34563 34715 34912 35176 35387 35295 34571 34291 34323 34480 34683 34900 35313 35791 35457 35156 34875 34783 34899 35043 35262 35550 35579 34881 34446 34417 34611 34866 35177 35546 35924 35909 35645 35355 35175 35164 35208 35333 35731 36120 35800 35105 34883 34913 35138 35458 35828 36188 36243 35833 35500 35200 35094 35160 35342 35896 36215 35865 35336 35133 35088 35228 35523 35759 35979 36030 35895 35628 35308 35156 35277 35586 35972 36388 36380 35748 35387 35299 35400 35662 35884 36327 36694 36601 36221 35775 35612 35755 36097 36445 36622 36529 36006 35653 35543 35506 35708 35954 36286 36858 36930 36594 36218 35978 35982 36079 36342 36704 36744 36296 35668 35631 35634 35799 36132 36455 36683 36548 35894 35205 34683 34363 34161 33951 33904 34012 34050 34012 33989 33776 33748 33993 34180 34257 34444 34816 34800 35245 35967 36171 36453 36915 37359 37279 37080 36738 36359 36211 36318 36529 36801 37142 37063 36862 36648 36552 36586 36555 36633 36842 36922 36544 35955 36264 36814 37018 37155 37682 37556 37284 36944 36598 36327 36151 35981 36196 36519 36396 36025 35713 35728 35942 36284 36947 37136 36884 36594 36447 36141 35963 35953 36241 36721 36875 36662 36330 36264 36166 36130 36286 36545 36805 36757 36699 36415 36182 36005 35926 36037 36366 36601 36306 35886 35576 35497 35579 35605 35574 35736 35773 35607 35387 35112 34917 34769 34744 35221 35870 35879 35530 35256 35271 35411 35512 35577 36157 36918 36879 36708 36327 35951 35659 35476 35707 36217 36251 35712 35317 35308 35395 35507 35679 36378 36682 36288 35808 35695 35646 35475 35403 35845 36311 36235 35732 35747 35876 35905 35795 35903 35914 35851 35692 35555 35526 35573 35421 35272 35334 35359 35063 34983 35068 35245 35362 35372 35420 36000 36136 35979 35581 35328 35372 35429 35478 35975 36225 35641 35211 35039 35065 35145 35070 35290 35936 36029 35744 35455 35410 35461 35339 35011 35371 35646 35337 34982 34688 34821 35080 35120 35024 35412 35503 35313 35114 35155 35214 35209 35304 35568 35817 35185 35044 35177 35342 35563 35757 35893 36203 36135 36100 35978 35958 35976 36076 36244 36248 36165 35841 35624 35698 35872 36079 36283 36958 37071 36737 36589 36431 36457 36448 36365 36420 36467 36298 35721 35503 35427 35525 35749 36013 36609 36720 36342 36085 36140 36184 36134 36130 36323 36503 36421 35946 35618 35463 35611 35901 36113 36604 36833 36431 36136 35914 35819 35805 35837 36046 36246 35816 35217 34961 34953 35281 35640 35905 36260 36353 36134 35857 35648 35649 35722 35886 36094 36194 35886 35280 34774 34731 34843 35085 35395 35689 35921 35908 35659 35441 35282 35269 35253 36360 36636 36549 36127 35684 35602 35601 35532 36213 36776 36863 36465 35986 35817 36067 36157 35978 36488 36578 36390 35986 35532 35231 35263 35365 35972 37058 37580 37634 37132 36786 36700 36710 36648 37243 37791 37837 37742 37414 37108 37015 37077 37482 37983 38470 38510 38237 38036 37918 37790 37560 37713 37962 37844 37494 37075 36700 36517 36524 36711 36937 37261 37456 37216 36785 36353 36152 36002 36366 36753 36861 36883 36382 35991 35818 35814 36045 36188 36264 36146 36065 35854 35537 35390 35354 35644 36373 36631 36591 36115 35851 35667 35623 35694 35947 36202 36471 36368 36120 35952 35892 35981 36205 36594 36793 36709 36250 36010 35774 35669 35793 36120 36441 36510 36572 36633 36358 36131 36104 36189 36383 36659 36390 36062 35945 35846 35639 35776 36029 36270 36354 36312 36330 36317 36172 36048 36134 36206 36287 36043 35694 35616 35702 35660 35758 35920 36143 36308 36140 36107 36132 36085 36047 36041 36255 36498 36394 35951 35964 36011 35980 35961 36088 36293 36549 36570 36570 36530 36499 36429 36366 36477 36699 36622 36142 35835 35863 35906 35903 35973 36193 36396 36281 36210 36181 36177 36168 36089 36195 36455 36450 36172 35909 35861 35854 35892 35985 35981 36217 36245 36246 36303 36276 36328 36390 36369 36551 36660 36386 36026 35890 35936 35988 36019 35994 36175 36231 36002 35862 35738 35845 36004 36111 36358 36361 35990 35739 35616 35617 35754 35972 35990 35985 35970 36048 35961 35888 35987 36174 36214 36197 36254 35960 35138 34876 35212 35606 35876 35937 36076 36190 36127 36039 35807 35777 35799 35834 36138 36308 36046 35508 35424 35543 35859 36157 36375 36895 36734 36342 36053 35959 35910 35902 36043 36308 36151 35629 35143 35008 35090 35253 35497 35879 36246 36147 35913 35595 35416 35436 35501 35590 36055 35997 35572 34933 34688 34714 34881 35080 35250 35560 35328 35052 34783 34650 34701 34821 35022 35431 35574 35096 34507 34295 34294 34441 34661 34893 35322 35460 35199 34947 34707 34653 34658 34733 35131 35429 35110 34284 33951 33923 34031 34248 34548 34891 34954 34679 34412 34131 34039 34058 34179 34542 34927 34956 34403 34028 33905 33985 34235 34387 34693 34990 35010 34801 34515 34367 34323 34425 34856 35162 35120 34552 34185 34062 34178 34470 34649 34991 35216 35169 34852 34490 34333 34315 34409 34759 34995 34763 34524 34368 34259 34230 34402 34714 35097 35321 35404 35337 35074 34889 34729 34715 35122 35319 35173 34637 34373 34150 34106 34262 34481 34862 35068 34938 34794 34570 34389 34341 34348 34713 35051 35037 34516 34312 34292 34353 34494 34697 34836 34776 34953 34996 34966 34832 34692 34578 34885 35156 34955 34456 34319 34566 34786 34957 34951 35443 35220 34763 34505 34442 34417 34297 34215 34622 35105 34872 34268 34083 34250 34509 34501 34400 35365 35557 35160 34622 34395 34310 34151 33916 33798 34814 34757 34367 33908 33867 33991 34185 34258 34540 35515 35614 35346 34899 34670 34524 34330 34232 34211 34572 35268 35276 34902 34822 34844 34973 35046 35155 35229 35395 35225 35025 34595 34330 34202 34312 34703 35026 34619 34345 34316 34303 34282 34328 34447 34710 34904 34875 34767 34608 34499 34462 34548 34876 35128 34904 34465 34240 34302 34330 34373 34540 34905 35216 35167 35037 34882 34585 34390 34388 34726 34999 34941 34606 34375 34247 34228 34240 34359 34701 35187 35573 35717 35618 35551 35415 35230 35264 35655 35843 35765 35326 34925 34926 34860 34853 34982 35165 35319 35338 35137 35030 34796 34741 34856 35006 35388 35757 35429 35028 35177 35244 35201 35236 35374 35594 35645 35560 35446 35245 35047 34849 34854 35294 35901 35839 35289 35066 34953 34932 34890 34956 35293 35542 35628 35606 35466 35287 35137 35117 35325 35797 35914 35564 35208 34999 34943 35048 35163 35313 35743 35949 35869 35823 35738 35561 35391 35405 35573 35878 35459 34994 34876 34952 34972 35027 35225 35917 36010 35966 35741 35538 35246 34997 34860 34955 35417 35201 34833 34566 34612 34721 34914 34873 34793 34803 35025 35141 34910 34716 34457 34332 34485 34922 34977 34443 34155 34240 34262 34383 34407 34418 34501 34562 34703 34590 34493 34293 34115 34370 34786 34724 34322 34033 34103 34400 34614 34853 35413 36594 36495 36151 35879 35734 35448 35178 35161 35351 35195 34726 34506 34531 34692 34716 34638 34738 35088 35138 35027 34818 34677 34642 34482 34326 34402 34519 34157 33819 33814 33993 34107 34114 34135 34284 34518 34635 34516 34397 34408 34211 34023 34311 34642 34385 33962 34120 34415 34607 34684 35022 35405 35463 35489 35371 35272 35297 35280 35141 35235 35170 34681 34191 34072 34171 34333 34285 34295 34810 34878 34855 34793 34821 34920 34985 34982 35168 35035 34586 34454 34410 34652 35003 35263 35322 35635 35367 35265 35057 35009 35065 35137 35147 35127 35089 34793 34475 34436 34644 35006 35438 35713 36206 36089 35936 35832 35766 35690 35666 35606 35407 35398 35040 34715 34554 34711 34946 35153 35458 35838 35748 35620 35497 35406 35395 35412 35532 35529 35272 34727 34316 34204 34359 34605 34869 35163 35118 34919 34826 34737 34694 34767 34951 35284 35521 35114 34429 34101 34129 34293 34523 34891 35195 35226 34994 34744 34631 34588 34598 34605 34830 35220 35016 34308 33658 33695 33855 34019 34022 34015 34379 34645 34439 34107 33990 34007 34119 34324 35039 35223 34873 34187 33854 33878 34003 34241 34530 35188 35138 34711 34551 34525 34599 34655 34752 35135 35408 34960 34233 33874 33846 33959 34007 34183 34599 34757 34360 34297 34259 34260 34298 34351 34692 35213 35147 34684 34139 34001 34077 34121 34303 34648 34783 34646 34557 34509 34529 34521 34519 34718 35529 35493 35093 34428 34165 34180 34265 34489 34804 35170 35222 34956 34947 34991 35058 35101 35236 35740 35670 35151 34667 34470 34500 34578 34651 35081 35461 35506 35296 35233 35216 35268 35362 35624 35861 35489 34946 34226 33951 33882 33896 34189 34581 35042 35252 35030 34834 34736 34812 34935 35224 35582 35646 35229 34618 34617 34789 34918 34996 35208 35543 35446 35124 34991 35040 34862 34747 34993 35360 35195 34772 34339 34389 34834 35113 35245 35380 35576 35435 35713 36129 36119 36040 36024 36105 36062 35856 35630 35490 35421 35426 35541 35922 36598 37095 37219 36858 36478 36014 35969 35946 36157 36214 36136 35823 35583 35515 35555 35635 35758 35861 36029 36081 35776 35476 35393 35557 35991 36450 36758 36816 36704 36298 35993 35929 35985 36122 36202 36248 36168 35978 35764 35837 35777 35643 35550 36217 36374 35953 35617 35453 35344 35365 35470 35541 35523 35742 35874 35641 35637 35588 35622 35591 35677 36024 35954 35681 35455 35314 35293 35722 37019 37174 37362 37149 36823 36569 36427 36380 36495 36506 36385 36419 36263 36141 35971 35971 36079 36328 36555 36876 36966 36700 36309 36015 35805 35751 35738 35730 35868 35649 35551 35470 35434 35603 35911 36120 36451 36419 36363 36043 35849 35860 35796 35767 35895 36047 35848 35609 35437 35396 35500 35702 35984 36237 36488 36323 36052 35796 35700 35715 35763 35778 35770 35644 35599 35566 35559 35666 35898 36210 36260 36422 36385 36058 35860 35881 35830 35866 35859 35732 35503 35429 35209 35128 35146 35363 35654 36000 36098 35983 35532 35305 35205 35177 35197 35314 35410 35256 35231 35296 35377 35577 35837 36043 36252 36446 36390 35931 35704 35549 35496 35604 35726 35733 35582 35473 35336 35244 35256 35462 35749 36143 36362 36514 36259 36033 35856 35749 35799 35904 36053 36008 35785 35683 35634 35673 35807 35966 36132 36297 36544 36342 36161 36075 36011 35989 35993 36167 36175 36008 35883 35754 35715 35779 35887 36022 36445 36707 36571 36266 35968 35817 35816 35862 35980 36045 35834 35677 35635 35657 35752 35924 36115 36405 36494 36375 36116 36008 35901 35853 35886 36047 36190 36136 36026 35879 35926 35872 35895 36186 36626 36871 36781 36441 36097 35931 35836 35843 35914 36063 35946 35726 35529 35433 35408 35605 35841 36219 36362 36422 36216 35929 35742 35641 35706 35910 36020 35882 35878 35860 35748 35734 35822 36249 36480 36600 36706 36698 36502 36283 36141 36080 36204 36417 36329 36207 36111 35997 35874 35902 36133 36373 36516 36432 36315 36116 35881 35784 35824 36030 36216 36103 35999 35902 35881 35877 35973 36311 36729 36929 36961 37039 37073 37009 36800 36502 36311 36335 36232 36039 35935 35943 35879 35834 35968 36237 36341 36332 36529 36432 36200 35957 35895 36051 36158 36354 36199 36074 35989 35904 35836 35900 36174 36471 36326 36078 35975 36035 35995 35856 35952 35937 36018 35897 35940 36017 36105 36091 36135 36289 36473 36601 36458 36442 36510 36439 36213 36031 36038 36067 36019 36048 36327 36514 36532 36555 36633 36666 36870 36685 36502 36527 36514 36371 36145 35911 35823 35823 35764 35843 36017 36163 36206 36245 36311 36415 36400 36262 36231 36277 36264 36088 35884 35794 35896 35858 35772 35965 36050 36111 36077 36040 36082 36226 36430 36332 36248 36217 36153 36021 35953 35913 35863 35693 35652 35819 35928 36020 36012 36012 36069 36075 35974 35903 35903 35891 35733 35591 35537 35575 35422 35381 35475 35542 35705 35874 35969 36047 35993 36047 36099 36015 35970 36051 35972 35673 35537 35318 35221 35141 35237 35400 35594 35520 35444 35360 35390 35388 35363 35416 35554 35431 35140 34980 34780 34637 34588 34702 34969 35235 35404 35402 35543 35546 35463 35451 35485 35621 35723 35861 35776 35502 35130 34963 35115 35281 35543 35825 35727 35623 35677 35554 35508 35518 35602 35743 35866 35736 35437 35209 35087 35155 35263 35485 35769 35936 35977 35711 35588 35506 35408 35393 35473 35563 35396 35023 34895 34876 34917 35064 35330 35573 35688 35635 35385 35312 35313 35287 35306 35350 35412 35539 35265 34941 34859 34975 35095 35238 35555 35731 35689 35248 35031 34958 34983 35018 35120 35214 35262 34918 34268 34165 34363 34600 34815 35091 35141 35214 34879 34519 34353 34377 34515 34648 34866 35019 34975 34602 34432 34393 34458 34645 34981 35148 35255 35122 34729 34562 34589 34608 34616 34636 34711 34851 34522 34119 34076 34150 34393 34691 34920 35037 35130 35159 34796 34627 34597 34616 34720 34757 34843 34661 34251 34004 34148 34410 34677 34849 34910 34979 34919 34634 34436 34401 34474 34559 34685 34809 34691 34614 34553 34662 34795 35107 35323 35450 35514 35569 35221 34849 34634 34601 34614 34617 34729 34509 34337 34266 34301 34428 34686 34904 35064 35134 35339 35258 35074 34834 34793 34840 34930 35028 34650 34496 34519 34531 34586 34806 34928 34981 34950 34958 35028 34878 34673 34567 34532 34548 34564 34337 34249 34408 34575 34644 34805 34868 35036 35066 35077 35067 35024 34884 34798 34717 34715 34768 34471 34371 34568 34717 34797 34984 35160 35382 35331 35271 35153 35132 35082 34924 34797 34743 34782 34621 34615 34730 34952 35126 35286 35339 35445 35433 35399 35364 35394 35317 35043 34781 34647 34735 34450 34244 34345 34532 34619 34578 34622 34771 34847 34921 34889 34854 34927 34941 34850 34720 34744 34595 34466 34478 34590 34727 34818 34856 34822 34843 34908 35041 35141 35264 35194 34908 34576 34502 34365 34166 34204 34445 34722 34936 34979 34835 34741 34766 34866 35019 35190 35282 35338 35061 34812 34427 34153 34190 34465 34717 35022 35159 34948 34707 34782 34988 35155 35282 35362 35360 34828 34335 33903 33501 33521 33793 34090 34501 34787 34656 34248 34092 34224 34353 34452 34555 34677 34461 34171 33788 33601 33617 33824 34014 34315 34763 34900 34633 34465 34473 34509 34554 34638 34759 34804 34677 34283 34003 33910 33970 34177 34482 34841 34846 34605 34330 34271 34324 34470 34602 34677 34577 34425 34042 33624 33622 33828 34081 34293 34590 34896 34905 34801 34917 34942 35040 35147 35187 35129 35149 34697 34254 34133 34196 34372 34615 34977 35193 35117 34730 34634 34700 34874 34961 35002 34880 34914 34322 33819 33699 33892 34154 34440 34781 34894 34868 34712 34684 34792 34908 35001 35098 35103 35120 34697 34377 34467 34746 34981 35241 35468 35533 35490 35102 34840 34774 34796 34863 34961 35013 35071 34806 34315 34114 34180 34328 34622 34910 35053 35088 34755 34528 34506 34563 34604 34705 34811 34826 34744 34350 34070 34077 34187 34409 34659 34865 34956 34790 34574 34535 34579 34688 34787 34889 35082 34993 34466 34109 34246 34445 34667 34904 35000 35101 34975 34797 34690 34780 34774 34732 34755 34791 34674 34383 34084 34054 34187 34450 34824 35042 35290 35325 35266 35222 35161 35088 35202 35252 35311 35139 34686 34462 34385 34429 34628 34918 35157 35225 34930 34531 34444 34549 34686 34830 34934 34936 34832 34708 34566 34505 34555 34746 35148 35279 35256 35114 34959 34817 34796 34862 35025 35064 35045 34880 34827 34747 34704 34791 34964 35167 35328 35306 35121 34972 34855 34901 35061 35210 35288 35312 35113 35043 35070 35003 35021 35283 35639 35986 36057 35911 35668 35434 35319 35277 35106 35004 34865 34702 34693 34996 35080 35288 35657 35850 35948 36077 36267 36099 35816 35576 35385 35340 35376 35330 35197 35168 35268 35393 35497 35933 36131 36195 36063 36061 36071 36005 35867 35740 35545 35488 35442 35199 35193 35427 35515 35617 35900 35890 36131 36634 36547 36177 35656 35304 35115 35053 35055 35002 34977 34967 35065 35160 35190 35423 35637 35891 36080 36016 35964 35810 35557 35449 35475 35573 35573 35348 35296 35291 35235 35221 35355 35762 36231 36041 35920 35910 35821 35775 36040 36409 36759 37262 37553 37606 37578 37584 37606 37666 37764 37883 38068 38103 38074 37963 37632 37337 37234 37055 36933 36973 37211 37388 37401 37269 37104 37124 37308 37374 37447 37648 37837 37713 37627 37565 37648 37675 37636 37637 37592 37592 37465 37523 37697 37861 37941 37772 37609 37508 37264 36974 36712 36650 36755 36733 36883 37086 37254 37242 37228 37328 37418 37648 37487 37475 37582 37476 37094 36812 36946 36995 37028 37114 37193 37199 37119 37064 37227 37429 37590 37513 37468 37517 37470 37140 36793 36787 36838 36889 36947 36963 