46207 46879 47009 47077 47083 47131 47151 47170 47165 47192 47169 47157 47143 47067 47011 46963 46936 46913 46909 46877 46868 46881 46866 46862 46869 46879 46895 46907 46910 46863 46794 46749 46691 46688 46656 46645 46656 46654 46648 46652 46678 46680 46679 46701 46738 46687 46482 46435 46425 46426 46404 46393 46385 46380 46360 46376 46378 46389 46407 46422 46424 46413 46346 46255 46212 46181 46156 46153 46150 46158 46165 46153 46164 46152 46153 46208 40411 40402 40363 40283 40216 40176 40160 40144 40138 40122 40109 40105 40116 40114 40107 40092 40072 40020 39920 39720 39484 39199 38883 38598 38358 38116 37899 37687 37538 37358 37196 37066 36907 36774 36619 36338 36055 35792 35597 35435 35323 35211 35090 34956 34813 34710 34614 34553 34488 34440 34374 34224 34050 33923 33785 33673 33583 33532 33450 33363 33280 33242 33232 33248 33259 33245 33173 33016 32827 32708 32609 32588 32579 32599 32612 32624 32663 32708 32714 32755 32797 32863 32788 32603 32469 32380 32340 32328 32316 32307 32293 32277 32239 32200 32215 32244 32316 32353 32362 32318 32297 32277 32229 32154 32131 32140 32202 32188 32129 32086 32087 32070 31994 31843 31705 31598 31465 31394 31352 31349 31325 31363 31453 31592 31704 31757 31753 31738 31755 31799 31818 31740 31611 31489 31365 31335 31328 31366 31445 31418 31452 31631 31890 32144 32413 32645 32842 32955 32964 32964 32943 32925 32941 32989 32961 32899 32878 32919 33018 33253 33482 33650 33814 33868 33877 33870 33863 33900 33957 34008 34012 34019 34062 34130 34244 34373 34504 34633 34691 34721 34713 34738 34768 34820 34810 34790 34821 34875 34958 35062 35163 35286 35359 35442 35479 35516 35562 35585 35584 35547 35473 35416 35426 35456 35520 35611 35692 35769 35790 35799 35808 35809 35778 35766 35718 35671 35664 35728 35774 35833 35898 35995 36064 36111 36139 36145 36134 36096 36101 36099 36043 36020 36017 35963 35945 35995 36071 36112 36122 36151 36109 36098 36103 36087 36081 36086 36089 36146 36170 36229 36303 36348 36335 36358 36338 36344 36335 36374 36362 36348 36302 36281 36258 36329 36383 36459 36468 36433 36421 36377 36357 36334 36340 36340 36259 36229 36224 36267 36342 36410 36449 36480 36464 36450 36417 36392 36392 36402 36377 36311 36254 36214 36211 36249 36305 36376 36401 36425 36454 36453 36431 36441 36412 36355 36272 36223 36220 36229 36262 36328 36391 36403 36401 36435 36407 36395 36377 36364 36325 36276 36238 36234 36233 36295 36387 36431 36436 36427 36400 36392 36410 36425 36405 36382 36374 36386 36412 36456 36511 36554 36528 36536 36563 36616 36657 36703 36694 36653 36635 36665 36661 36688 36738 36777 36751 36781 36824 36854 36862 36881 36891 36859 36809 36810 36819 36828 36924 37009 37032 37047 37079 37101 37119 37138 37162 37135 37056 37031 37041 37057 37072 37125 37181 37200 37222 37243 37240 37220 37250 37260 37240 37217 37204 37224 37239 37256 37310 37323 37309 37318 37332 37343 37353 37378 37402 37373 37367 37383 37375 37381 37394 37413 37423 37403 37442 37475 37484 37530 37543 37520 37445 37410 37379 37361 37397 37452 37463 37469 37497 37512 37503 37477 37472 37452 37400 37335 37322 37320 37355 37371 37423 37430 37402 37390 37377 37355 37321 37309 37305 37218 37196 37216 37202 37230 37254 37279 37265 37216 37229 37213 37195 37209 37201 37112 37077 37083 37045 37043 37067 37118 37142 37112 37135 37173 37139 37146 37066 37030 36993 36909 36893 36886 36948 36988 37086 37104 37144 37182 37188 37193 37170 37142 37099 37070 37133 37183 37212 37242 37262 37269 37222 37213 37212 37223 37222 37244 37244 37178 37137 37164 37166 37161 37184 37212 37232 37204 37237 37259 37276 37308 37309 37289 37192 37150 37160 37146 37160 37213 37267 37284 37283 37297 37325 37333 37321 37314 37276 37231 37199 37194 37180 37225 37267 37299 37292 37271 37290 37315 37316 37347 37340 37308 37259 37242 37265 37243 37240 37283 37312 37306 37297 37328 37358 37387 37415 37404 37350 37262 37253 37262 37253 37292 37355 37388 37379 37394 37387 37362 37338 37330 37315 37295 37251 37243 37281 37282 37300 37315 37330 37318 37289 37326 37319 37343 37363 37388 37395 37313 37253 37230 37209 37207 37234 37282 37318 37295 37338 37340 37348 37351 37357 37341 37323 37262 37239 37272 37268 37301 37317 37344 37331 37278 37294 37307 37304 37310 37331 37341 37313 37265 37247 37215 37196 37229 37270 37307 37291 37306 37342 37343 37367 37374 37360 37357 37288 37257 37273 37277 37288 37336 37370 37380 37340 37344 37320 37282 37289 37309 37309 37268 37260 37261 37257 37246 37266 37302 37326 37295 37303 37332 37350 37350 37368 37365 37319 37237 37196 37228 37240 37240 37282 37324 37301 37275 37288 37259 37234 37216 37214 37201 37142 37142 37160 37154 37188 37194 37222 37210 37208 37230 37245 37229 37237 37273 37270 37213 37135 37110 37108 37109 37144 37166 37174 37206 37174 37216 37227 37209 37228 37226 37231 37233 37205 37221 37264 37292 37331 37369 37406 37410 37383 37404 37424 37418 37439 37446 37438 37380 37305 37277 37283 37297 37326 37349 37374 37363 37352 37398 37366 37371 37352 37360 37372 37330 37304 37347 37356 37347 37364 37399 37410 37379 37373 37461 37479 37515 37536 37545 37535 37461 37436 37434 37422 37390 37378 37417 37433 37408 37441 37471 37479 37467 37456 37440 37440 37373 37388 37429 37427 37440 37448 37462 37462 37440 37423 37435 37458 37460 37461 37473 37433 37403 37373 37377 37358 37414 37484 37519 37461 37457 37526 37575 37572 37582 37580 37569 37516 37507 37524 37502 37470 37470 37463 37447 37404 37400 37390 37387 37371 37376 37374 37338 37321 37262 37204 37125 37127 37141 37206 37228 37235 37277 37289 37295 37277 37244 37183 37141 37122 37144 37155 37153 37170 37206 37204 37176 37166 37142 37123 37127 37114 37124 37070 37043 37035 37028 36979 36978 36985 37017 37023 37048 37081 37096 37108 37084 37053 36998 36959 36949 36958 36973 36978 37002 37036 37084 37062 37057 37027 37001 36979 36983 36981 36963 36939 36928 36969 36930 36919 36888 36879 36903 36893 36918 36921 36952 36962 36955 36940 36852 36785 36774 36770 36757 36800 36829 36861 36864 36865 36872 36839 36826 36831 36826 36827 36819 36810 36802 36826 36818 36841 36870 36888 36916 36918 36945 36948 36971 36986 36995 36978 36910 36862 36860 36854 36889 36931 36971 37013 37015 37039 37066 37045 37023 37025 37023 37007 36985 36974 36985 37010 37049 37070 37089 37071 37066 37098 37106 37110 37127 37135 37139 37067 37024 37012 37006 36995 37038 37084 37151 37130 37164 37203 37228 37259 37275 37269 37268 37245 37252 37306 37350 37354 37376 37408 37440 37409 37441 37479 37491 37516 37542 37543 37536 37461 37449 37479 37468 37475 37498 37515 37542 37553 37601 37629 37600 37613 37595 37595 37581 37566 37557 37561 37594 37606 37621 37629 37632 37645 37634 37645 37717 37751 37746 37785 37802 37783 37778 37752 37651 37662 37659 37655 37707 37756 37787 37761 37761 37739 37720 37700 37702 37712 37725 37712 37649 37640 37620 37602 37590 37568 37588 37598 37574 37599 37608 37562 37511 37468 37425 37387 37369 37303 37281 37294 37305 37315 37348 37364 37362 37301 37295 37285 37253 37261 37258 37289 37278 37246 37187 37124 37057 37045 37057 37093 37127 37103 37144 37145 37158 37142 37137 37120 37122 37046 37028 37006 36991 36996 37007 37044 37040 37000 37043 37023 37009 37031 37054 37045 37017 36983 36964 36901 36878 36875 36902 36927 36940 36934 36995 36996 37006 37011 37015 37026 36957 36906 36915 36894 36888 36915 36933 36973 36940 36897 36913 36904 36907 36919 36945 36947 36911 36913 36956 36984 37050 37104 37172 37214 37202 37180 37193 37201 37203 37204 37177 37153 37087 37046 37047 37046 37051 37092 37134 37136 37074 37079 37056 37030 37026 37009 37021 36977 36960 36938 36912 36908 36920 36948 36988 37000 36982 37030 37024 37026 37009 36984 36945 36871 36806 36781 36768 36788 36821 36882 36928 36901 36848 36829 36777 36738 36735 36736 36743 36679 36645 36643 36608 36566 36573 36591 36632 36616 36603 36625 36617 36603 36566 36521 36462 36365 36348 36349 36331 36362 36420 36481 36527 36497 36460 36393 36350 36341 36340 36351 36325 36299 36279 36242 36212 36209 36246 36296 36321 36297 36349 36379 36418 36414 36371 36315 36286 36236 36229 36224 36229 36274 36353 36399 36367 36379 36358 36359 36365 36392 36440 36423 36403 36397 36345 36283 36276 36293 36356 36399 36421 36451 36478 36501 36503 36509 36472 36460 36437 36406 36402 36385 36393 36463 36507 36525 36515 36529 36560 36579 36615 36643 36667 36672 36650 36608 36592 36558 36575 36617 36673 36689 36716 36767 36766 36749 36759 36747 36743 36740 36710 36698 36699 36703 36726 36769 36815 36797 36814 36843 36855 36892 36907 36926 36912 36869 36789 36748 36714 36733 36765 36811 36841 36865 36869 36836 36803 36814 36803 36809 36810 36788 36788 36792 36787 36790 36817 36836 36842 36845 36870 36861 36885 36904 36922 36882 36848 36806 36754 36751 36767 36788 36844 36877 36890 36862 36812 36756 36742 36752 36767 36772 36764 36735 36714 36675 36635 36646 36684 36717 36716 36743 36745 36739 36723 36704 36670 36640 36596 36550 36518 36513 36543 36577 36616 36600 36567 36543 36522 36536 36552 36591 36610 36594 36554 36487 36426 36435 36431 36476 36504 36564 36575 36596 36570 36549 36546 36555 36565 36562 36549 36544 36570 36596 36603 36613 36638 36662 36657 36698 36722 36743 36791 36825 36806 36760 36714 36714 36731 36760 36781 36827 36868 36873 36843 36836 36828 36844 36880 36911 36911 36905 36885 36891 36894 36890 36904 36939 36980 36974 37024 37053 37070 37075 37072 37090 37076 37041 37021 37021 37028 37025 37056 37089 37086 37069 37069 37093 37089 37114 37143 37177 37165 37087 37021 36986 36989 36979 37006 37063 37080 37094 37100 37083 37038 37019 37028 37042 37021 37003 36962 36978 36955 36941 36958 36975 36960 36966 36983 36936 36937 36950 36923 36866 36799 36697 36680 36668 36678 36706 36734 36769 36751 36706 36644 36602 36570 36582 36584 36567 36554 36516 36473 36412 36367 36374 36387 36429 36412 36454 36439 36410 36398 36352 36334 36279 36241 36212 36216 36236 36261 36302 36288 36270 36240 36212 36187 36185 36199 36212 36210 36186 36083 35987 35937 35925 35940 35992 36047 36065 36074 36009 35912 35870 35853 35859 35872 35842 35826 35799 35807 35799 35796 35809 35841 35837 35870 35873 35841 35871 35904 35875 35855 35783 35721 35708 35728 35755 35798 35884 35912 35876 35840 35788 35812 35830 35866 35892 35916 35907 35875 35857 35858 35867 35917 35964 36019 36032 36073 36071 36047 36041 36036 36057 36070 36055 36080 36109 36113 36154 36175 36200 36231 36220 36243 36252 36267 36311 36353 36383 36305 36237 36206 36235 36226 36272 36346 36406 36441 36431 36391 36356 36363 36393 36414 36433 36405 36406 36431 36436 36438 36468 36496 36530 36511 36535 36567 36584 36616 36616 36603 36569 36516 36516 36526 36553 36573 36626 36678 36705 36659 36653 36657 36656 36690 36708 36744 36757 36732 36670 36627 36624 36651 36693 36757 36779 36790 36820 36795 36766 36750 36768 36792 36777 36756 36759 36750 36793 36804 36814 36832 36846 36852 36867 36874 36895 36918 36958 36964 36926 36878 36828 36823 36842 36870 36924 36971 37007 36999 36970 36941 36895 36900 36925 36943 36973 36960 36937 36876 36854 36841 36839 36887 36928 36939 36960 36992 36955 36884 36860 36852 36855 36844 36819 36796 36799 36831 36827 36852 36836 36859 36838 36838 36811 36798 36805 36833 36804 36748 36673 36611 36618 36621 36650 36683 36727 36772 36711 36669 36620 36579 36557 36595 36608 36632 36623 36583 36514 36468 36453 36463 36509 36555 36575 36578 36586 36525 36462 36417 36403 36429 36454 36433 36433 36429 36436 36441 36424 36445 36461 36492 36480 36498 36501 36502 36519 36519 36512 36500 36475 36455 36441 36460 36469 36518 36586 36617 36613 36608 36622 36627 36596 36622 36638 36659 36646 36626 36608 36570 36582 36616 36648 36675 36704 36715 36711 36635 36597 36590 36605 36627 36643 36633 36606 36610 36589 36600 36629 36668 36689 36703 36705 36697 36707 36727 36747 36738 36699 36654 36639 36646 36662 36688 36767 36807 36795 36760 36719 36701 36683 36707 36732 36771 36749 36707 36651 36632 36623 36642 36675 36731 36778 36779 36800 36769 36718 36718 36715 36724 36719 36696 36685 36696 36710 36736 36750 36767 36797 36809 36806 36797 36793 36815 36818 36805 36785 36693 36678 36658 36675 36697 36745 36796 36858 36818 36770 36715 36676 36669 36690 36714 36731 36721 36658 36579 36526 36507 36527 36600 36628 36656 36657 36640 36603 36556 36527 36506 36501 36451 36434 36438 36437 36479 36507 36542 36558 36523 36489 36449 36417 36408 36424 36458 36456 36359 36279 36212 36204 36237 36260 36326 36404 36443 36414 36356 36289 36231 36227 36242 36278 36277 36267 36271 36286 36277 36292 36310 36349 36391 36386 36414 36422 36433 36418 36375 36351 36327 36289 36265 36299 36338 36366 36411 36471 36493 36474 36462 36449 36439 36455 36479 36526 36525 36537 36494 36512 36498 36522 36562 36594 36636 36646 36660 36662 36604 36605 36583 36580 36572 36586 36587 36637 36674 36725 36732 36749 36809 36825 36834 36852 36883 36911 36960 36985 36975 36903 36857 36840 36851 36867 36899 36920 36946 36927 36947 36949 36937 36940 36974 36999 37031 37009 36981 37007 37009 36976 36973 37003 37012 37018 37026 37058 37059 37066 37064 37047 37005 36942 36933 36927 36940 36927 36912 36910 36902 36891 36845 36839 36861 36868 36899 36889 36915 36890 36800 36753 36741 36726 36722 36761 36803 36844 36846 36869 36834 36806 36791 36783 36778 36766 36731 36742 36754 36777 36720 36713 36707 36721 36735 36745 36758 36773 36779 36771 36742 36693 36618 36576 36606 36626 36616 36646 36682 36698 36677 36618 36602 36593 36587 36595 36618 36644 36620 36529 36448 36400 36375 36385 36415 36464 36503 36503 36490 36441 36365 36306 36287 36288 36299 36300 36261 36260 36284 36279 36269 36261 36268 36319 36374 36340 36381 36386 36317 36272 36249 36272 36274 36259 36250 36270 36308 36341 36346 36353 36360 36401 36415 36437 36435 36469 36497 36509 36500 36473 36443 36431 36432 36445 36440 36476 36524 36569 36554 36520 36555 36553 36591 36652 36711 36751 36741 36704 36689 36709 36752 36742 36765 36798 36834 36814 36856 36901 36900 36915 36944 36968 36981 36971 36964 37014 37052 37047 37030 37039 37057 37093 37107 37168 37229 37257 37277 37281 37278 37261 37236 37238 37277 37307 37295 37333 37345 37338 37330 37358 37368 37383 37390 37433 37474 37445 37355 37331 37331 37331 37299 37330 37345 37385 37383 37388 37405 37356 37353 37349 37377 37355 37298 37289 37315 37302 37277 37248 37264 37264 37277 37293 37327 37351 37372 37339 37302 37236 37186 37131 37105 37098 37088 37056 37048 37000 36965 36906 36892 36890 36909 36902 36918 36918 36883 36795 36719 36693 36683 36688 36696 36729 36784 36762 36738 36692 36644 36605 36585 36579 36594 36569 36555 36553 36527 36480 36471 36453 36466 36476 36458 36468 36487 36491 36451 36408 36390 36382 36363 36325 36354 36360 36378 36373 36393 36393 36368 36351 36400 36401 36423 36442 36473 36474 36427 36338 36339 36352 36367 36399 36433 36490 36553 36516 36463 36499 36502 36503 36510 36552 36561 36554 36555 36582 36578 36575 36581 36597 36638 36642 36649 36743 36765 36767 36756 36748 36749 36717 36743 36781 36793 36826 36847 36854 36872 36876 36844 36901 36926 36940 36971 36981 36970 36891 36841 36816 36838 36843 36843 36878 36922 36946 36902 36920 36904 36890 36907 36925 36949 36878 36871 36875 36884 36868 36847 36885 36899 36918 36879 36942 36980 36984 37005 36998 36946 36882 36860 36876 36913 36922 36945 36965 36990 36950 36951 36985 36987 37020 37056 37054 37052 36997 36929 36879 36890 36885 36870 36923 36974 36971 36964 36926 36861 36831 36833 36835 36842 36813 36787 36791 36792 36766 36740 36765 36784 36809 36784 36823 36825 36841 36832 36805 36790 36748 36700 36694 36704 36701 36725 36763 36785 36772 36715 36741 36766 36772 36814 36835 36866 36841 36762 36682 36671 36664 36665 36705 36746 36771 36788 36773 36757 36723 36697 36702 36728 36728 36697 36700 36729 36741 36743 36773 36809 36848 36851 36858 36896 36928 36935 36934 36902 36853 36803 36787 36792 36788 36800 36829 36874 36866 36826 36804 36789 36801 36837 36865 36878 36881 36877 36808 36781 36761 36769 36750 36807 36846 36845 36863 36855 36813 36807 36813 36823 36783 36757 36754 36758 36764 36795 36794 36824 36828 36849 36875 36878 36900 36920 36950 36982 36922 36883 36872 36888 36897 36911 36947 36991 37009 36985 37000 37019 37028 37054 37069 37086 37058 37050 37072 37072 37065 37061 37077 37110 37150 37176 37185 37246 37263 37255 37230 37207 37150 37113 37136 37153 37175 37208 37241 37251 37255 37232 37236 37258 37246 37265 37286 37288 37232 37123 37082 37060 37063 37093 37102 37139 37169 37138 37113 37072 37037 37020 37018 37026 37006 36962 36955 36915 36923 36889 36864 36881 36902 36886 36895 36927 36913 36919 36909 36867 36811 36763 36727 36719 36716 36739 36770 36806 36789 36761 36722 36693 36717 36724 36751 36770 36781 36698 36603 36518 36497 36476 36486 36535 36582 36615 36610 36565 36482 36436 36421 36423 36451 36452 36403 36393 36369 36374 36342 36322 36336 36357 36348 36359 36363 36351 36324 36281 36228 36194 36134 36108 36092 36113 36131 36184 36210 36210 36174 36122 36120 36101 36101 36120 36138 36130 36050 35948 35893 35873 35889 35916 35958 36011 36064 36009 35979 35889 35858 35857 35881 35895 35879 35847 35861 35837 35823 35831 35853 35899 35945 35933 35948 35946 35951 35918 35859 35826 35788 35756 35742 35766 35801 35832 35893 35904 35924 35864 35866 35858 35883 35896 35938 35959 35951 35855 35779 35746 35774 35788 35856 35923 35988 36052 36015 35991 35977 35965 35984 36011 36056 36097 36134 36142 36084 36035 36029 36028 36054 36098 36177 36224 36287 36251 36194 36149 36147 36181 36215 36239 36262 36311 36346 36346 36309 36328 36327 36361 36359 36379 36365 36401 36418 36458 36480 36511 36549 36539 36562 36616 36652 36683 36690 36677 36645 36592 36578 36609 36630 36658 36713 36765 36792 36764 36735 36761 36779 36816 36841 36875 36894 36856 36810 36796 36791 36814 36841 36892 36935 36964 36964 36983 36995 36983 36983 37000 37013 36994 36978 36993 37018 37044 37065 37077 37107 37138 37135 37172 37192 37215 37231 37259 37247 37202 37166 37165 37166 37150 37206 37244 37277 37302 37266 37251 37275 37275 37321 37355 37367 37391 37304 37263 37248 37236 37245 37276 37331 37348 37320 37351 37337 37311 37295 37287 37280 37292 37244 37231 37239 37236 37196 37190 37204 37227 37236 37224 37255 37269 37265 37265 37225 37193 37110 37056 37054 37051 37057 37077 37091 37051 37033 36978 36865 36923 36912 36935 36958 36982 36931 36781 36697 36672 36656 36661 36709 36746 36800 36783 36673 36615 36553 36509 36506 36493 36521 36481 36404 36387 36325 36293 36311 36352 36407 36434 36445 36436 36424 36363 36307 36279 36268 36237 36190 36217 36209 36216 36208 36200 36218 36243 36209 36203 36230 36245 36264 36281 36265 36211 36149 36106 36115 36137 36193 36233 36285 36285 36261 36205 36199 36207 36234 36283 36312 36315 36245 36172 36145 36155 36183 36252 36317 36380 36389 36375 36390 36344 36319 36347 36370 36403 36382 36387 36373 36375 36372 36392 36446 36499 36526 36526 36580 36594 36593 36606 36636 36638 36610 36582 36609 36629 36671 36737 36772 36798 36790 36763 36831 36837 36885 36955 36986 36995 36970 36924 36878 36943 36962 36996 37061 37108 37156 37124 37135 37146 37155 37189 37255 37281 37302 37271 37235 37247 37271 37327 37375 37433 37483 37488 37497 37545 37550 37562 37583 37596 37583 37524 37547 37567 37573 37586 37590 37613 37619 37592 37614 37643 37673 37681 37677 37667 37594 37518 37541 37552 37578 37603 37638 37651 37629 37589 37532 37551 37542 37535 37564 37560 37520 37366 37262 37203 37148 37155 37185 37227 37264 37241 37160 37090 37000 36947 36919 36918 36888 36786 36776 36738 36682 36669 36666 36678 36737 36739 36750 36756 36722 36666 36590 36543 36477 36394 36378 36382 36394 36429 36454 36426 36410 36353 36351 36328 36315 36310 36341 36310 36210 36079 36032 36013 36046 36083 36145 36205 36257 36207 36136 36108 36066 36057 36078 36088 36095 36071 36023 35986 35962 35964 36018 36061 36125 36145 36151 36181 36141 36101 36099 36107 36108 36087 36080 36073 36102 36118 36121 36129 36153 36159 36167 36229 36211 36238 36255 36235 36236 36180 36139 36161 36169 36203 36265 36308 36334 36272 36248 36293 36292 36294 36337 36366 36378 36304 36283 36318 36351 36336 36378 36409 36486 36511 36475 36504 36549 36550 36570 36613 36643 36579 36559 36569 36590 36609 36619 36658 36707 36721 36741 36815 36910 36964 37011 37056 37087 37084 37095 37113 37137 37196 37239 37294 37311 37350 37331 37333 37383 37399 37443 37439 37439 37377 37312 37317 37305 37333 37363 37392 37412 37397 37330 37325 37337 37334 37368 37355 37349 37316 37256 37208 37140 37134 37186 37195 37230 37238 37224 37219 37151 37092 37047 37028 37000 36972 36917 36921 36923 36891 36889 36876 36876 36875 36840 36840 36827 36821 36726 36658 36566 36448 36395 36408 36413 36422 36475 36507 36452 36374 36304 36293 36270 36255 36271 36296 36196 36046 35913 35877 35859 35883 35944 35999 36040 36010 35906 35788 35693 35648 35651 35675 35675 35624 35569 35543 35494 35472 35502 35568 35623 35622 35642 35637 35594 35542 35496 35467 35420 35366 35383 35396 35419 35479 35528 35521 35475 35443 35475 35478 35520 35553 35565 35481 35374 35344 35349 35382 35442 35502 35600 35667 35637 35612 35598 35607 35639 35687 35728 35734 35719 35736 35772 35791 35828 35872 35949 35964 35969 36037 36059 36044 36033 36045 36038 35949 35968 36027 36071 36145 36191 36216 36264 36274 36312 36379 36420 36466 36509 36517 36460 36416 36388 36450 36482 36519 36553 36637 36713 36694 36724 36753 36767 36812 36856 36871 36829 36794 36800 36806 36803 36813 36844 36888 36939 36929 37010 37024 37041 37056 37054 37071 37017 37025 37035 37073 37100 37090 37122 37143 37183 37160 37243 37261 37311 37326 37317 37275 37178 37133 37134 37150 37160 37212 37273 37293 37246 37171 37186 37146 37179 37191 37237 37253 37148 36984 36924 36877 36888 36983 37080 37157 37148 37126 37093 37015 36967 36964 36963 36968 36943 36866 36847 36832 36773 36739 36715 36750 36768 36752 36733 36728 36649 36571 36505 36489 36478 36408 36338 36321 36320 36344 36373 36382 36408 36396 36335 36361 36345 36330 36336 36271 36220 36132 36009 35980 35980 36022 36076 36149 36196 36177 36052 36037 36007 36033 36055 36103 36132 36059 35918 35867 35896 35926 35976 36029 36108 36171 36174 36170 36126 36090 36081 36102 36151 36127 36093 36135 36138 36143 36168 36186 36240 36307 36324 36330 36420 36390 36384 36373 36369 36341 36299 36319 36359 36382 36394 36407 36420 36465 36492 36497 36594 36640 36674 36701 36707 36677 36590 36580 36613 36646 36676 36714 36770 36794 36816 36834 36889 36940 36982 37040 37072 37088 37035 36995 37019 37010 37014 37032 37067 37108 37124 37114 37158 37170 37173 37146 37143 37122 37059 37070 37114 37101 37120 37146 37160 37184 37233 37225 37311 37356 37359 37347 37311 37279 37217 37203 37235 37258 37239 37254 37242 37236 37272 37252 37242 37264 37267 37270 37281 37257 37210 37106 37063 37036 37018 37027 37049 37089 37088 37014 36984 36939 36942 36932 36945 36931 36923 36830 36723 36618 36581 36567 36593 36651 36711 36753 36744 36675 36569 36521 36493 36504 36504 36485 36448 36390 36304 36243 36211 36261 36308 36337 36339 36321 36331 36288 36239 36216 36189 36129 36088 36076 36094 36129 36168 36186 36211 36197 36185 36153 36145 36146 36162 36152 36087 35961 35872 35832 35844 35870 35937 36004 36098 36112 36062 35984 35975 35965 35965 35979 36003 36020 35939 35848 35769 35751 35786 35851 35930 35998 36022 36005 35941 35888 35891 35906 35928 35932 35924 35909 35947 35950 35958 35989 36049 36093 36140 36175 36185 36201 36191 36156 36133 36111 36087 36081 36102 36143 36209 36268 36290 36290 36297 36287 36303 36332 36375 36417 36456 36422 36359 36294 36290 36290 36333 36376 36464 36533 36534 36490 36465 36467 36497 36511 36532 36520 36498 36458 36412 36403 36421 36482 36534 36607 36637 36661 36652 36621 36603 36591 36605 36601 36566 36534 36556 36589 36606 36611 36643 36692 36718 36731 36751 36735 36755 36745 36702 36673 36605 36566 36577 36596 36636 36695 36753 36782 36721 36668 36668 36657 36693 36714 36743 36742 36647 36524 36472 36466 36478 36542 36596 36679 36689 36642 36577 36488 36452 36446 36472 36489 36449 36384 36373 36321 36268 36277 36303 36369 36428 36444 36449 36433 36378 36321 36282 36255 36212 36135 36095 36110 36141 36206 36226 36239 36264 36213 36215 36164 36128 36143 36173 36128 35986 35827 35762 35790 35820 35892 35969 36065 36116 36048 35955 35837 35776 35789 35804 35843 35849 35822 35705 35627 35594 35619 35675 35756 35874 35942 35947 35900 35785 35726 35714 35741 35759 35729 35710 35716 35751 35734 35744 35783 35852 35896 35941 35969 35968 35992 36006 35982 35958 35942 35870 35883 35901 35965 36033 36109 36140 36176 36153 36141 36183 36217 36242 36309 36349 36341 36260 36209 36213 36248 36307 36369 36451 36541 36586 36563 36550 36529 36558 36583 36619 36656 36660 36601 36577 36610 36658 36715 36797 36868 36961 37038 37088 37099 37097 37103 37111 37142 37174 37171 37140 37190 37224 37238 37276 37312 37351 37386 37409 37445 37477 37511 37489 37466 37452 37421 37393 37412 37437 37452 37510 37548 37572 37587 37560 37566 37596 37617 37648 37674 37693 37642 37538 37504 37488 37525 37534 37577 37610 37670 37656 37610 37556 37517 37506 37516 37571 37596 37573 37520 37445 37448 37420 37406 37443 37477 37524 37528 37547 37478 37384 37324 37304 37290 37299 37262 37208 37218 37235 37177 37146 37132 37129 37121 37113 37086 37057 37062 37008 36949 36849 36749 36714 36735 36725 36778 36831 36869 36830 36722 36665 36589 36569 36565 36582 36599 36583 36464 36351 36296 36257 36308 36350 36422 36476 36500 36444 36296 36184 36127 36122 36134 36144 36123 36115 36133 36121 36099 36120 36160 36209 36223 36260 36253 36270 36257 36211 36176 36133 36085 36095 36138 36170 36200 36255 36275 36279 36235 36247 36264 36283 36306 36359 36375 36342 36256 36225 36214 36214 36245 36301 36390 36427 36424 36438 36444 36463 36485 36523 36563 36562 36575 36632 36668 36700 36753 36807 36878 36903 36941 37003 37056 37083 37115 37129 37139 37085 37093 37156 37219 37280 37334 37377 37425 37418 37449 37522 37575 37634 37651 37688 37711 37612 37606 37644 37670 37701 37741 37787 37835 37808 37762 37779 37766 37749 37786 37815 37817 37736 37717 37741 37745 37723 37744 37780 37825 37822 37813 37873 37872 37839 37817 37810 37801 37698 37665 37686 37705 37761 37782 37760 37787 37747 37722 37765 37788 37833 37848 37842 37755 37630 37580 37585 37622 37677 37738 37792 37839 37725 37645 37540 37486 37454 37440 37435 37407 37296 37171 37075 37016 37028 37108 37200 37270 37301 37296 37242 37139 37067 36995 36996 36961 36966 36946 36944 36972 36996 36977 36973 36939 36890 36938 36955 36979 37023 36992 36889 36739 36603 36554 36521 36540 36587 36650 36723 36666 36558 36458 36327 36244 36220 36211 36236 36228 36101 35949 35824 35801 35813 35878 35931 36015 36070 36048 35950 35829 35787 35780 35829 35858 35861 35831 35822 35790 35779 35767 35829 35878 35929 35966 35972 35974 35991 35971 35956 35936 35921 35939 35966 36023 36080 36148 36193 36234 36263 36296 36334 36335 36364 36411 36459 36448 36371 36323 36379 36422 36461 36525 36576 36639 36716 36725 36748 36760 36815 36870 36938 36971 36950 36932 36937 36949 36955 36992 37033 37080 37132 37143 37203 37204 37232 37250 37268 37267 37230 37223 37270 37307 37340 37394 37423 37456 37474 37474 37539 37556 37602 37618 37616 37604 37489 37484 37522 37551 37602 37639 37670 37700 37707 37691 37696 37671 37702 37726 37742 37749 37707 37634 37614 37597 37592 37634 37684 37725 37729 37764 37757 37715 37694 37673 37672 37665 37601 37609 37614 37602 37580 37586 37615 37637 37652 37639 37633 37638 37638 37613 37547 37480 37385 37341 37327 37293 37275 37328 37368 37353 37319 37233 37196 37140 37162 37164 37177 37166 37046 36891 36786 36743 36763 36808 36877 36953 36980 36920 36802 36661 36572 36536 36510 36524 36494 36485 36416 36338 36267 36241 36252 36285 36343 36369 36346 36297 36176 36076 36003 35976 35952 35898 35867 35884 35922 35997 36024 36024 36043 36060 36046 36005 35981 35977 35965 35872 35787 35673 35670 35696 35730 35834 35948 36039 36049 35949 35887 35817 35790 35811 35846 35895 35901 35806 35706 35678 35676 35717 35817 35938 36010 36026 36040 35938 35888 35859 35896 35946 35948 35928 35936 35975 36057 36144 36210 36287 36319 36332 36370 36358 36362 36333 36292 36273 36280 36226 36198 36253 36267 36342 36423 36468 36465 36463 36463 36478 36505 36529 36560 36576 36491 36350 36318 36315 36351 36428 36531 36630 36641 36600 36577 36536 36554 36605 36662 36666 36642 36609 36631 36624 36695 36743 36849 36923 36949 36977 37036 37006 36952 36946 36933 36889 36816 36847 36893 36935 36997 37039 37087 37122 37073 37110 37119 37121 37137 37170 37148 37084 36944 36888 36882 36900 36956 37016 37079 37094 37023 36989 36985 37007 37036 37093 37129 37152 37008 36877 36862 36857 36915 36977 37079 37141 37140 37079 37025 36924 36901 36927 36963 36996 36954 36898 36905 36866 36823 36849 36906 36983 37025 36996 37021 37027 36982 36926 36898 36899 36869 36835 36828 36864 36902 36936 36943 36946 36978 36955 36957 36966 36949 36969 36970 36924 36843 36708 36601 36571 36581 36644 36764 36875 36889 36826 36753 36714 36700 36727 36726 36757 36753 36634 36475 36409 36408 36474 36562 36687 36759 36766 36681 36550 36417 36365 36367 36431 36462 36435 36435 36431 36372 36352 36367 36418 36513 36539 36552 36568 36528 36474 36414 36429 36450 36374 36355 36408 36457 36500 36552 36559 36585 36548 36558 36574 36580 36622 36681 36690 36663 36532 36470 36486 36523 36591 36682 36765 36826 36766 36690 36656 36644 36671 36701 36759 36805 36796 36676 36632 36629 36668 36730 36810 36895 36951 36953 36914 36829 36776 36784 36829 36861 36856 36822 36831 36813 36774 36768 36815 36878 36909 36878 36936 36945 36947 36929 36893 36885 36816 36778 36780 36793 36826 36914 36934 36952 36931 36860 36887 36898 36915 36971 37014 36968 36810 36757 36760 36835 36924 37029 37125 37188 37142 37013 36965 36935 36960 36994 37035 37034 36934 36897 36885 36854 36890 36935 37022 37028 37017 37029 37017 36967 36930 36935 36954 36916 36877 36872 36904 36951 37004 37004 37002 37021 36947 36945 36956 36962 37013 36991 36932 36867 36772 36757 36805 36855 36925 36984 37040 37010 36901 36840 36851 36846 36877 36932 36976 36989 36785 36599 36532 36520 36570 36633 36690 36802 36831 36712 36612 36513 36503 36527 36573 36610 36578 36540 36513 36453 36434 36438 36485 36553 36606 36578 36597 36525 36430 36384 36405 36428 36433 36373 36386 36415 36449 36490 36521 36555 36551 36527 36568 36582 36613 36662 36657 36608 36529 36431 36435 36492 36563 36688 36782 36881 36838 36761 36762 36744 36769 36834 36884 36924 36945 36777 36716 36753 36802 36860 36964 37066 37167 37141 37095 37067 37040 37062 37103 37145 37178 37109 37086 37092 37117 37160 37222 37268 37390 37453 37446 37504 37495 37475 37480 37504 37509 37504 37389 37407 37460 37522 37562 37550 37588 37634 37604 37623 37673 37701 37768 37779 37769 37737 37602 37593 37656 37722 37757 37819 37845 37875 37832 37790 37797 37793 37799 37818 37823 37795 37704 37514 37446 37499 37541 37609 37706 37804 37812 37687 37612 37542 37485 37506 37523 37529 37552 37376 37224 37185 37186 37231 37314 37392 37454 37456 37422 37297 37184 37103 37101 37129 37151 37087 37014 37023 36971 36935 36913 36937 36977 36943 36879 36944 36911 36809 36706 36668 36698 36647 36602 36610 36626 36674 36706 36712 36724 36706 36628 36590 36585 36556 36555 36516 36450 36335 36213 36176 36197 36253 36313 36417 36462 36421 36278 36209 36172 36173 36204 36262 36326 36277 36055 35872 35841 35876 35971 36067 36179 36278 36275 36160 36066 36048 36049 36077 36142 36207 36216 36076 35891 35855 35857 35930 36041 36194 36331 36344 36276 36226 36122 36110 36141 36201 36254 36214 36158 36165 36113 36113 36166 36232 36310 36345 36317 36375 36361 36336 36310 36344 36384 36370 36271 36293 36350 36429 36525 36580 36688 36751 36747 36766 36778 36813 36859 36886 36881 36843 36737 36707 36715 36731 36792 36868 36894 36884 36834 36787 36841 36870 36927 36977 37021 37053 36940 36873 36847 36873 36912 36985 37053 37137 37162 37105 37102 37076 37080 37130 37166 37224 37214 37144 37087 37056 37056 37062 37130 37197 37276 37246 37277 37283 37245 37242 37246 37282 37280 37213 37235 37284 37304 37329 37351 37363 37399 37390 37356 37410 37427 37457 37417 37402 37365 37273 37271 37272 37304 37346 37399 37424 37422 37382 37352 37373 37374 37383 37403 37455 37386 37259 37176 37130 37124 37169 37255 37344 37450 37444 37374 37268 37219 37194 37220 37227 37239 37229 37171 37079 37037 37023 37041 37118 37188 37225 37225 37193 37092 36981 36908 36871 36864 36824 36805 36756 36782 36762 36734 36762 36815 36851 36835 36825 36816 36801 36751 36662 36567 36477 36388 36358 36379 36423 36523 36605 36613 36602 36580 36519 36513 36536 36576 36600 36591 36528 36441 36361 36327 36367 36414 36477 36558 36668 36655 36549 36497 36446 36438 36459 36476 36525 36546 36476 36388 36346 36345 36393 36473 36564 36675 36700 36701 36654 36591 36556 36565 36599 36612 36635 36621 36622 36597 36579 36622 36706 36788 36845 36868 36892 36904 36861 36815 36845 36858 36891 36890 36866 36895 36946 36966 37012 37069 37115 37156 37163 37179 37214 37226 37203 37179 37157 37148 37123 37098 37131 37222 37272 37358 37367 37415 37395 37381 37422 37443 37470 37489 37473 37406 37324 37272 37273 37270 37314 37405 37489 37540 37487 37407 37401 37392 37403 37436 37453 37449 37396 37309 37250 37223 37245 37315 37415 37490 37515 37446 37360 37263 37209 37222 37223 37233 37230 37195 37176 37131 37122 37128 37194 37278 37324 37329 37326 37324 37275 37215 37162 37108 37101 37063 37048 37051 37075 37091 37068 37046 37092 37106 37068 37095 37111 37120 37039 36888 36795 36720 36678 36683 36713 36774 36834 36868 36833 36733 36631 36612 36592 36591 36611 36619 36522 36310 36119 36061 36072 36153 36268 36414 36525 36484 36328 36139 36025 36011 36032 36076 36098 36056 35917 35742 35658 35675 35769 35914 36060 36139 36152 36063 35892 35765 35715 35737 35776 35790 35788 35798 35805 35787 35781 35829 35924 35977 35965 35969 35939 35914 35860 35819 35834 35853 35843 35837 35872 35942 36056 36124 36180 36218 36195 36186 36216 36233 36309 36347 36311 36217 36150 36104 36141 36203 36299 36405 36528 36545 36479 36414 36405 36424 36479 36534 36571 36573 36496 36462 36477 36540 36648 36741 36826 36890 36909 36886 36802 36756 36760 36795 36832 36826 36783 36785 36838 36846 36898 36939 37012 37012 37027 37008 37028 37034 37018 36976 36941 36877 36838 36894 36973 37060 37156 37214 37217 37160 37141 37119 37148 37185 37230 37269 37158 37050 36980 37003 37062 37109 37224 37331 37403 37415 37297 37194 37151 37162 37187 37198 37146 37123 37150 37169 37196 37211 37303 37366 37417 37442 37404 37336 37245 37184 37166 37162 37141 37138 37197 37247 37274 37279 37275 37291 37271 37224 37157 37123 37112 37148 37076 37009 36884 36789 36782 36793 36839 36919 37006 36949 36794 36672 36605 36584 36591 36660 36692 36707 36535 36335 36196 36180 36258 36357 36458 36585 36650 36543 36348 36163 36099 36112 36172 36229 36246 36198 36060 35910 35850 35895 35978 36083 36158 36178 36110 35894 35679 35572 35519 35577 35621 35588 35518 35497 35488 35474 35466 35499 35586 35615 35631 35580 35563 35527 35395 35302 35283 35202 35119 35062 35047 35068 35125 35120 35111 35124 35092 35058 35011 35026 35087 35135 35117 35058 34937 34912 34918 34971 35062 35202 35328 35366 35292 35255 35182 35187 35247 35308 35390 35455 35360 35216 35170 35228 35311 35421 35541 35673 35780 35735 35617 35521 35488 35522 35583 35658 35716 35672 35537 35460 35472 35536 35666 35833 35989 36041 36084 36030 35941 35948 35963 36033 36088 36069 36112 36130 36142 36135 36146 36172 36265 36340 36381 36404 36385 36355 36307 36310 36327 36335 36323 36331 36355 36407 36441 36475 36502 36537 36559 36581 36577 36615 36658 36702 36673 36629 36536 36512 36542 36567 36610 36707 36798 36819 36765 36740 36735 36741 36785 36830 36893 36917 36841 36721 36683 36685 36728 36778 36843 36949 37008 36911 36828 36733 36729 36745 36783 36836 36824 36788 36732 36642 36596 36590 36645 36741 36841 36863 36886 36856 36736 36675 36666 36693 36717 36663 36637 36640 36636 36578 36572 36613 36708 36721 36748 36755 36749 36745 36678 36595 36591 36493 36452 36429 36408 36435 36511 36540 36550 36550 36500 36453 36428 36387 36387 36419 36361 36224 36044 35953 35953 35995 36070 36184 36320 36437 36379 36275 36161 36094 36101 36131 36160 36194 36103 35894 35718 35625 35643 35739 35860 35995 36114 36142 35957 35709 35572 35566 35596 35647 35638 35598 35533 35457 35368 35360 35419 35514 35623 35671 35682 35630 35529 35419 35379 35366 35341 35284 35262 35263 35300 35329 35315 35311 35367 35422 35430 35438 35405 35403 35415 35379 35323 35264 35237 35253 35291 35372 35459 35534 35544 35547 35514 35483 35417 35403 35444 35502 35559 35496 35341 35259 35280 35312 35406 35526 35678 35789 35767 35722 35674 35612 35631 35656 35726 35809 35835 35679 35559 35484 35465 35513 35606 35757 35888 35939 35908 35775 35696 35716 35776 35847 35887 35861 35859 35784 35736 35774 35830 35929 36031 36132 36193 36218 36119 36019 35990 35996 36061 36027 35991 36002 36026 36048 36063 36085 36120 36189 36209 36245 36210 36231 36249 36191 36154 36130 36033 36053 36095 36148 36194 36290 36303 36298 36282 36298 36284 36266 36296 36351 36405 36374 36187 36111 36108 36148 36222 36345 36458 36555 36500 36399 36346 36322 36318 36369 36410 36469 36462 36323 36198 36069 36052 36093 36206 36354 36487 36542 36451 36247 36079 36007 36025 36067 36090 36044 36037 35916 35762 35718 35750 35869 36001 36102 36151 36177 36014 35844 35701 35715 35740 35772 35712 35697 35672 35715 35713 35697 35731 35814 35875 35865 35830 35756 35724 35606 35491 35445 35426 35312 35293 35303 35355 35458 35529 35513 35541 35503 35470 35458 35412 35409 35437 35383 35233 35019 34955 34979 35065 35196 35349 35524 35554 35508 35395 35335 35250 35255 35295 35352 35437 35414 35237 35072 35036 35105 35212 35329 35459 35603 35592 35459 35311 35195 35209 35280 35361 35446 35436 35343 35218 35167 35185 35311 35430 35568 35684 35746 35742 35633 35491 35436 35460 35516 35601 35599 35640 35654 35626 35622 35650 35714 35815 35907 35948 35968 36004 35949 35861 35838 35836 35876 35840 35861 35896 35942 36015 36043 36081 36141 36204 36230 36223 36242 36226 36208 36144 36099 36096 36066 36032 36072 36099 36152 36246 36286 36326 36372 36364 36372 36389 36398 36448 36479 36473 36437 36356 36293 36299 36370 36422 36526 36652 36723 36707 36654 36579 36575 36578 36597 36644 36683 36687 36558 36411 36365 36404 36440 36516 36607 36703 36743 36632 36513 36466 36426 36447 36487 36536 36585 36550 36377 36254 36182 36205 36273 36381 36496 36608 36601 36462 36307 36176 36119 36140 36174 36189 36149 36103 35993 35863 35806 35849 35943 36067 36172 36176 36139 35976 35699 35558 35522 35544 35592 35563 35516 35511 35500 35459 35460 35540 35641 35745 35753 35744 35670 35633 35549 35448 35389 35391 35322 35273 35261 35276 35324 35380 35343 35337 35338 35304 35254 35200 35163 35187 35202 35099 34981 34842 34823 34905 35020 35188 35372 35535 35573 35457 35328 35242 35192 35199 35214 35271 35308 35116 34934 34863 34917 35045 35207 35387 35543 35658 35614 35491 35358 35312 35341 35389 35444 35511 35476 35437 35381 35384 35420 35522 35646 35765 35833 35857 35831 35690 35591 35586 35597 35639 35643 35647 35672 35755 35792 35826 35881 35945 36010 36047 36079 36120 36160 36141 36090 36056 36022 35968 35985 36048 36107 36147 36227 36230 36249 36237 36219 36247 36250 36273 36339 36329 36272 36145 36082 36095 36155 36231 36309 36436 36538 36545 36472 36407 36407 36395 36433 36459 36510 36538 36415 36242 36198 36255 36309 36402 36496 36590 36672 36582 36447 36397 36349 36378 36399 36436 36496 36495 36365 36239 36201 36226 36307 36409 36531 36645 36676 36564 36405 36224 36146 36133 36207 36245 36252 36202 36139 36069 36018 36044 36128 36235 36296 36310 36287 36243 36086 35966 35918 35925 35960 35911 35888 35897 35962 35978 35959 35992 36052 36095 36071 36044 35979 35957 35894 35791 35741 35737 35732 35638 35629 35661 35761 35824 35814 35821 35832 35765 35758 35755 35809 35888 35903 35811 35732 35584 35508 35537 35594 35734 35896 35980 35930 35815 35687 35627 35569 35572 35593 35639 35664 35507 35318 35250 35271 35357 35479 35611 35753 35840 35752 35594 35492 35430 35433 35470 35545 35596 35588 35453 35358 35383 35452 35598 35771 35936 36081 36099 36046 35937 35857 35858 35880 35923 35971 35901 35901 35868 35796 35793 35832 35930 36053 36139 36187 36147 36020 35897 35879 35906 35976 36007 36007 36065 36097 36061 36062 36081 36168 36291 36382 36400 36408 36374 36307 36230 36203 36222 36213 36187 36212 36250 36307 36362 36385 36436 36463 36454 36442 36454 36446 36456 36440 36394 36354 36298 36272 36269 36289 36353 36452 36514 36479 36470 36416 36361 36365 36370 36394 36451 36453 36381 36273 36182 36164 36207 36305 36423 36545 36609 36549 36451 36373 36332 36326 36351 36383 36422 36363 36177 36019 35960 36002 36101 36243 36389 36520 36527 36315 36141 36022 36003 36007 36064 36141 36111 35978 35794 35688 35686 35779 35925 36070 36174 36208 36060 35841 35644 35561 35549 35626 35683 35657 35609 35577 35505 35491 35536 35644 35760 35833 35812 35776 35651 35448 35300 35256 35314 35343 35342 35324 35360 35422 35431 35452 35487 35556 35554 35489 35434 35392 35364 35259 35193 35156 35118 35091 35092 35115 35207 35356 35407 35406 35392 35304 35244 35217 35208 35249 35309 35281 35217 35120 35040 35064 35171 35300 35457 35607 35657 35582 35420 35335 35318 35351 35384 35456 35523 35478 35290 35183 35176 35264 35404 35561 35721 35858 35852 35707 35589 35545 35557 35609 35717 35821 35849 35788 35679 35660 35685 35809 35940 36073 36185 36207 36132 36041 35966 35953 35994 36053 36124 36121 36095 36124 36112 36144 36183 36270 36359 36425 36415 36395 36379 36276 36225 36217 36258 36318 36308 36297 36345 36411 36462 36525 36609 36698 36774 36754 36694 36688 36669 36589 36519 36500 36500 36488 36523 36595 36714 36821 36864 36882 36901 36960 37007 36987 37005 37014 37052 37001 36938 36903 36873 36804 36838 36889 36975 37077 37108 37107 37150 37090 37092 37095 37107 37145 37174 37119 36994 36838 36715 36742 36816 36910 36994 37045 36987 36834 36632 36512 36457 36409 36403 36432 36475 36389 36100 35882 35792 35814 35894 36006 36135 36256 36250 35990 35716 35501 35432 35437 35486 35554 35601 35416 35100 34906 34904 35026 35163 35318 35401 35415 35261 34950 34698 34578 34605 34703 34819 34863 34841 34766 34629 34557 34554 34633 34780 34945 35102 35182 35129 34909 34714 34602 34582 34651 34670 34651 34673 34716 34703 34690 34717 34798 34907 34980 34962 34893 34817 34677 34522 34449 34459 34479 34467 34509 34584 34662 34740 34707 34690 34753 34806 34797 34816 34789 34784 34738 34664 34613 34599 34510 34458 34530 34639 34809 35004 35043 35057 35025 34964 34938 34933 34957 35000 35029 34989 34895 34733 34665 34765 34906 35100 35299 35472 35533 35439 35363 35299 35308 35343 35390 35446 35531 35431 35279 35201 35249 35323 35442 35598 35743 35850 35824 35699 35583 35554 35587 35634 35711 35779 35797 35760 35700 35664 35691 35740 35867 35953 36031 36044 35977 35864 35777 35741 35761 35816 35856 35860 35914 35928 35916 35885 35890 35964 36063 36141 36162 36108 36119 36074 36027 35977 35981 36003 35993 35936 35933 35986 36033 36043 36057 36113 36212 36222 36210 36231 36232 36245 36174 36107 36074 35986 35950 35936 35998 36119 36243 36322 36318 36320 36289 36241 36226 36205 36228 36260 36208 36084 35950 35877 35886 35939 36013 36133 36271 36351 36287 36141 36002 35934 35883 35907 35950 35996 35992 35750 35520 35395 35410 35510 35622 35769 35905 35966 35795 35508 35300 35185 35187 35237 35312 35384 35346 35136 34896 34830 34877 34972 35142 35330 35429 35460 35274 34993 34795 34737 34764 34848 34918 34930 34882 34798 34708 34682 34695 34791 34942 35060 35111 35071 34994 34813 34641 34563 34569 34646 34657 34631 34573 34622 34692 34694 34704 34768 34857 34941 34887 34813 34789 34708 34558 34468 34493 34531 34510 34467 34521 34620 34758 34808 34840 34905 34994 35018 34946 34937 34926 34940 34859 34777 34740 34670 34581 34597 34711 34854 35016 35106 35110 35123 35127 35054 35056 35102 35136 35172 35162 35096 35005 34869 34850 34917 35079 35206 35387 35511 35481 35336 35236 35206 35228 35234 35251 35295 35312 35118 34946 34929 35044 35211 35421 35610 35799 35943 35868 35695 35570 35507 35549 35603 35665 35711 35663 35452 35290 35284 35358 35473 35641 35764 35875 35872 35808 35632 35518 35462 35478 35534 35562 35517 35465 35472 35495 35495 35528 35603 35719 35834 35829 35705 35669 35572 35450 35414 35435 35478 35408 35299 35315 35416 35545 35607 35644 35696 35774 35786 35678 35648 35635 35632 35534 35459 35448 35392 35291 35267 35372 35490 35696 35828 35819 35814 35787 35697 35651 35623 35636 35666 35655 35536 35361 35164 35094 35150 35250 35393 35559 35697 35638 35520 35299 35203 35157 35169 35205 35283 35343 35254 34955 34697 34652 34739 34880 35062 35238 35391 35431 35118 34790 34605 34557 34608 34695 34778 34806 34744 34562 34406 34408 34493 34673 34863 35036 35097 35023 34880 34621 34445 34383 34441 34516 34558 34499 34407 34389 34359 34364 34393 34476 34614 34726 34731 34626 34578 34551 34439 34378 34373 34434 34467 34402 34394 34508 34715 34834 34849 34861 34919 34993 34949 34933 34945 34988 34974 34898 34841 34788 34745 34789 34933 35090 35269 35421 35445 35400 35333 35256 35236 35223 35255 35292 35348 35310 35152 34971 34877 34891 35000 35155 35345 35518 35623 35528 35345 35223 35199 35227 35301 35363 35426 35423 35332 35161 35084 35143 35229 35375 35552 35682 35706 35647 35441 35296 35223 35229 35270 35342 35353 35337 35281 35272 35207 35204 35279 35423 35574 35621 35577 35560 35531 35423 35325 35287 35304 35322 35325 35296 35312 35377 35435 35431 35463 35557 35653 35664 35620 35595 35606 35615 35557 35468 35430 35384 35338 35336 35381 35462 35558 35644 35650 35675 35631 35569 35494 35491 35539 35598 35657 35575 35426 35316 35217 35234 35333 35430 35555 35725 35827 35768 35590 35462 35391 35405 35400 35429 35469 35463 35294 35061 34973 34969 35040 35169 35338 35516 35675 35574 35298 35040 34887 34866 34866 34944 35001 34995 34894 34674 34474 34428 34526 34698 34908 35060 35021 34863 34666 34385 34221 34205 34259 34331 34282 34159 34159 34221 34206 34215 34285 34411 34525 34477 34332 34244 34234 34228 34125 34048 34016 33964 33864 33833 33914 34058 34236 34310 34271 34286 34256 34081 33981 33962 33998 34048 34020 33866 33690 33513 33543 33658 33819 34030 34277 34487 34497 34282 33982 33864 33871 33928 34015 34117 34191 34095 33807 33694 33752 33920 34141 34349 34556 34713 34765 34569 34319 34198 34214 34283 34379 34415 34366 34275 34298 34305 34339 34465 34591 34749 34865 34833 34714 34652 34609 34500 34450 34468 34496 34407 34300 34333 34500 34696 34837 34859 34916 34958 34910 34850 34810 34837 34860 34913 34835 34718 34556 34471 34539 34733 34900 35107 35295 35352 35236 35007 34842 34789 34789 34802 34859 34925 34914 34701 34571 34623 34774 34968 35162 35348 35468 35463 35330 35114 34980 34939 34941 35008 35041 34946 34864 34897 35015 35105 35212 35311 35425 35509 35464 35362 35295 35285 35232 35135 35100 35076 35011 34909 34951 35065 35215 35410 35551 35569 35560 35450 35362 35347 35344 35391 35439 35489 35379 35111 34885 34855 34965 35154 35330 35527 35665 35695 35437 35116 34932 34872 34922 34979 35090 35130 35147 35091 34994 35116 35322 35508 35682 35838 35981 35981 35857 35594 35284 35092 35013 35065 35101 35096 35057 35042 35072 35034 35000 34991 35092 35179 35206 35110 35022 35001 34981 34866 34754 34693 34639 34564 34542 34592 34717 34887 34960 34872 34836 34762 34616 34514 34471 34496 34560 34619 34480 34219 34011 33991 34111 34291 34475 34675 34832 34807 34506 34160 34001 33994 34073 34182 34290 34335 34309 34082 33927 33972 34116 34305 34494 34636 34693 34601 34522 34333 34192 34125 34132 34204 34226 34155 34128 34209 34357 34421 34448 34485 34583 34621 34592 34596 34581 34637 34588 34478 34412 34343 34282 34271 34384 34544 34736 34909 34869 34756 34606 34510 34484 34519 34580 34668 34762 34769 34533 34312 34287 34400 34560 34762 34952 35105 35166 35023 34750 34563 34509 34583 34716 34826 34866 34851 34773 34697 34666 34706 34816 34952 35121 35236 35228 35187 35159 35051 34949 34900 34905 34961 34952 34938 34977 35057 35161 35174 35148 35174 35197 35174 35109 35071 35097 35176 35214 35137 34975 34871 34865 34947 35100 35260 35436 35583 35633 35462 35183 35098 35060 35106 35169 35247 35286 35264 35139 35025 34992 35081 35218 35401 35565 35651 35662 35636 35499 35326 35225 35215 35267 35274 35242 35223 35258 35355 35424 35435 35417 35395 35299 35249 35217 35249 35299 35362 35296 35121 34898 34863 34921 35035 35186 35347 35491 35603 35430 35139 34986 34910 34932 34989 35055 35114 35060 35048 34946 34891 34977 35096 35265 35412 35404 35318 35271 35202 35050 34921 34912 34952 34911 34831 34908 35045 35276 35475 35517 35489 35392 35233 35136 35080 35091 35129 35192 35173 34936 34670 34678 35017 35438 35770 36042 36254 36181 35905 35489 35132 34945 34948 35037 35124 35130 34985 34851 34817 34872 34952 35052 35178 35247 35185 35109 35038 35027 34956 34864 34853 34811 34764 34758 34823 34960 35132 35322 35328 35235 35059 34874 34795 34818 34867 34934 35011 34969 34626 34415 34439 34657 34840 35052 35222 35335 35325 35185 35011 34891 34879 34910 35001 35084 34990 34937 34888 34928 35000 35088 35196 35294 35306 35274 35216 35182 35194 35159 35111 35081 35008 34972 34990 35062 35234 35415 35538 35531 35469 35329 35210 35241 35272 35342 35403 35478 35408 35140 34976 34964 35096 35283 35491 35668 35841 35879 35702 35479 35326 35287 35346 35405 35479 35438 35395 35416 35449 35506 35526 35634 35792 35877 35844 35817 35809 35787 35719 35692 35623 35628 35555 35523 35571 35657 35807 35867 35861 35877 35856 35848 35780 35773 35781 35829 35851 35693 35508 35440 35416 35484 35607 35730 35862 35983 35971 35778 35521 35366 35365 35384 35443 35495 35461 35460 35376 35249 35252 35317 35426 35583 35700 35758 35744 35635 35491 35334 35228 35202 35196 35224 35253 35300 35379 35432 35380 35278 35254 35238 35193 35092 35069 35083 35111 35035 34881 34752 34689 34764 34891 35092 35269 35438 35584 35534 35325 35023 34948 34910 34993 35070 35150 35162 35157 35020 34922 34909 35014 35139 35274 35392 35445 35424 35263 35113 35008 34985 35038 35054 35086 35121 35163 35243 35302 35292 35290 35331 35350 35368 35290 35272 35290 35310 35231 35139 35081 35163 35275 35374 35484 35565 35643 35706 35666 35551 35478 35443 35454 35489 35546 35583 35550 35538 35489 35459 35503 35582 35700 35819 35954 35989 36050 35923 35791 35715 35685 35703 35730 35737 35797 35921 35936 35899 35865 35883 35941 35991 36036 36048 36021 36030 35915 35780 35690 35614 35686 35771 35802 35905 36042 36171 36158 36066 35967 35860 35818 35786 35793 35827 35857 35808 35671 35594 35614 35645 35709 35796 35930 36062 36120 36005 35737 35562 35482 35498 35556 35596 35652 35744 35783 35689 35605 35553 35582 35705 35782 35832 35753 35701 35628 35439 35321 35298 35296 35310 35370 35426 35485 35587 35648 35579 35511 35453 35393 35277 35227 35223 35259 35280 35122 34862 34697 34704 34761 34867 35039 35181 35339 35369 35181 34886 34657 34621 34652 34736 34831 34853 34803 34659 34493 34463 34601 34771 34936 35072 35150 35136 34926 34683 34498 34427 34530 34620 34743 34871 35005 35117 35207 35256 35300 35395 35479 35538 35532 35499 35438 35424 35295 35132 35065 35048 35095 35184 35267 35366 35465 35526 35484 35427 35380 35336 35267 35292 35327 35406 35472 35433 35278 35171 35175 35227 35333 35478 35582 35709 35738 35553 35312 35169 35149 35224 35299 35359 35401 35449 35444 35407 35409 35452 35516 35617 35715 35739 35656 35576 35529 35458 35414 35419 35405 35424 35460 35550 35658 35795 35837 35814 35817 35823 35789 35714 35703 35738 35780 35792 35686 35509 35410 35456 35510 35644 35823 35963 36051 35947 35713 35501 35326 35271 35286 35319 35383 35394 35404 35314 35221 35254 35357 35491 35644 35736 35765 35707 35547 35313 35157 35081 35086 35112 35077 35059 35060 35089 35165 35209 35241 35246 35225 35150 35071 34974 34957 34943 34813 34703 34534 34505 34563 34656 34822 34983 35145 35178 35030 34813 34618 34489 34461 34518 34573 34644 34655 34406 34168 34084 34147 34343 34530 34733 34890 34978 34890 34568 34271 34146 34129 34188 34257 34254 34312 34363 34291 34273 34292 34337 34449 34560 34580 34513 34451 34379 34234 34150 34138 34195 34181 34168 34225 34292 34426 34500 34442 34435 34499 34538 34499 34456 34474 34531 34585 34499 34376 34209 34174 34209 34313 34485 34621 34789 34861 34704 34540 34389 34376 34449 34527 34610 34713 34725 34491 34284 34273 34412 34609 34800 34992 35161 35258 35200 34971 34776 34702 34725 34774 34875 34914 34904 34891 34869 34859 34951 35068 35225 35349 35421 35444 35377 35154 34963 34844 34842 34898 34909 34886 34909 34966 35075 35201 35251 35298 35369 35338 35293 35210 35174 35168 35091 34995 34939 34848 34804 34832 34933 35092 35225 35357 35322 35224 35109 35055 35030 35069 35114 35201 35268 35179 34944 34810 34832 34943 35094 35280 35445 35544 35506 35244 34945 34749 34725 34771 34860 34922 34935 34935 34880 34852 34866 34941 35075 35190 35238 35189 35090 34951 34749 34589 34559 34587 34567 34534 34521 34604 34738 34792 34768 34749 34751 34700 34636 34558 34502 34520 34519 34392 34240 34074 34062 34134 34285 34467 34646 34810 34757 34533 34289 34141 34057 34090 34157 34240 34321 34197 33923 33737 33811 34066 34308 34521 34721 34839 34876 34617 34260 34025 33955 34013 34086 34158 34169 34173 34171 34120 34125 34195 34323 34462 34532 34537 34485 34455 34358 34265 34231 34250 34279 34220 34237 34325 34446 34610 34712 34750 34725 34696 34601 34564 34528 34570 34619 34568 34470 34349 34340 34396 34552 34756 34915 35043 35140 35052 34893 34774 34672 34685 34708 34775 34843 34854 34652 34445 34438 34536 34705 34902 35083 35239 35296 35220 34997 34811 34772 34778 34856 34918 34941 34921 34962 34929 34926 34979 35060 35206 35313 35325 35329 35265 35054 34852 34791 34806 34826 34837 34874 34932 34952 35057 35072 35087 35112 35118 35090 35086 35043 35046 35085 35058 34938 34789 34705 34723 34798 34928 35124 35344 35467 35410 35293 35169 35102 35075 35064 35094 35147 35156 35031 34799 34686 34763 34939 35097 35261 35416 35534 35436 35172 34901 34762 34723 34773 34824 34826 34857 34792 34665 34651 34712 34839 35002 35168 35257 35253 35153 34924 34700 34591 34620 34694 34690 34658 34710 34807 34885 34880 34823 34833 34918 35010 34947 34850 34799 34782 34624 34444 34353 34293 34256 34312 34386 34514 34685 34763 34742 34754 34727 34675 34647 34619 34629 34674 34692 34531 34347 34172 34196 34308 34471 34643 34824 34967 34892 34693 34464 34299 34241 34243 34303 34403 34506 34392 34124 33974 33968 34123 34357 34577 34785 34943 34984 34727 34410 34214 34200 34272 34388 34478 34485 34470 34323 34221 34241 34359 34525 34712 34818 34844 34837 34713 34557 34478 34489 34534 34576 34565 34546 34611 34712 34754 34748 34781 34842 34865 34858 34847 34839 34887 34865 34779 34721 34724 34679 34670 34668 34789 34913 35020 34981 34934 34943 34955 34887 34910 34886 34913 34984 34882 34787 34780 34824 34864 34901 34908 34918 34959 34989 34910 34882 34893 34919 34945 34936 34955 34972 34988 34842 34710 34696 34751 34821 34877 34925 34969 35044 34981 34827 34773 34792 34892 34981 35056 35103 35163 35180 35085 34989 34948 34962 34995 34990 34994 35012 35053 34907 34792 34765 34804 34875 34912 34912 34985 35020 34941 34749 34646 34646 34695 34765 34849 34918 34960 35003 34909 34739 34594 34544 34503 34500 34523 34564 34594 34497 34313 34219 34266 34361 34432 34486 34490 34479 34433 34246 34103 34079 34174 34310 34348 34277 34200 34118 33838 33584 33446 33412 33414 33427 33424 33396 33438 33505 33451 33381 33329 33337 33326 33297 33266 33270 33259 33127 32985 32963 33008 33002 33014 32976 32897 32818 32585 32322 32203 32225 32315 32404 32459 32476 32470 32392 32297 32333 32433 32490 32504 32521 32524 32554 32559 32483 32376 32345 32354 32385 32343 32246 32086 31971 31808 31594 31507 31562 31573 31566 31589 31641 31730 31815 31879 31910 31988 32078 32136 32177 32197 32153 32221 32304 32183 31888 31645 31516 31452 31438 31465 31569 31656 31501 31335 31195 31262 31440 31605 31753 31887 31962 31971 31847 31758 31703 31686 31688 31589 31399 31228 31107 31020 30972 31034 31182 31249 31181 31116 31080 31143 31321 31348 31402 31504 31529 31512 31487 31503 31559 31564 31571 31370 31089 30872 30728 30746 30872 30997 31133 31120 30915 30735 30675 30720 30871 31037 31186 31290 31321 31303 31176 31069 31033 31001 31061 30987 30850 30700 30647 30598 30624 30748 30923 30973 30942 30793 30719 30768 30866 30844 30798 30860 30967 31017 31035 31021 31023 30999 31005 30835 30627 30463 30441 30496 30631 30745 30894 30975 30850 30605 30484 30503 30584 30659 30667 30745 30810 30842 30727 30659 30686 30720 30754 30770 30667 30539 30472 30407 30398 30546 30730 30899 30970 30943 30821 30807 30840 30807 30737 30754 30846 30941 31035 31112 31107 31110 31045 30911 30805 30689 30579 30568 30655 30800 30953 31082 31034 30901 30841 30822 30855 30881 30935 30959 31044 31143 31138 31099 31159 31243 31329 31358 31317 31234 31073 30790 30579 30641 30844 31061 31224 31325 31319 31274 31173 31075 31010 30968 30993 31081 31202 31319 31399 31428 31362 31383 31397 31427 31290 31086 30882 30754 30796 30957 31036 31115 31206 31243 31261 31175 31188 31258 31319 31303 31179 31155 31207 31271 31326 31333 31349 31348 31380 31222 30911 30649 30600 30722 30917 31092 31243 31328 31314 31169 31020 31013 31077 31131 31120 31158 31221 31212 31192 31106 31040 31055 31057 31099 31034 30859 30711 30646 30687 30752 30882 31068 31190 31170 31102 31038 31052 31115 31077 30931 30933 31028 31120 31170 31213 31256 31285 31312 31144 30828 30614 30532 30630 30834 30997 31147 31257 31224 30954 30737 30684 30819 31001 31128 31199 31215 31229 31266 31151 31087 31067 31072 31076 31001 30838 30748 30800 30938 30986 31038 31137 31132 31075 31005 31016 31096 31206 31260 31225 31256 31341 31342 31408 31476 31609 31698 31661 31461 31090 30789 30761 30943 31162 31377 31513 31531 31472 31310 31149 31136 31197 31216 31272 31371 31454 31496 31482 31413 31422 31429 31491 31388 31201 31036 30955 31025 31145 31285 31249 31189 31133 31091 31064 31060 31198 31269 31271 31271 31251 31197 31192 31284 31416 31544 31641 31491 31306 31129 30895 30736 30794 30993 31195 31299 31309 31273 31317 31335 31343 31240 31091 31097 31180 31204 31165 31159 31212 31243 31294 31192 30969 30779 30703 30732 30840 30966 31097 31182 31199 31012 30795 30748 30831 30915 31001 31137 31263 31347 31348 31279 31181 31191 31245 31270 31178 31010 30835 30726 30777 30886 30897 31001 31111 31157 31105 31045 31021 31124 31235 31308 31315 31288 31282 31287 31332 31458 31537 31545 31412 31233 30966 30687 30674 30860 31093 31297 31409 31333 31245 31129 31038 30905 30870 30950 31086 31253 31420 31518 31484 31565 31700 31721 31526 31207 30944 30768 30728 30854 31034 31237 31438 31381 31241 31167 31158 31227 31298 31336 31372 31438 31519 31452 31277 31183 31186 31218 31275 31322 31228 31049 30933 30903 30901 30988 31159 31379 31545 31547 31463 31349 31349 31425 31374 31326 31418 31547 31615 31657 31692 31701 31708 31698 31622 31364 31068 30912 30959 31108 31231 31315 31385 31420 31341 31205 31113 31175 31294 31412 31464 31504 31610 31711 31734 31604 31477 31393 31397 31393 31262 31077 30979 31051 31205 31299 31261 31264 31232 31123 31060 31073 31140 31198 31281 31400 31388 31359 31371 31400 31419 31403 31364 31252 31205 31195 31044 30749 30595 30698 30902 31109 31271 31414 31541 31637 31625 31447 31333 31346 31380 31400 31471 31556 31622 31662 31609 31600 31463 31375 31413 31299 31164 30992 30957 31060 31197 31335 31378 31214 31067 31026 31058 31150 31203 31223 31243 31306 31384 31313 31225 31196 31268 31322 31381 31288 31094 30929 30871 30933 30968 31003 31140 31202 31137 31055 31004 31021 31075 31165 31236 31177 31175 31203 31243 31225 31246 31255 31269 31214 31092 30873 30753 30870 31030 31088 31050 30932 30909 30965 31130 31321 31340 31384 31462 31549 31757 31947 32130 32250 32392 32505 32429 32281 31995 31759 31576 31503 31448 31400 31422 31482 31571 31642 31734 31751 31804 31892 31984 32137 32295 32394 32469 32456 32249 31995 31747 31598 31519 31481 31472 31475 31529 31658 31755 31746 31707 31688 31603 31476 31394 31408 31459 31475 31510 31458 31372 31304 31287 31278 31225 31230 31197 31096 31044 31024 30918 30873 30918 30972 30953 30878 30780 30717 30745 30815 30873 30822 30783 30777 30778 30743 30705 30690 30685 30749 30768 30621 30380 30208 30176 30214 30285 30363 30386 30333 30197 30074 29969 29831 29795 29834 29933 30058 30148 30187 30178 30156 30191 30151 30028 29805 29641 29561 29554 29604 29673 29753 29805 29719 29442 29179 29081 29094 29134 29159 29258 29386 29525 29625 29663 29505 29318 29220 29236 29170 28993 28874 28806 28871 28978 29117 29117 28985 28849 28727 28656 28691 28764 28803 28806 28886 28989 28938 28821 28798 28798 28804 28836 28875 28762 28631 28510 28453 28418 28475 28613 28759 28815 28760 28646 28604 28621 28670 28720 28666 28670 28745 28818 28858 28854 28891 28908 28938 28880 28708 28455 28276 28343 28541 28737 28903 28977 28929 28832 28733 28749 28720 28634 28646 28779 28978 29122 29191 29189 29167 29187 29165 29050 28865 28697 28633 28689 28829 28999 29165 29281 29316 29232 28993 28852 28878 28913 28919 28996 29141 29309 29408 29452 29420 29333 29210 29180 29171 29032 28905 28857 28900 29028 29189 29305 29284 29158 29059 28986 29036 29070 29067 29073 29168 29324 29428 29379 29312 29243 29212 29233 29286 29228 29081 28980 28955 29027 29076 29114 29213 29285 29253 29167 29118 29143 29191 29201 29231 29229 29245 29266 29292 29326 29317 29299 29333 29338 29191 29049 28814 28702 28808 29016 29219 29414 29436 29327 29171 29135 29225 29274 29235 29214 29300 29391 29431 29424 29382 29366 29396 29521 29516 29192 28885 28780 28857 29052 29195 29276 29285 29183 29065 28961 28875 28846 28897 28991 29185 29386 29517 29529 29507 29521 29545 29548 29347 29016 28778 28688 28765 28897 29031 29142 29243 29219 29061 28870 28840 28868 28942 28951 28981 29072 29169 29221 29236 29220 29167 29067 29073 29033 28858 28711 28613 28671 28802 28964 29126 29122 28988 28860 28822 28888 28937 28962 28963 29065 29205 29272 29221 29067 29016 29093 29123 29097 28910 28731 28597 28632 28818 29026 29114 29144 29134 29099 29064 29029 29037 29098 29112 29158 29272 29293 29192 29126 29114 29130 29136 29143 29063 28897 28759 28737 28847 28907 28973 29086 29177 29204 29154 29119 29155 29174 29156 29155 29226 29220 29165 29153 29169 29189 29221 29204 29239 29157 29009 28891 28805 28815 28955 29115 29293 29392 29384 29314 29243 29255 29242 29236 29172 29154 29263 29332 29363 29384 29434 29440 29459 29388 29221 29067 28845 28777 28934 29176 29383 29500 29460 29361 29276 29266 29315 29282 29181 29204 29312 29421 29456 29443 29432 29468 29527 29565 29432 29103 28834 28782 28907 29099 29289 29427 29474 29398 29277 29232 29200 29120 29038 29085 29225 29349 29390 29349 29309 29330 29337 29359 29200 28912 28735 28686 28761 28919 29086 29247 29360 29354 29293 29092 28960 28933 28936 28935 29014 29110 29175 29171 29154 29105 29107 29030 28985 28916 28792 28668 28642 28721 28852 28996 29114 29183 29038 28810 28712 28770 28803 28840 28875 28974 29090 29166 29197 29078 28846 28729 28689 28720 28623 28515 28440 28481 28652 28829 29027 29112 29147 29113 29069 29059 29108 29151 29158 29223 29359 29490 29498 29389 29296 29297 29243 29209 29128 28961 28808 28778 28899 29074 29136 29215 29306 29332 29305 29261 29280 29309 29311 29311 29351 29451 29399 29362 29385 29409 29468 29587 29599 29437 29300 29261 29343 29507 29614 29794 29998 30157 30242 30251 30240 30190 30120 30229 30562 30838 31010 31153 31333 31423 31413 31314 31102 30869 30640 30474 30392 30355 30340 30392 30507 30613 30578 30410 30382 30462 30578 30619 30656 30577 30424 30356 30446 30566 30584 30579 30516 30373 30201 30056 29978 29958 29955 30047 30215 30396 30484 30424 30423 30489 30522 30497 30479 30421 30278 30174 30188 30227 30390 30602 30764 30743 30514 30279 30056 29906 29777 29726 29783 29837 29746 29683 29611 29552 29545 29565 29590 29642 29561 29510 29520 29515 29500 29460 29469 29479 29348 29201 29122 29104 29033 29055 29179 29312 29305 29215 29065 28995 29039 29135 29193 29236 29153 29091 29112 29134 29136 29155 29178 29273 29226 29064 28901 28726 28558 28622 28778 28947 29049 29004 28887 28790 28802 28879 28959 28913 28842 28866 28941 29016 29041 29085 29097 29141 29180 29034 28840 28616 28433 28476 28643 28802 28969 29010 28930 28794 28763 28806 28843 28757 28692 28753 28872 29015 29106 29095 29125 29139 29168 29070 28825 28514 28347 28436 28651 28850 29019 29057 28992 28841 28783 28828 28863 28819 28818 28919 29084 29185 29252 29255 29297 29321 29339 29264 28909 28569 28423 28521 28738 28947 29081 29172 29124 29061 29003 28974 28851 28767 28782 28883 29043 29152 29195 29198 29259 29309 29432 29476 29178 28812 28547 28460 28574 28758 28914 29028 29108 29103 29041 28901 28821 28812 28789 28848 28966 29100 29173 29228 29247 29288 29302 29178 29008 28765 28580 28503 28550 28685 28846 28983 29106 29088 28982 28811 28718 28713 28749 28791 28846 28950 29057 29125 29189 29191 29152 29050 28978 28828 28642 28510 28510 28624 28788 28936 29070 29112 28951 28719 28671 28741 28812 28847 28884 28959 29046 29120 29173 29270 29308 29229 29246 29281 29113 28901 28719 28691 28810 28931 29054 29142 29011 28791 28690 28724 28826 28901 28926 28993 29144 29263 29317 29362 29295 29243 29270 29389 29328 29106 28895 28782 28825 29004 29162 29299 29209 28973 28832 28792 28913 29030 29107 29144 29248 29414 29515 29541 29414 29317 29290 29360 29431 29338 29122 28911 28844 28986 29184 29368 29381 29285 29177 29103 29096 29159 29269 29411 29600 29816 30040 30161 30091 29891 29731 29626 29537 29483 29424 29305 29157 29039 29037 29150 29227 29305 29435 29538 29555 29525 29402 29429 29529 29667 29786 29859 29746 29652 29652 29736 29785 29796 29762 29767 29632 29437 29231 29086 29051 29184 29395 29634 29800 29779 29712 29601 29606 29669 29795 29878 30012 30167 30256 30235 30168 30104 30087 30095 30085 29928 29714 29383 29136 29199 29395 29624 29803 29837 29719 29636 29618 29629 29706 29681 29687 29801 29948 30019 30033 29991 29938 29925 29988 30026 29789 29406 29100 29072 29259 29482 29665 29760 29691 29596 29487 29441 29391 29320 29306 29426 29584 29716 29799 29834 29806 29864 30033 30220 29964 29461 29010 28813 28895 29106 29285 29408 29426 29349 29295 29206 29084 29027 29075 29257 29487 29680 29788 29812 29802 29821 29811 29669 29313 28960 28700 28621 28724 28912 29080 29225 29299 29273 29171 28961 28863 28927 28999 29162 29331 29454 29462 29449 29380 29396 29309 29219 29092 28896 28704 28616 28678 28821 28976 29120 29154 29029 28807 28625 28591 28671 28796 29008 29254 29516 29652 29606 29444 29370 29306 29377 29451 29289 29033 28863 28869 28986 29083 29186 29292 29344 29469 29661 29894 30085 30309 30459 30685 30974 31257 31487 31577 31576 31585 31623 31610 31518 31452 31551 31713 31806 31837 31756 31582 31382 31163 30992 30838 30651 30570 30606 30677 30706 30682 30522 30399 30481 30654 30804 30809 30774 30644 30410 30160 29981 29897 29866 29918 30036 30116 30064 30014 29871 29787 29764 29831 29939 29948 29930 29921 29963 29974 30004 30006 30052 30048 29902 29705 29453 29248 29232 29322 29462 29618 29649 29596 29510 29425 29472 29564 29501 29411 29410 29474 29542 29535 29529 29568 29658 29616 29424 29191 28916 28796 28894 29044 29241 29384 29409 29342 29281 29174 29193 29307 29327 29399 29531 29572 29538 29470 29416 29407 29414 29464 29349 29014 28668 28545 28639 28833 29018 29143 29103 29010 28890 28806 28748 28655 28652 28752 28946 29116 29243 29226 29282 29394 29515 29528 29238 28831 28568 28524 28671 28852 28988 29086 29025 28928 28839 28727 28633 28601 28692 28901 29170 29340 29418 29424 29499 29589 29687 29568 29180 28840 28632 28609 28710 28868 29031 29195 29251 29180 29085 28887 28834 28890 28986 29134 29303 29414 29414 29404 29384 29379 29327 29266 29204 29033 28847 28763 28781 28906 29063 29199 29332 29375 29258 29151 29048 28973 29069 29241 29491 29775 30012 30142 30046 29850 29721 29639 29482 29221 29018 28862 28780 28894 29085 29318 29473 29378 29201 29061 29050 29144 29254 29365 29527 29717 29821 29818 29811 29641 29542 29527 29591 29507 29296 29083 28921 28914 29045 29230 29371 29272 29044 28866 28797 28831 28940 29042 29146 29364 29553 29652 29689 29552 29457 29366 29371 29256 29021 28775 28639 28689 28888 29085 29267 29273 29089 28906 28855 28843 28884 28991 29107 29285 29410 29376 29224 29081 28904 28786 28709 28673 28589 28481 28387 28381 28508 28689 28882 29033 28953 28801 28703 28662 28677 28711 28757 28843 28962 29087 29151 29164 29060 28989 28906 28905 28775 28606 28458 28393 28465 28637 28814 28970 29027 28867 28722 28636 28613 28634 28689 28807 28967 29133 29236 29305 29331 29292 29155 29056 28963 28796 28616 28460 28445 28598 28812 29019 29154 29111 28934 28812 28736 28751 28894 29062 29262 29442 29559 29609 29582 29675 29743 29688 29462 29126 28847 28690 28705 28845 29020 29166 29278 29311 29172 29004 28913 28910 28963 29063 29199 29343 29419 29459 29483 29490 29564 29466 29360 29145 28887 28725 28685 28765 28920 29098 29269 29390 29381 29211 29041 28930 28912 28988 29079 29212 29336 29405 29449 29457 29437 29364 29233 29084 28866 28704 28616 28619 28757 28947 29131 29278 29321 29213 29066 28942 28925 29011 29095 29225 29376 29428 29456 29464 29443 29452 29304 29137 28947 28714 28548 28496 28573 28756 28942 29118 29284 29291 29109 28951 28894 28880 28924 28933 28969 29040 29100 29163 29251 29230 29105 28858 28694 28564 28398 28315 28308 28442 28626 28850 29022 29136 28990 28785 28657 28625 28652 28713 28791 28914 29027 29073 29092 29069 28987 28833 28734 28689 28539 28411 28336 28359 28484 28690 28864 29012 29014 28844 28726 28668 28643 28673 28767 28928 29081 29193 29308 29409 29499 29556 29338 29048 28806 28592 28476 28518 28664 28879 29084 29281 29431 29379 29249 29095 29028 28999 28994 29017 29130 29235 29323 29378 29392 29390 29296 29121 28952 28781 28648 28586 28634 28778 28940 29125 29281 29310 29143 28925 28810 28836 28894 28954 29101 29285 29372 29388 29386 29387 29387 29257 29063 28853 28662 28578 28614 28743 28960 29146 29295 29337 29300 29150 29017 28958 28991 29019 29115 29271 29366 29388 29377 29343 29275 29184 29038 28863 28666 28524 28540 28655 28865 29071 29249 29355 29333 29247 29067 28986 28946 28969 29036 29166 29276 29342 29342 29367 29333 29345 29310 29204 28989 28740 28605 28616 28748 28899 29072 29187 29202 29115 28968 28814 28748 28703 28765 28902 29083 29196 29187 29213 29344 29496 29652 29542 29264 28910 28613 28419 28421 28545 28693 28825 28920 29020 29107 28944 28755 28646 28621 28598 28664 28851 29049 29230 29356 29388 29338 29188 28871 28537 28309 28179 28230 28429 28648 28823 28977 29043 29052 28940 28770 28634 28575 28529 28572 28685 28795 28834 28860 28842 28831 28750 28612 28393 28169 28046 28050 28185 28348 28509 28709 28823 28752 28718 28667 28688 28746 28654 28650 28734 28818 28839 28849 28861 28849 28779 28646 28586 28434 28243 28134 28134 28251 28439 28655 28852 28981 28952 28796 28679 28637 28662 28664 28644 28692 28809 28904 28932 28892 28840 28678 28555 28507 28374 28233 28179 28219 28399 28604 28813 28951 28924 28693 28503 28475 28520 28550 28567 28655 28840 28942 29024 28959 28839 28608 28370 28286 28186 28077 28061 28177 28392 28662 28879 29051 29132 29032 28896 28736 28654 28656 28660 28728 28842 28913 28947 28928 28879 28799 28638 28532 28418 28259 28172 28193 28305 28488 28684 28878 29005 29051 28959 28854 28790 28753 28707 28714 28783 28867 28916 28990 28981 28899 28824 28763 28676 28512 28333 28306 28401 28543 28707 28858 28983 29051 29018 28863 28723 28666 28659 28667 28738 28859 28978 29044 29087 29084 29015 28970 28894 28742 28523 28377 28359 28481 28667 28843 28988 29057 28997 28906 28805 28685 28597 28583 28663 28846 29020 29143 29202 29167 29198 29171 29226 29136 28771 28476 28382 28457 28657 28851 29012 29111 29110 29017 28944 28908 28838 28731 28699 28812 28994 29151 29245 29275 29288 29313 29356 29344 29132 28812 28542 28489 28616 28821 29032 29192 29238 29176 29108 29020 29033 29024 29018 29104 29263 29456 29572 29624 29624 29739 29822 29837 29628 29378 29027 28718 28705 28894 29107 29288 29369 29289 29191 29069 28997 29110 29221 29311 29450 29564 29597 29535 29394 29297 29252 29276 29269 29145 28997 28878 28804 28912 29082 29183 29120 29036 28943 28858 28775 28802 28862 29050 29276 29568 29878 30163 30377 30330 30088 29958 29934 30044 30187 30370 30452 30219 29962 30003 30269 30647 31109 31475 31689 31712 31602 31409 31268 31194 31150 31116 31044 30973 30954 31143 31416 31701 31927 32112 32253 32351 32117 31746 31523 31460 31476 31510 31476 31379 31449 31673 31942 32197 32316 32285 32162 31892 31690 31603 31648 31739 31788 31748 31678 31671 31747 31894 31961 32026 32093 32088 31940 31784 31738 31753 31824 31736 31443 31151 31094 31337 31602 31860 32043 32133 32147 31973 31800 31643 31480 31360 31274 31227 31214 31359 31559 31754 31961 32125 32214 32035 31682 31385 31258 31277 31317 31341 31257 31217 31351 31535 31715 31867 31852 31680 31410 31262 31218 31249 31313 31338 31358 31370 31453 31527 31612 31655 31685 31714 31665 31539 31430 31370 31407 31449 31492 31315 31150 31092 31236 31467 31716 31894 31954 31892 31768 31637 31523 31393 31297 31242 31198 31325 31553 31785 31999 32177 32241 32225 32004 31764 31661 31732 31769 31814 31891 32017 32150 32306 32479 32658 32694 32616 32401 32265 32270 32320 32407 32443 32485 32523 32575 32532 32494 32482 32542 32571 32571 32526 32458 32491 32560 32639 32654 32554 32390 32320 32370 32445 32535 32723 32829 32875 32804 32742 32657 32593 32558 32573 32619 32644 32703 32780 32886 33013 33162 33159 32966 32700 32552 32506 32560 32680 32731 32759 32762 32774 32794 32807 32838 32916 32919 32872 32808 32779 32798 32860 32898 32891 32748 32542 32453 32476 32598 32790 32949 33039 32996 32915 32829 32706 32583 32514 32468 32475 32541 32630 32745 32882 33038 33159 33051 32760 32447 32280 32271 32325 32399 32471 32501 32540 32596 32611 32597 32584 32569 32498 32390 32309 32294 32345 32417 32453 32283 32087 32027 32136 32318 32508 32626 32693 32641 32515 32314 32083 31955 31937 31986 32015 32065 32142 32278 32414 32567 32616 32482 32211 31988 31915 31970 32063 32129 32177 32211 32254 32227 32210 32262 32329 32381 32380 32319 32257 32269 32303 32318 32225 32074 31989 32063 32165 32324 32501 32642 32719 32701 32476 32219 32087 32067 32096 32187 32249 32318 32452 32620 32776 32881 32831 32731 32586 32497 32471 32534 32605 32678 32704 32601 32532 32566 32711 32892 33029 33103 33114 33013 32921 32817 32682 32621 32641 32659 32654 32681 32776 32887 32982 33128 33073 32869 32658 32579 32615 32699 32821 32864 32902 32911 32854 32812 32815 32905 33036 33124 33150 33067 33012 32979 32930 32835 32747 32684 32697 32795 32919 33060 33227 33338 33311 33059 32745 32564 32530 32624 32725 32816 32835 32841 32804 32770 32794 32908 33006 33051 33034 32915 32824 32805 32794 32672 32510 32365 32300 32355 32538 32764 32968 33087 33064 32814 32401 32141 32180 32385 32604 32646 32559 32521 32514 32492 32522 32576 32674 32680 32578 32454 32391 32415 32426 32255 32054 31954 32005 32173 32371 32580 32755 32852 32781 32382 32005 31836 31853 31949 32043 32148 32180 32196 32209 32203 32217 32264 32324 32344 32247 32119 32081 32108 32086 31910 31743 31677 31755 31863 32064 32251 32406 32530 32462 32161 31884 31798 31834 31932 32040 32113 32167 32200 32174 32184 32240 32375 32467 32511 32439 32357 32338 32363 32366 32290 32223 32212 32238 32338 32480 32658 32798 32896 32834 32694 32499 32409 32428 32497 32589 32669 32721 32706 32590 32541 32550 32629 32745 32878 32980 32986 32927 32776 32631 32566 32592 32657 32744 32849 32961 33054 33152 33222 33219 33168 33030 32914 32890 32915 32993 33069 33087 32949 32774 32713 32757 32874 33053 33218 33343 33436 33356 33143 32962 32899 32929 33009 33078 33115 33135 33192 33226 33249 33251 33250 33212 33123 33049 33017 33057 33092 32953 32770 32602 32555 32603 32768 32970 33176 33320 33340 33029 32629 32411 32366 32495 32598 32636 32637 32602 32517 32497 32557 32626 32678 32705 32613 32452 32345 32298 32169 32070 32042 32051 32037 32063 32148 32331 32522 32643 32568 32399 32151 31976 31913 31958 32055 32147 32195 32013 31696 31526 31574 31721 31899 32085 32226 32314 32150 31777 31489 31404 31482 31597 31695 31734 31761 31784 31801 31738 31753 31851 31953 31977 31899 31811 31804 31807 31726 31636 31565 31550 31608 31705 31898 32075 32284 32388 32307 32205 32077 32068 32111 32190 32260 32356 32408 32301 32158 32102 32182 32321 32522 32688 32777 32821 32637 32363 32195 32199 32278 32363 32457 32504 32531 32583 32640 32661 32697 32739 32805 32785 32697 32662 32687 32698 32636 32557 32503 32502 32555 32644 32777 32946 33093 33088 32937 32745 32642 32642 32692 32782 32853 32906 32922 32809 32709 32737 32823 32927 33016 33044 33009 32926 32777 32649 32622 32679 32770 32822 32829 32822 32910 33065 33172 33190 33152 33097 33035 32965 32946 32986 33075 33084 32944 32769 32704 32764 32906 33135 33322 33472 33553 33345 32930 32609 32491 32532 32640 32758 32782 32767 32670 32446 32407 32505 32657 32795 32849 32809 32683 32582 32380 32232 32242 32316 32345 32308 32318 32399 32605 32790 32877 32882 32863 32767 32680 32577 32512 32509 32534 32422 32200 31975 31872 31949 32119 32311 32521 32676 32693 32379 31977 31781 31765 31834 31960 32086 32125 32088 31921 31853 31902 32021 32155 32325 32438 32376 32247 32089 31841 31710 31718 31755 31814 31852 31906 32007 32214 32401 32441 32440 32401 32294 32187 32114 32109 32165 32222 32148 32043 31890 31855 31995 32229 32491 32735 32954 32912 32671 32368 32167 32136 32215 32315 32384 32406 32367 32230 32124 32157 32266 32450 32637 32866 32979 32952 32706 32457 32347 32357 32445 32544 32610 32614 32634 32674 32738 32806 32903 33021 33100 33071 32983 32891 32863 32777 32707 32691 32677 32639 32641 32700 32855 33015 33170 33123 32986 32816 32689 32656 32664 32713 32803 32891 32799 32619 32502 32516 32635 32794 32971 33159 33288 33248 32932 32669 32520 32515 32578 32677 32729 32732 32675 32548 32520 32604 32794 33007 33183 33317 33299 33191 32989 32800 32761 32829 32914 32965 32958 32893 32885 32952 32968 32952 33015 33058 33109 33034 32915 32883 32911 32856 32775 32676 32545 32466 32451 32586 32759 32925 32957 32840 32753 32610 32494 32469 32519 32618 32707 32726 32500 32218 32087 32156 32343 32504 32684 32875 32934 32630 32159 31894 31924 32114 32347 32570 32748 32818 32637 32437 32389 32422 32477 32566 32702 32806 32852 32549 32132 31886 31849 31925 32052 32149 32215 32186 32163 32080 32089 32190 32355 32581 32720 32736 32677 32525 32331 32176 32146 32206 32282 32326 32332 32331 32378 32399 32386 32448 32539 32636 32641 32581 32512 32502 32491 32442 32386 32353 32355 32364 32413 32546 32706 32863 32851 32824 32765 32695 32660 32651 32685 32793 32859 32791 32644 32563 32631 32747 32906 33060 33238 33359 33297 33013 32778 32706 32757 32884 32990 33032 33093 33000 32868 32869 32949 33086 33267 33433 33564 33582 33465 33268 33130 33121 33182 33225 33285 33290 33315 33329 33332 33332 33359 33394 33491 33455 33380 33325 33345 33279 33209 33210 33250 33362 33368 33406 33480 33553 33665 33669 33666 33661 33583 33502 33461 33494 33533 33555 33439 33297 33203 33222 33344 33499 33659 33814 33944 33902 33670 33383 33188 33164 33224 33343 33426 33475 33373 33100 32921 32910 33021 33160 33320 33422 33416 33125 32686 32415 32359 32461 32584 32670 32703 32681 32617 32474 32388 32424 32527 32648 32708 32657 32504 32363 32179 32050 32044 32095 32126 32077 32024 32059 32116 32211 32214 32202 32232 32227 32177 32116 32115 32166 32253 32166 32038 31914 31874 31931 32033 32202 32386 32569 32507 32313 32046 31905 31906 32024 32152 32291 32401 32247 31957 31837 31886 32027 32232 32452 32627 32740 32625 32298 32057 32047 32148 32302 32452 32519 32529 32420 32262 32222 32324 32505 32667 32796 32869 32822 32723 32576 32483 32498 32597 32666 32731 32711 32714 32775 32805 32812 32849 32903 32908 32856 32788 32744 32797 32815 32797 32749 32711 32666 32687 32781 32885 33059 33181 33202 33162 33062 32940 32887 32898 32963 33048 33089 32986 32853 32797 32864 32958 33102 33265 33444 33542 33434 33194 32987 32960 33031 33120 33248 33323 33331 33083 32911 32938 33059 33177 33342 33535 33675 33672 33425 33156 33035 33056 33145 33223 33295 33332 33296 33178 33113 33108 33156 33276 33387 33415 33339 33281 33162 33006 32955 32978 33051 33139 33171 33209 33283 33353 33286 33247 33287 33317 33222 33087 33001 33009 33041 32975 32997 32996 32998 33055 33125 33237 33323 33413 33340 33227 33006 32808 32708 32694 32774 32885 32947 32764 32447 32300 32331 32493 32693 32889 33077 33194 32959 32491 32189 32122 32186 32322 32450 32536 32556 32336 32126 32065 32151 32331 32532 32689 32707 32616 32382 32140 32026 32081 32189 32289 32308 32292 32343 32403 32374 32413 32488 32586 32609 32550 32481 32451 32429 32302 32206 32205 32232 32287 32346 32401 32486 32580 32544 32493 32445 32433 32410 32418 32425 32480 32493 32319 32141 32121 32209 32371 32575 32614 32732 32961 32879 32646 32476 32472 32553 32662 32768 32815 32746 32460 32258 32250 32402 32600 32804 33019 33202 33221 33027 32754 32615 32649 32787 32904 32975 33074 33062 32942 32838 32860 32951 33093 33248 33316 33324 33245 33006 32817 32774 32850 32941 33030 33071 33100 33155 33231 33332 33430 33472 33476 33455 33386 33326 33325 33305 33242 33206 33212 33219 33217 33264 33389 33556 33679 33659 33626 33549 33452 33391 33361 33406 33495 33500 33361 33237 33170 33147 33232 33387 33503 33669 33749 33625 33412 33209 33125 33157 33231 33320 33395 33445 33181 32970 32893 32981 33115 33272 33420 33563 33626 33334 32900 32637 32645 32754 32907 33040 33112 33099 32822 32636 32640 32734 32881 33061 33213 33273 33096 32675 32341 32237 32308 32417 32508 32584 32558 32482 32320 32217 32225 32325 32473 32576 32552 32409 32265 32007 31852 31866 31971 32100 32192 32173 32128 32148 32137 32131 32164 32240 32312 32307 32167 32057 32039 31944 31882 31914 32000 32093 32083 32080 32127 32242 32303 32294 32319 32360 32403 32324 32262 32244 32274 32168 32103 32104 32115 32116 32134 32203 32312 32468 32580 32585 32567 32572 32516 32452 32443 32510 32585 32537 32445 32386 32322 32340 32428 32537 32691 32850 32867 32821 32747 32686 32637 32645 32697 32786 32897 32842 32699 32562 32521 32590 32719 32867 33023 33185 33148 33009 32870 32780 32776 32839 32923 33031 33142 33061 32814 32678 32678 32780 32918 33096 33274 33448 33380 33107 32861 32767 32838 32947 33063 33158 33191 33001 32766 32690 32742 32878 33053 33233 33397 33494 33360 33035 32826 32793 32883 33012 33139 33224 33230 33027 32813 32752 32806 32940 33118 33313 33431 33485 33314 33002 32828 32785 32878 33020 33106 33118 33069 33000 32850 32796 32864 33005 33152 33287 33326 33243 33134 32898 32755 32750 32844 32924 32984 32890 32835 32827 32831 32826 32837 32899 32952 32983 32874 32723 32640 32509 32417 32448 32510 32579 32567 32538 32589 32693 32823 32818 32784 32814 32783 32666 32561 32524 32554 32541 32404 32341 32301 32260 32260 32329 32413 32565 32704 32678 32599 32495 32389 32347 32338 32401 32504 32613 32500 32291 32098 32107 32207 32363 32544 32737 32912 32810 32591 32365 32267 32307 32415 32560 32742 32835 32670 32376 32222 32272 32414 32608 32816 32975 33088 32918 32583 32346 32307 32402 32578 32721 32801 32781 32706 32582 32542 32630 32798 32960 33081 33108 33017 32846 32605 32548 32616 32729 32817 32841 32830 32851 32916 32884 32899 32953 33046 33102 33061 33003 32992 33000 32908 32863 32832 32804 32801 32856 32946 33042 33191 33232 33183 33098 33020 33007 33021 33061 33156 33274 33226 33058 32860 32856 32916 33005 33107 33253 33402 33420 33198 32972 32862 32865 32931 33007 33153 33269 33243 32976 32771 32737 32804 32971 33135 33333 33486 33575 33411 33162 32999 32973 33024 33107 33206 33279 33316 33034 32817 32750 32830 33002 33192 33358 33515 33576 33390 33007 32738 32676 32735 32873 32983 33062 33076 32960 32709 32565 32600 32713 32886 33042 33159 33198 33061 32686 32415 32312 32368 32488 32607 32685 32700 32657 32448 32261 32234 32318 32466 32634 32763 32850 32803 32587 32323 32171 32169 32242 32356 32463 32554 32608 32447 32155 32031 32041 32117 32239 32338 32451 32545 32546 32360 32246 32224 32250 32316 32374 32408 32452 32474 32340 32229 32247 32299 32393 32471 32497 32496 32499 32363 32224 32174 32221 32301 32399 32494 32559 32607 32518 32353 32267 32291 32330 32395 32438 32444 32438 32342 32174 32140 32203 32313 32376 32363 32317 32287 32231 32097 31997 31983 32043 32123 32194 32236 32238 32247 32100 31951 31883 31868 31894 31890 31881 31890 31902 31778 31700 31722 31693 31680 31650 31622 31636 31646 31537 31444 31452 31541 31647 31721 31651 31566 31482 31377 31161 31024 31011 31081 31199 31323 31458 31529 31445 31169 30967 30933 30966 31022 31123 31236 31285 31290 31125 31017 31003 31005 30993 30960 30925 30898 30902 30808 30719 30730 30747 30748 30710 30585 30520 30513 30403 30312 30373 30521 30646 30698 30756 30802 30859 30771 30648 30521 30413 30342 30328 30331 30351 30394 30435 30365 30218 30135 30080 30098 30148 30256 30423 30592 30622 30497 30434 30418 30411 30415 30436 30450 30374 30159 29862 29736 29762 29860 29983 30092 30202 30170 30058 29875 29840 29906 30091 30342 30567 30683 30660 30616 30522 30367 30255 30259 30243 30146 29965 29831 29777 29819 29796 29831 29949 30058 30056 30001 29988 30031 30126 30097 30102 30163 30209 30229 30273 30299 30343 30423 30469 30247 29975 29790 29720 29780 29886 30003 30055 30052 29908 29723 29667 29666 29758 29947 30161 30378 30516 30488 30310 30198 30234 30316 30364 30248 30087 29916 29816 29723 29737 29856 29954 30004 29947 29857 29846 29940 29931 29917 29980 30174 30396 30556 30591 30621 30685 30716 30579 30286 30015 29833 29769 29847 30011 30159 30270 30162 29907 29736 29701 29782 29899 30061 30322 30661 30926 30860 30632 30507 30505 30502 30470 30283 30060 29815 29533 29364 29460 29731 29993 30125 30095 30067 30044 30055 29909 29900 30010 30140 30144 30088 30089 30080 30093 30070 30016 29893 29683 29530 29464 29504 29590 29741 29872 29782 29571 29508 29499 29651 29744 29831 29865 29935 29890 29746 29689 29733 29761 29767 29800 29859 29710 29560 29365 29229 29328 29536 29740 29895 29904 29816 29708 29656 29571 29539 29605 29734 29866 29996 30061 30104 30088 30069 29883 29829 29753 29671 29587 29531 29600 29757 29910 29952 29856 29722 29630 29560 29591 29680 29791 29931 30054 29990 29871 29812 29848 29905 29940 29958 29938 29835 29668 29380 29273 29400 29615 29824 30016 30077 29988 29871 29808 29745 29767 29892 30117 30359 30485 30491 30393 30330 30280 30112 30021 29863 29718 29580 29503 29543 29694 29885 30020 30174 30422 30674 30910 31051 31074 31235 31446 31652 31741 31769 31876 32026 32161 32326 32513 32662 32862 33023 33110 33064 33054 33089 33147 33217 33295 33374 33498 33607 33587 33476 33372 33426 33526 33593 33669 33716 33743 33807 33718 33585 33511 33489 33521 33533 33585 33626 33652 33637 33363 33056 32814 32671 32624 32618 32613 32642 32658 32662 32443 32211 32063 32020 32054 32038 31990 31916 31853 31809 31530 31329 31270 31266 31270 31217 31107 31076 31081 31097 30910 30725 30717 30784 30890 30971 30992 30991 30962 30942 30639 30307 30150 30166 30220 30290 30345 30366 30402 30345 30096 29885 29822 29865 29992 30149 30289 30378 30397 30372 30121 29922 29798 29819 29846 29827 29742 29715 29725 29755 29604 29482 29450 29427 29368 29314 29298 29395 29532 29649 29617 29557 29561 29610 29692 29797 29882 29968 29991 29863 29592 29278 29139 29157 29201 29257 29304 29282 29221 29133 29066 28890 28890 28980 29228 29507 29673 29697 29697 29664 29669 29574 29487 29371 29148 29005 28899 28854 28841 28797 28817 28812 28873 29096 29391 29692 29975 30207 30336 30583 30585 30676 30761 30854 30961 31044 31112 31201 31327 31431 31530 31653 31750 31841 31906 31929 31994 32011 32066 32073 32041 32070 32066 32055 31859 31672 31579 31565 31543 31560 31550 31543 31528 31427 31525 31820 32181 32404 32586 32647 32654 32681 32740 32634 32469 32264 32132 31983 31882 31761 31582 31425 31326 31123 30763 30340 29868 29359 28950 28885 29364 30007 30533 30752 30608 30294 29939 29673 29588 29630 29653 29662 29697 29785 29718 29595 29533 29516 29532 29523 29497 29445 29372 29326 29299 29134 29082 29095 29132 29107 29015 28892 28747 28688 28707 28711 28654 28759 28932 29065 29131 29183 29162 29164 29177 29180 28827 28521 28364 28354 28454 28511 28547 28538 28436 28354 28095 27889 27832 27891 27991 28117 28267 28384 28505 28617 28747 28818 28732 28672 28526 28312 28094 28026 28034 28070 28095 28148 28002 27839 27698 27647 27685 27795 27916 28040 28167 28203 28106 27916 27859 27911 27969 28099 28117 27970 27745 27586 27468 27386 27322 27400 27552 27604 27551 27477 27394 27432 27601 27805 27927 27975 27994 28006 27998 27928 27874 27858 27884 27796 27648 27328 27093 27088 27264 27463 27661 27793 27743 27672 27528 27519 27489 27500 27563 27710 27859 27954 28013 28090 28207 28286 28349 28101 27711 27362 27136 27083 27210 27357 27492 27679 27754 27679 27492 27332 27334 27504 27674 27836 28050 28200 28264 28268 28249 28158 28053 28007 27795 27543 27283 27114 27132 27300 27506 27625 27645 27643 27627 27565 27555 27627 27765 27902 28057 28164 28080 27916 27871 27870 27916 27997 28078 27946 27699 27463 27303 27204 27255 27425 27645 27798 27758 27687 27564 27560 27641 27730 27705 27763 27863 27921 27935 27970 28014 28090 28181 28248 28009 27560 27199 27046 27147 27321 27508 27677 27743 27685 27614 27409 27332 27396 27498 27669 27847 27938 27927 27936 27967 28085 27968 27855 27640 27338 27116 26990 27028 27205 27408 27630 27756 27649 27420 27267 27252 27394 27573 27745 27922 28022 27992 27900 27714 27559 27548 27534 27573 27480 27281 27078 26992 27081 27270 27350 27443 27523 27547 27480 27333 27311 27431 27627 27818 27974 27960 27761 27755 27847 27868 27805 27627 27533 27317 27166 27067 27080 27171 27407 27659 27893 28204 28408 28550 28602 28653 28633 28595 28438 28367 28400 28508 28602 28641 28549 28550 28593 28574 28417 28138 27799 27623 27646 27791 28002 28301 28570 28899 29245 29624 29968 30156 30268 30318 30169 29956 29986 30178 30226 30142 30206 30345 30385 30339 30284 30282 30325 30401 30444 30463 30412 30266 30026 29736 29413 29261 29246 29294 29480 29675 29778 29765 29712 29629 29581 29529 29377 29127 28900 28734 28659 28666 28746 28846 28969 29033 28976 28820 28627 28549 28642 28742 28877 28971 29011 28989 28960 28948 28927 28815 28651 28497 28292 28090 27962 27902 27971 28091 28262 28402 28353 28098 27851 27733 27742 27794 27893 28132 28337 28468 28574 28613 28646 28536 28399 28312 28094 27817 27616 27487 27486 27621 27800 27939 27748 27498 27307 27216 27284 27435 27570 27706 27859 28014 28097 28021 27812 27758 27656 27526 27373 27171 26987 26919 27023 27214 27436 27545 27443 27326 27267 27233 27354 27499 27621 27758 27887 27971 27961 27844 27686 27644 27670 27763 27706 27457 27204 27014 26987 27150 27345 27400 27379 27324 27272 27143 27088 27240 27372 27475 27660 27847 27890 27791 27654 27671 27740 27857 27883 27719 27489 27263 27186 27257 27321 27409 27508 27497 27448 27305 27250 27331 27501 27756 28076 28304 28277 28155 28015 27939 27908 27929 27999 27930 27728 27534 27411 27363 27472 27667 27883 27985 27926 27816 27698 27697 27820 27965 27995 28026 28077 28106 28134 28155 28255 28343 28372 28276 28053 27715 27383 27355 27520 27720 27907 27921 27798 27611 27472 27469 27578 27638 27751 28043 28275 28334 28299 28187 28123 28049 27973 27794 27483 27159 27050 27132 27339 27572 27755 27831 27724 27657 27562 27485 27369 27235 27292 27458 27610 27683 27702 27632 27489 27391 27364 27210 26960 26720 26560 26577 26721 26926 27146 27326 27372 27298 27067 26846 26822 26940 27030 27213 27392 27459 27439 27447 27461 27449 27261 27057 26904 26732 26573 26540 26616 26780 26966 27135 27134 26922 26708 26603 26642 26793 26893 27063 27182 27244 27240 27211 27184 27117 26909 26810 26688 26539 26438 26403 26468 26626 26817 26994 27124 27012 26804 26667 26657 26732 26789 26819 26891 26988 27078 27157 27147 27008 26758 26655 26608 26494 26392 26353 26427 26601 26786 26972 27112 27015 26844 26756 26789 26859 26946 27009 27132 27262 27377 27416 27427 27440 27341 27239 27132 26949 26797 26721 26789 26905 27065 27200 27312 27344 27168 26986 26931 26986 27041 27080 27108 27198 27285 27398 27508 27525 27481 27350 27349 27288 27092 26919 26805 26846 27034 27217 27378 27492 27413 27246 27092 27062 27096 27143 27183 27247 27311 27399 27458 27502 27464 27366 27251 27191 27064 26916 26766 26735 26849 27066 27238 27401 27431 27277 27117 27018 27016 27107 27152 27216 27300 27334 27369 27389 27367 27360 27258 27173 27066 26902 26759 26708 26783 26976 27210 27419 27569 27466 27347 27291 27343 27425 27489 27477 27462 27529 27573 27630 27654 27674 27596 27500 27409 27203 26936 26781 26737 26830 27011 27195 27377 27470 27341 27138 27001 27006 27083 27131 27146 27186 27241 27300 27380 27462 27436 27258 27176 27214 27140 26967 26850 26820 26903 27051 27208 27341 27397 27266 27109 26992 27007 27108 27223 27302 27402 27495 27528 27523 27539 27507 27391 27297 27202 27198 27127 26976 26775 26684 26786 27034 27274 27437 27474 27495 27520 27508 27482 27487 27630 27770 27862 28015 28133 28174 28069 27924 27875 27891 27761 27738 27618 27398 27141 27007 27088 27312 27452 27566 27625 27584 27508 27437 27399 27501 27620 27701 27770 27825 27754 27622 27561 27588 27654 27650 27528 27325 27123 27006 26937 26995 27138 27228 27338 27421 27514 27534 27601 27628 27669 27711 27707 27699 27721 27676 27599 27548 27516 27393 27281 27130 27022 26894 26821 26840 26951 27109 27221 27405 27620 27756 27790 27825 27763 27843 27866 27859 27828 27813 27827 27785 27736 27632 27525 27441 27275 27096 27012 27078 27257 27485 27631 27683 27728 27775 27715 27704 27641 27656 27698 27787 27886 27995 28082 28107 28004 27945 27890 27844 27721 27523 27354 27299 27381 27565 27773 27897 27909 27856 27814 27713 27722 27742 27788 27777 27817 27912 27983 28074 28024 27850 27800 27760 27710 27526 27349 27208 27144 27240 27454 27683 27832 27846 27827 27780 27758 27675 27684 27749 27810 27881 27900 27891 27877 27671 27422 27197 27086 27016 26970 26873 26881 27005 27213 27407 27617 27700 27661 27639 27683 27730 27763 27829 27870 27877 27887 27862 27830 27824 27690 27483 27353 27307 27195 27085 27002 27018 27132 27301 27482 27672 27713 27707 27658 27564 27480 27415 27383 27402 27488 27553 27595 27654 27684 27552 27342 27224 27168 27106 27061 27017 27091 27298 27535 27760 27995 28086 28053 27965 27912 27873 27871 27827 27822 27869 27934 27972 28019 27956 27828 27708 27695 27631 27463 27312 27223 27280 27420 27628 27838 28024 28004 27846 27695 27629 27609 27637 27640 27679 27785 27860 27919 27923 27859 27717 27611 27577 27434 27305 27209 27230 27356 27573 27813 28078 28246 28230 28111 28087 28061 28047 28016 28006 28055 28113 28187 28325 28345 28358 28279 28181 28026 27730 27502 27392 27438 27616 27803 27955 28089 28166 28067 27901 27779 27770 27796 27782 27767 27846 27905 27986 28057 28072 28092 27962 27773 27479 27255 27100 27111 27264 27443 27627 27779 27886 27890 27674 27418 27334 27320 27275 27294 27373 27466 27544 27520 27448 27266 27119 26981 26781 26601 26546 26638 26813 26991 27135 27232 27250 27200 27182 27103 27016 27015 26987 27004 27092 27164 27188 27166 27116 27004 26991 26958 26726 26537 26431 26474 26617 26766 26894 27006 27012 27005 26954 26912 26856 26791 26737 26774 26862 26955 27008 27073 27055 27073 27161 27206 27103 26817 26594 26561 26663 26814 26954 27019 26955 26889 26785 26766 26786 26790 26732 26785 26912 27021 27116 27176 27123 27005 26994 27057 26991 26844 26690 26668 26782 26947 27116 27218 27118 27000 26894 26868 26921 27037 27084 27068 27100 27186 27282 27321 27288 27249 27273 27276 27141 26970 26878 26827 26846 26972 27142 27292 27291 27232 27120 27065 27116 27197 27243 27309 27333 27307 27336 27349 27261 27259 27347 27456 27260 27062 26904 26860 26930 27002 27058 27120 27083 27035 27035 27028 27037 27151 27218 27285 27411 27479 27392 27295 27214 27272 27375 27529 27558 27310 27073 26928 26958 27138 27221 27234 27299 27348 27328 27316 27243 27200 27247 27245 27314 27411 27529 27521 27477 27442 27415 27431 27461 27369 27144 27008 27050 27227 27466 27645 27711 27616 27580 27503 27421 27368 27313 27321 27403 27539 27656 27722 27737 27621 27528 27568 27650 27504 27338 27217 27217 27317 27407 27452 27380 27159 26858 26650 26738 26852 26857 26884 27004 27201 27380 27555 27675 27619 27482 27290 27143 26988 26901 26918 27053 27271 27454 27615 27728 27722 27695 27521 27294 27169 27143 27154 27260 27403 27504 27581 27668 27699 27676 27647 27565 27356 27055 26821 26722 26790 26961 27159 27369 27535 27581 27506 27377 27232 27100 27069 27108 27247 27418 27515 27559 27590 27612 27680 27797 27793 27427 27036 26751 26739 26889 27069 27262 27391 27382 27294 27208 27157 27117 27142 27155 27250 27384 27462 27509 27483 27499 27576 27683 27673 27458 27104 26759 26670 26802 27042 27233 27393 27461 27390 27253 27181 27199 27316 27358 27456 27644 27805 27812 27708 27737 27762 27887 27874 27660 27429 27267 27151 27182 27311 27470 27576 27554 27425 27279 27232 27271 27383 27560 27773 27845 27806 27765 27717 27716 27762 27814 27752 27491 27246 27091 27132 27218 27337 27460 27605 27650 27602 27488 27384 27359 27434 27576 27792 28008 28017 27900 27767 27693 27697 27724 27698 27528 27270 27094 27073 27184 27374 27445 27538 27676 27709 27644 27492 27413 27456 27500 27572 27688 27821 27865 27752 27618 27523 27501 27604 27723 27580 27364 27212 27194 27313 27474 27608 27628 27599 27562 27530 27474 27415 27384 27448 27576 27769 27877 27894 27786 27698 27654 27607 27676 27624 27389 27112 26928 26958 27152 27355 27448 27480 27521 27562 27532 27509 27481 27538 27617 27668 27792 27868 27880 27797 27744 27722 27750 27720 27706 27548 27318 27105 27032 27122 27348 27549 27666 27708 27638 27507 27369 27503 27694 27837 28041 28149 28167 28225 28077 27894 27770 27777 27780 27672 27475 27382 27456 27611 27769 27895 27929 27719 27492 27335 27326 27432 27623 27801 28056 28179 28162 28082 27977 27991 27961 27971 27851 27617 27416 27335 27398 27572 27735 27849 27811 27676 27552 27429 27318 27311 27362 27518 27780 28026 28183 28180 28120 28155 28147 28125 27937 27618 27356 27208 27261 27444 27632 27805 27950 28041 27963 27873 27739 27616 27562 27551 27660 27865 28040 28054 28008 27946 27932 27919 27920 27811 27503 27216 27122 27219 27417 27609 27737 27800 27716 27611 27588 27661 27800 27833 27780 27746 27780 27747 27724 27651 27604 27619 27705 27611 27417 27222 27047 27041 27174 27358 27543 27690 27681 27664 27581 27532 27549 27570 27533 27528 27535 27527 27553 27503 27490 27410 27376 27366 27248 27137 27081 27092 27075 27140 27288 27432 27520 27536 27525 27474 27449 27488 27520 27625 27742 27683 27560 27535 27471 27429 27336 27250 27107 26966 26881 26846 26954 27118 27210 27312 27419 27457 27416 27351 27307 27291 27352 27425 27571 27722 27762 27657 27489 27338 27250 27265 27258 27085 26941 26885 26964 27130 27317 27435 27464 27421 27371 27317 27255 27247 27322 27403 27561 27712 27770 27801 27731 27548 27421 27359 27375 27263 27065 26958 26921 26987 27127 27329 27507 27531 27463 27385 27334 27301 27280 27359 27408 27502 27573 27562 27548 27524 27397 27286 27284 27344 27325 27261 27231 27246 27361 27517 27707 27873 27975 27962 27919 27906 27821 27799 27867 28040 28228 28356 28390 28351 28296 28069 27823 27581 27353 27159 27095 27221 27437 27579 27730 27728 27656 27630 27571 27435 27402 27504 27759 28023 28175 28144 28000 27890 27873 27811 27746 27600 27358 27182 27113 27177 27363 27557 27720 27843 27874 27841 27673 27489 27408 27423 27493 27621 27744 27803 27812 27854 27856 27784 27807 27868 27718 27489 27382 27517 27731 27935 28077 28148 28120 28047 27980 27889 27816 27785 27835 27939 28047 28091 28134 28183 28131 28068 28047 28024 27810 27473 27209 27309 27640 28005 28307 28558 28690 28755 28756 28690 28526 28395 28302 28373 28525 28680 28775 28838 28845 28844 28719 28615 28426 28141 27764 27440 27369 27565 27829 28077 28238 28279 28227 28130 28042 28014 27924 27795 27821 27900 27982 28009 27991 27922 27973 28025 28047 27882 27576 27223 27032 27093 27264 27431 27577 27624 27572 27476 27363 27315 27331 27308 27390 27566 27733 27885 27972 27890 27805 27725 27695 27538 27362 27108 26953 27046 27241 27428 27592 27636 27512 27395 27373 27456 27566 27695 27760 27725 27661 27604 27520 27417 27365 27321 27247 27171 27039 26947 27008 27137 27336 27537 27694 27710 27671 27665 27646 27608 27622 27623 27648 27624 27574 27550 27556 27615 27632 27624 27619 27661 27685 27497 27317 27204 27167 27187 27362 27609 27829 27937 27881 27768 27637 27567 27562 27603 27715 27791 27780 27774 27775 27707 27692 27645 27647 27579 27414 27279 27208 27253 27318 27466 27614 27745 27815 27774 27731 27696 27665 27736 27874 28075 28239 28279 28156 27967 27853 27815 27796 27708 27545 27438 27426 27530 27706 27890 28033 28031 27956 27863 27739 27680 27667 27720 27808 27947 28051 28112 28133 28142 27918 27782 27660 27680 27628 27479 27385 27368 27467 27629 27831 28040 28171 28073 27879 27690 27587 27576 27580 27608 27738 27879 27935 27924 27863 27814 27709 27523 27394 27265 27150 27080 27058 27143 27294 27443 27603 27694 27667 27480 27204 27061 27065 27107 27272 27484 27640 27674 27651 27589 27557 27552 27659 27523 27195 26912 26785 26853 27026 27185 27330 27381 27320 27276 27167 27136 27034 26910 26961 27139 27292 27309 27216 27132 26979 26813 26748 26730 26588 26423 26318 26343 26548 26792 27020 27201 27294 27305 27233 27190 27163 27144 27012 26922 26909 26945 26970 27016 26996 27015 27034 27053 26881 26724 26603 26515 26604 26779 26969 27141 27221 27225 27141 27021 27056 27141 27238 27261 27289 27334 27402 27477 27447 27437 27398 27389 27365 27184 26980 26879 26835 26875 26994 27188 27366 27446 27408 27299 27194 27195 27247 27336 27434 27481 27447 27439 27462 27447 27431 27387 27340 27233 27034 26886 26821 26855 26915 27036 27224 27407 27498 27457 27380 27308 27411 27576 27694 27800 27838 27730 27609 27497 27434 27413 27415 27443 27319 27159 27043 27037 27155 27319 27380 27410 27432 27362 27196 27116 27132 27161 27199 27294 27465 27603 27707 27608 27440 27425 27489 27531 27366 27144 26976 26874 26924 27062 27246 27372 27321 27169 27022 26922 26965 27070 27199 27336 27470 27550 27547 27465 27273 27012 26822 26828 26795 26669 26543 26530 26637 26829 27033 27188 27255 27055 26787 26587 26558 26633 26827 27078 27335 27437 27387 27278 27104 27035 26951 26955 26865 26607 26443 26382 26467 26629 26823 26999 27092 27003 26859 26578 26499 26561 26711 26944 27166 27252 27208 27090 26964 26888 26883 26920 26813 26588 26434 26368 26469 26660 26858 27009 27142 27130 27070 26913 26767 26755 26809 26939 27178 27347 27409 27338 27223 27159 27118 27144 27113 26940 26799 26753 26779 26909 27050 27185 27296 27313 27263 27207 27152 27122 27167 27269 27397 27529 27622 27651 27648 27579 27581 27605 27638 27451 27228 27107 27081 27160 27305 27470 27597 27652 27605 27511 27411 27378 27392 27472 27616 27755 27845 27867 27889 27897 27970 28006 28081 28004 27714 27512 27416 27423 27471 27560 27678 27788 27810 27733 27651 27634 27601 27607 27704 27863 28012 28058 28079 28049 28032 28028 28053 28070 27877 27584 27404 27372 27409 27502 27632 27749 27799 27755 27694 27555 27558 27494 27496 27548 27674 27793 27819 27831 27813 27822 27800 27819 27781 27536 27288 27186 27222 27272 27365 27436 27480 27419 27369 27227 27159 27092 27084 27127 27270 27410 27505 27505 27424 27392 27382 27391 27411 27275 27027 26881 26866 26926 27047 27161 27243 27241 27165 27005 26927 26929 26896 26935 26991 27082 27168 27208 27207 27237 27400 27526 27669 27616 27308 26971 26698 26633 26733 26838 26968 27072 27025 26957 26823 26837 26892 26911 26980 27157 27305 27344 27339 27307 27340 27439 27525 27458 27284 27056 26909 26878 26916 27025 27110 27211 27199 27141 27075 27071 27067 27196 27265 27324 27382 27392 27429 27513 27544 27674 27699 27598 27431 27257 27155 27027 27008 27109 27262 27432 27542 27544 27530 27411 27420 27472 27537 27601 27603 27602 27607 27645 27622 27613 27559 27525 27448 27320 27229 27169 27133 27090 27133 27243 27405 27431 27413 27296 27191 27148 27211 27297 27428 27555 27521 27417 27393 27377 27446 27466 27463 27426 27282 27150 27133 27156 27231 27289 27332 27421 27430 27392 27282 27236 27276 27396 27531 27700 27809 27834 27793 27650 27499 27503 27563 27590 27488 27326 27218 27141 27139 27244 27346 27437 27455 27309 27225 27166 27151 27254 27356 27419 27477 27566 27591 27558 27568 27602 27552 27461 27408 27304 27164 27073 27024 27050 27136 27257 27381 27446 27433 27380 27185 27090 27057 27097 27173 27290 27400 27437 27440 27436 27466 27393 27309 27219 27006 26790 26691 26686 26757 26908 27082 27214 27291 27304 27228 27223 27250 27281 27277 27308 27386 27463 27476 27508 27535 27563 27561 27529 27430 27314 27244 27170 27090 27101 27237 27391 27545 27571 27527 27368 27394 27451 27540 27656 27781 27801 27728 27716 27729 27730 27736 27735 27738 27643 27486 27386 27375 27410 27504 27552 27629 27733 27761 27747 27707 27705 27742 27837 27951 28064 28152 28175 28116 27987 27891 27900 27896 27819 27683 27522 27403 27358 27409 27539 27693 27790 27777 27635 27499 27384 27357 27413 27525 27587 27674 27790 27863 27857 27888 27865 27750 27696 27625 27498 27359 27244 27202 27242 27331 27429 27537 27565 27449 27253 27151 27148 27237 27266 27304 27321 27309 27308 27296 27239 27169 27134 27052 26914 26790 26698 26686 26751 26879 27019 27175 27284 27298 27240 27183 27112 27065 27009 27008 27116 27223 27256 27258 27195 27184 27163 27197 27136 26933 26737 26647 26718 26852 26992 27108 27186 27179 27132 27113 27152 27198 27148 27054 27074 27179 27268 27314 27339 27376 27413 27466 27470 27335 27168 26992 26880 26951 27131 27373 27602 27723 27700 27624 27580 27553 27546 27555 27525 27521 27533 27566 27572 27556 27540 27499 27510 27467 27356 27229 27122 27073 27101 27227 27418 27563 27566 27546 27476 27391 27345 27363 27393 27481 27530 27487 27448 27455 27437 27446 27406 27369 27292 27165 27034 26976 26997 27086 27167 27259 27366 27408 27354 27298 27292 27318 27370 27361 27422 27508 27545 27471 27402 27382 27410 27448 27472 27359 27216 27099 27050 27125 27259 27395 27463 27447 27368 27299 27266 27300 27368 27377 27365 27415 27484 27546 27641 27601 27479 27379 27353 27327 27170 27041 26934 26963 27097 27245 27376 27495 27467 27302 27153 27133 27196 27195 27163 27187 27301 27362 27387 27480 27515 27544 27456 27263 27124 26902 26761 26713 26781 26914 27074 27222 27351 27389 27310 27203 27126 27084 27120 27160 27266 27399 27452 27464 27457 27431 27465 27490 27501 27314 27086 26940 26935 27056 27205 27345 27466 27568 27612 27583 27586 27540 27512 27442 27388 27481 27630 27683 27682 27694 27700 27666 27589 27589 27617 27616 27545 27544 27637 27728 27805 27846 27780 27675 27590 27550 27611 27661 27617 27585 27599 27684 27797 27873 27891 27809 27717 27649 27608 27488 27368 27327 27363 27445 27587 27750 27871 27845 27785 27717 27704 27722 27777 27751 27805 27901 27884 27822 27812 27827 27911 27924 27863 27727 27540 27379 27299 27342 27443 27529 27618 27721 27766 27716 27680 27680 27706 27766 27736 27749 27832 27899 27827 27780 27750 27741 27717 27693 27625 27469 27301 27231 27296 27512 27726 27796 27768 27729 27707 27643 27617 27592 27560 27537 27611 27700 27765 27826 27823 27721 27656 27584 27514 27353 27187 27029 27006 27103 27248 27381 27515 27531 27350 27192 27127 27161 27190 27213 27236 27338 27469 27566 27623 27587 27623 27579 27522 27418 27199 27035 26960 26982 27076 27199 27338 27440 27474 27395 27252 27165 27141 27154 27186 27270 27351 27379 27408 27382 27324 27287 27231 27161 26981 26837 26776 26824 26972 27131 27278 27391 27478 27426 27351 27290 27341 27349 27356 27353 27442 27559 27633 27680 27694 27641 27634 27665 27683 27584 27446 27275 27228 27319 27462 27595 27713 27716 27627 27546 27489 27485 27502 27567 27605 27650 27728 27845 27912 27941 27892 27876 27925 27836 27636 27448 27363 27377 27456 27573 27718 27822 27799 27742 27654 27619 27656 27734 27807 27905 28011 27971 27914 27885 27884 27936 28003 28025 27858 27684 27520 27473 27539 27669 27753 27778 27765 27702 27634 27590 27609 27653 27758 27908 28067 28151 28158 28125 27997 28000 28053 28112 27963 27699 27446 27320 27366 27525 27649 27756 27809 27616 27416 27286 27242 27273 27345 27480 27673 27860 27910 27861 27841 27862 27799 27726 27634 27371 27125 26953 26925 27019 27165 27292 27408 27482 27437 27282 27095 27047 27155 27266 27393 27541 27609 27580 27501 27485 27518 27595 27646 27455 27146 26898 26777 26791 26916 27081 27210 27262 27216 27207 27209 27298 27273 27241 27194 27264 27370 27446 27445 27402 27354 27437 27581 27730 27648 27311 26995 26858 26948 27103 27258 27393 27392 27281 27131 27062 27067 27148 27183 27256 27445 27583 27637 27597 27583 27698 27788 27852 27729 27504 27271 27059 27063 27226 27397 27520 27551 27520 27505 27488 27480 27503 27596 27720 27801 27839 27823 27778 27729 27761 27837 27819 27646 27408 27280 27306 27389 27476 27589 27666 27633 27532 27414 27357 27354 27422 27579 27813 28038 28063 27947 27795 27803 27881 27924 27869 27656 27458 27323 27342 27469 27585 27634 27674 27579 27511 27391 27332 27354 27432 27561 27772 27953 28012 27863 27708 27723 27835 27960 27953 27766 27503 27295 27231 27312 27474 27585 27561 27420 27327 27250 27193 27167 27291 27379 27560 27724 27837 27860 27717 27624 27607 27736 27755 27537 27286 27092 27044 27183 27331 27442 27487 27353 27176 27059 27021 27053 27086 27179 27327 27510 27673 27745 27731 27698 27679 27625 27600 27403 27138 26983 26976 27112 27301 27435 27540 27474 27401 27227 27063 27040 27076 27166 27315 27498 27606 27619 27561 27608 27691 27792 27725 27433 27140 27005 27008 27127 27271 27411 27513 27499 27418 27342 27267 27218 27288 27338 27479 27609 27697 27722 27645 27648 27722 27795 27864 27759 27512 27235 27138 27195 27344 27489 27589 27618 27512 27435 27402 27427 27442 27442 27454 27567 27716 27827 27865 27819 27961 28111 28200 28034 27796 27590 27420 27336 27401 27523 27620 27600 27535 27437 27356 27369 27437 27556 27751 27975 28063 28036 27966 27905 27977 28032 28029 27864 27648 27447 27407 27494 27641 27683 27758 27826 27860 27796 27737 27737 27731 27849 27958 28145 28239 28204 27994 27860 27805 27831 27819 27781 27649 27425 27292 27313 27464 27656 27795 27778 27700 27589 27498 27431 27429 27429 27494 27626 27785 27890 27927 27878 27677 27565 27490 27493 27432 27300 27216 27170 27222 27356 27512 27657 27708 27526 27298 27133 27130 27212 27312 27449 27605 27727 27783 27763 27706 27754 27748 27656 27471 27238 27099 27078 27147 27291 27413 27533 27594 27525 27449 27313 27195 27123 27138 27271 27461 27626 27675 27638 27571 27574 27554 27613 27517 27247 27016 26945 27035 27203 27384 27521 27609 27532 27423 27263 27244 27276 27303 27393 27565 27756 27831 27842 27822 27819 27856 27875 27816 27674 27418 27164 27077 27169 27353 27511 27641 27682 27614 27580 27550 27562 27613 27546 27511 27632 27762 27820 27826 27762 27855 28066 28160 27958 27737 27434 27229 27262 27434 27638 27807 27877 27814 27760 27699 27734 27783 27766 27709 27793 27923 28033 28058 28019 28064 28147 28193 28138 27975 27747 27491 27441 27587 27800 27980 28106 28112 28016 27905 27843 27844 27847 27872 27959 28017 28039 28012 27951 27979 28018 27985 27887 27645 27418 27209 27064 27139 27331 27524 27677 27707 27600 27484 27431 27458 27485 27506 27482 27485 27509 27550 27558 27528 27563 27530 27520 27362 27200 27086 27032 26991 27071 27218 27346 27377 27301 27188 27098 27119 27187 27241 27326 27372 27356 27330 27345 27322 27375 27377 27354 27284 27099 26953 26906 26979 27030 27095 27195 27260 27199 27102 27001 26999 27071 27187 27312 27479 27573 27495 27334 27235 27241 27199 27132 27022 26863 26778 26787 26898 27084 27214 27217 27198 27125 27033 26997 27053 27053 27048 27142 27301 27442 27496 27437 27384 27376 27331 27343 27311 27200 27124 27094 27177 27342 27492 27629 27749 27617 27463 27373 27379 27391 27458 27554 27706 27846 27902 27894 27815 27808 27734 27629 27494 27338 27224 27199 27287 27451 27642 27780 27825 27773 27646 27478 27385 27395 27467 27585 27781 27940 28017 27956 27902 27939 27981 28066 27961 27673 27409 27310 27383 27549 27715 27821 27833 27745 27614 27517 27522 27551 27544 27604 27737 27877 27959 27992 28038 28181 28248 28271 28076 27836 27516 27276 27277 27422 27567 27641 27527 27397 27322 27325 27447 27633 27737 27796 27778 27786 27799 27766 27705 27679 27705 27649 27485 27318 27190 27211 27242 27287 27355 27411 27354 27303 27158 27130 27157 27184 27255 27382 27555 27543 27453 27366 27406 27350 27285 27209 26985 26853 26818 26875 27002 27130 27150 27145 27098 27046 26967 26956 26988 27034 27056 27151 27271 27318 27287 27143 27030 27006 27065 27159 27116 26940 26819 26816 26918 27056 27177 27213 27036 26863 26739 26733 26836 26885 26933 27031 27214 27368 27473 27475 27444 27306 27143 27064 27002 26887 26782 26785 26902 27078 27219 27333 27302 27140 26889 26832 26893 26918 26966 27105 27293 27426 27477 27464 27484 27504 27478 27354 27147 26980 26920 27022 27230 27455 27602 27670 27583 27451 27348 27280 27226 27249 27339 27552 27761 27860 27849 27799 27780 27813 27775 27724 27508 27251 27071 27036 27184 27408 27574 27696 27723 27652 27549 27479 27483 27475 27419 27490 27645 27772 27826 27801 27742 27843 27955 27882 27688 27494 27226 27059 27114 27322 27536 27713 27805 27753 27707 27634 27635 27699 27673 27583 27638 27722 27772 27764 27729 27736 27707 27754 27744 27570 27385 27211 27142 27258 27413 27555 27644 27554 27410 27312 27324 27388 27469 27545 27553 27541 27527 27531 27496 27489 27454 27469 27447 27318 27157 27090 27040 27063 27175 27274 27331 27283 27169 27106 27142 27166 27189 27252 27352 27356 27327 27312 27289 27298 27368 27364 27344 27153 27012 26915 26960 27053 27119 27217 27316 27303 27230 27111 27051 27086 27131 27211 27354 27498 27511 27419 27333 27320 27367 27374 27407 27280 27138 27043 27078 27219 27359 27390 27394 27318 27220 27146 27138 27184 27245 27351 27540 27713 27783 27696 27568 27503 27501 27545 27547 27386 27208 27124 27187 27386 27589 27714 27711 27599 27475 27392 27383 27424 27469 27510 27631 27776 27855 27846 27787 27698 27627 27611 27597 27486 27367 27352 27424 27584 27737 27881 27963 27886 27676 27450 27421 27457 27481 27602 27791 27973 28082 28055 27985 27991 28000 27918 27787 27581 27430 27372 27461 27651 27834 27980 28075 28010 27882 27732 27631 27601 27657 27779 28002 28203 28307 28303 28224 28267 28319 28474 28513 28243 27850 27568 27540 27690 27890 28040 28099 28055 27950 27809 27757 27792 27748 27720 27835 27966 28029 27966 27900 27915 27924 27932 27913 27811 27654 27428 27314 27384 27566 27734 27868 27824 27704 27558 27458 27486 27638 27765 27808 27831 27870 27858 27788 27725 27712 27710 27672 27561 27415 27294 27286 27295 27387 27490 27567 27515 27371 27249 27247 27345 27382 27416 27499 27560 27508 27480 27486 27464 27445 27444 27433 27320 27173 27075 27115 27266 27361 27407 27417 27399 27355 27248 27218 27215 27261 27401 27604 27839 27941 27798 27627 27545 27551 27583 27586 27469 27315 27235 27266 27407 27594 27726 27733 27598 27463 27364 27352 27446 27614 27760 27840 27905 27960 27995 27872 27667 27548 27583 27627 27489 27343 27282 27369 27569 27750 27915 27986 27830 27665 27508 27485 27507 27568 27667 27856 28062 28206 28295 28242 28144 28018 27948 27925 27784 27670 27635 27713 27877 28041 28169 28232 28181 27983 27767 27671 27661 27714 27869 28089 28279 28396 28402 28275 28262 28225 28154 27997 27815 27706 27692 27792 27959 28105 28202 28161 28122 27985 27830 27698 27638 27671 27844 28063 28242 28301 28258 28168 28226 28242 28288 28092 27831 27662 27620 27699 27819 27952 28040 27992 27917 27797 27733 27720 27633 27545 27592 27764 27915 28000 28055 28002 27916 27820 27792 27701 27534 27341 27345 27449 27618 27757 27785 27734 27644 27534 27492 27557 27565 27439 27392 27487 27609 27714 27778 27763 27681 27622 27545 27455 27369 27283 27262 27351 27496 27631 27697 27612 27449 27324 27268 27295 27309 27312 27316 27338 27385 27481 27565 27552 27573 27491 27446 27353 27236 27140 27085 27077 27198 27369 27525 27566 27510 27404 27348 27322 27357 27380 27411 27430 27404 27393 27411 27354 27352 27332 27364 27301 27162 27088 27070 27118 27162 27228 27324 27371 27328 27253 27205 27214 27256 27273 27329 27435 27484 27454 27403 27352 27281 27283 27330 27280 27147 27091 27114 27238 27395 27479 27510 27462 27395 27326 27311 27322 27340 27350 27408 27496 27568 27616 27593 27458 27384 27331 27383 27336 27223 27125 27153 27295 27468 27619 27712 27646 27479 27358 27380 27442 27456 27462 27529 27629 27682 27718 27698 27703 27637 27572 27524 27438 27309 27257 27302 27401 27566 27727 27835 27835 27755 27616 27534 27538 27541 27554 27684 27813 27885 27895 27880 27870 27883 27870 27792 27609 27431 27334 27360 27486 27647 27789 27881 27859 27817 27768 27722 27654 27568 27524 27605 27753 27885 27945 27909 27902 27877 27869 27816 27729 27538 27371 27383 27507 27651 27760 27689 27581 27456 27375 27405 27448 27493 27539 27630 27725 27799 27792 27749 27792 27806 27808 27712 27576 27490 27472 27479 27508 27612 27710 27688 27609 27474 27379 27354 27463 27688 27986 28285 28323 28151 27934 27759 27746 27783 27841 27725 27562 27435 27420 27520 27705 27787 27785 27700 27606 27481 27412 27429 27530 27684 27916 28142 28255 28242 28097 27952 27909 27963 28019 27865 27681 27540 27513 27591 27753 27887 27969 27847 27613 27406 27347 27372 27472 27680 27934 28163 28267 28220 28127 28173 28237 28229 28111 27833 27609 27452 27449 27554 27707 27838 27952 27965 27892 27779 27654 27612 27663 27774 27979 28190 28280 28275 28193 28186 28231 28318 28300 28038 27685 27465 27460 27615 27814 27960 28071 28080 28012 27913 27855 27888 27921 27903 27996 28163 28286 28331 28319 28327 28330 28329 28319 28141 27930 27740 27627 27676 27832 27996 28113 28075 27958 27823 27736 27733 27829 27963 28154 28267 28297 28308 28256 28211 28229 28245 28225 28041 27858 27711 27652 27711 27775 27842 27943 27982 27902 27818 27721 27729 27788 27871 28055 28286 28453 28450 28291 28165 28116 28077 28051 27883 27649 27477 27471 27612 27807 27966 28028 27937 27784 27666 27551 27541 27612 27703 27808 27944 28091 28168 28184 28066 27899 27793 27847 27758 27590 27466 27411 27473 27642 27771 27879 27826 27657 27437 27345 27359 27375 27405 27495 27597 27682 27739 27731 27742 27772 27881 27897 27640 27354 27205 27213 27342 27492 27603 27663 27591 27493 27456 27413 27348 27311 27358 27517 27695 27825 27873 27877 27844 27812 27821 27880 27801 27537 27328 27268 27371 27539 27679 27772 27732 27652 27562 27526 27570 27612 27596 27594 27667 27802 27892 27899 27887 27910 27911 27967 27980 27849 27622 27421 27418 27570 27760 27888 27955 27859 27742 27678 27719 27781 27793 27739 27708 27788 27877 27969 28005 28011 28016 27959 27960 27873 27724 27591 27451 27435 27568 27769 27918 28008 27957 27868 27796 27772 27937 28050 28061 28030 28017 28027 28015 28022 28018 27992 27991 28022 27940 27780 27619 27493 27539 27675 27818 27930 27971 27926 27907 27871 27868 27924 27922 27874 27843 27830 27837 27842 27816 27755 27678 27635 27649 27677 27597 27485 27372 27360 27525 27724 27895 28015 28006 27963 27844 27784 27845 27898 27868 27798 27787 27811 27816 27789 27763 27732 27662 27696 27676 27564 27460 27393 27412 27556 27755 27915 27954 27887 27800 27816 27898 28017 28107 28178 28091 28008 28080 28162 28190 28228 28238 28127 28013 28038 28072 27952 27771 27604 27625 27785 27996 28149 28180 28136 28078 28036 28028 28103 28199 28263 28272 28311 28395 28462 28420 28408 28422 28436 28362 28386 28448 28376 28178 27896 27786 27899 28126 28338 28539 28615 28576 28551 28530 28492 28524 28519 28403 28315 28351 28469 28560 28589 28530 28573 28558 28484 28449 28489 28417 28195 27975 27844 27896 28049 28266 28432 28584 28619 28594 28563 28544 28493 28462 28441 28450 28494 28591 28637 28643 28581 28566 28547 28472 28508 28495 28361 28136 27984 27959 28083 28239 28367 28506 28570 28535 28485 28391 28260 28218 28213 28227 28261 28342 28428 28463 28443 28434 28462 28455 28371 28227 28185 28160 28036 27904 27859 27901 28013 28132 28233 28355 28368 28226 28046 27890 27937 28030 28121 28111 28076 28113 28198 28308 