3874 47307 47311 47318 47323 47323 47327 47322 47308 47303 47300 47296 47291 47288 47295 47296 47303 47303 47306 47300 47299 47300 47299 47308 47299 47304 47303 47294 47296 47295 47290 47273 47267 47257 47223 47182 47134 47024 46773 45395 41381 39272 38988 39219 39379 39303 39348 39316 39128 38888 38897 38993 39438 39639 39824 40086 40329 40814 41775 44452 46776 47285 47412 47426 47391 47205 45021 45168 45303 45455 45643 45882 45992 46103 46158 46224 46239 46271 46293 46749 46925 46937 46883 46858 46843 46876 46909 46935 46953 46970 46970 46957 46937 46913 46910 46915 46919 46910 46915 46921 46924 46926 46937 46930 46931 46938 46951 46960 46961 46975 46980 46981 46974 46980 46964 45710 45640 45583 45567 45516 45465 45444 45386 45390 45414 45492 45529 45572 45593 45594 45496 45345 45235 45141 45117 45127 45100 45082 45085 45086 45111 45146 45210 45277 45351 45388 45443 45464 45424 45331 45256 45249 45258 45298 45338 45340 45363 45349 45367 45417 45474 45551 45565 45597 45527 45394 45228 45148 45103 45084 45134 45249 45333 45423 45529 45637 45732 45765 45843 45973 46056 46034 45944 45914 45953 46005 46100 46163 46213 46278 46374 46480 46579 46638 46700 46799 46930 46937 46959 46946 46986 46988 46995 46992 46989 46989 46989 46996 46993 46988 46990 46995 46994 46998 46993 46999 46999 46994 46993 46996 46988 46991 46989 46985 46989 46980 46983 46988 46988 36210 36210 36203 36144 36122 36108 36121 36138 36165 36159 36190 36179 36194 36231 36258 36311 36348 36386 36417 36445 36392 36331 36305 36284 36294 36302 36310 36330 36321 36344 36356 36381 36403 36430 36455 36471 36504 36463 36359 36258 36182 36145 36141 36103 36134 36154 36134 36151 36146 36109 36101 36123 36157 36150 36155 36113 36033 35945 35907 35919 35922 35894 35940 35941 35955 35960 35982 36001 36041 36088 36141 36184 36198 36209 36157 36048 35907 35793 35696 35631 35606 35612 35607 35590 35627 35747 35842 35872 35908 35933 35947 35963 35983 35958 35831 35676 35575 35509 35438 35404 35450 35507 35568 35666 35781 35957 36109 36238 36313 36366 36404 36390 36347 36315 36298 36288 36327 36388 36403 36452 36524 36571 36611 36682 36732 36775 36858 36909 36932 36959 36958 36943 36957 36963 36990 37029 37024 37011 37003 36997 37021 37047 37083 37082 37079 37097 37113 37140 37130 37105 37092 37100 37103 37146 37192 37218 37245 37301 37327 37380 37427 37449 37452 37491 37512 37461 37436 37434 37463 37487 37538 37580 37598 37640 37673 37678 37730 37757 37804 37811 37815 37847 37794 37713 37637 37624 37587 37571 37575 37566 37547 37515 37503 37479 37485 37458 37475 37458 37441 37354 37248 37148 37085 37019 37001 36977 36920 36880 36816 36779 36747 36743 36720 36723 36729 36720 36583 36427 36288 36198 36145 36100 36080 36055 36005 35979 35953 35963 35942 35965 35938 35961 35953 35833 35684 35575 35481 35437 35449 35425 35412 35391 35398 35464 35538 35642 35831 36109 36311 36493 36539 36404 36279 36130 36001 35891 35804 35732 35713 35696 35682 35703 35681 35697 35753 35898 36019 35922 35770 35631 35542 35478 35442 35424 35422 35386 35373 35346 35323 35330 35363 35357 35379 35367 35206 35074 34990 34982 34983 34949 34909 34892 34873 34837 34797 34756 34762 34812 34888 34960 34952 34870 34738 34682 34673 34657 34675 34708 34751 34749 34767 34832 34912 34979 35005 35044 35079 35096 34996 34850 34764 34735 34771 34768 34738 34725 34739 34794 34884 34970 35034 35130 35218 35291 35312 35333 35308 35205 35125 35045 35016 35007 35064 35079 35093 35092 35111 35142 35140 35156 35170 35163 35170 35175 35159 35143 35174 35298 35389 35436 35480 35478 35557 35712 35850 35967 36046 36117 36222 36408 36701 36960 37109 37149 37175 37157 37098 37040 36957 36817 36685 36795 36949 37113 37317 37513 37624 37726 37863 37989 38220 38365 38458 38478 38613 38741 38733 38623 38460 38284 38146 38065 38090 38116 38303 38847 38856 38585 38526 38709 38714 38657 38696 38740 38773 38779 38578 38382 38201 38045 38034 38016 38054 38134 38136 38078 38000 37960 37963 37994 37995 37987 37934 38011 37902 37715 37535 37380 37278 37173 37292 37582 37611 37694 37749 37725 37771 37806 37831 37848 37893 37976 37842 37651 37482 37363 37273 37273 37277 37275 37355 37378 37427 37393 37365 37368 37433 37590 37663 37792 37682 37549 37371 37303 37204 37187 37488 37594 37769 37970 38096 38056 38026 38127 38195 38231 38332 38569 38745 38540 38297 38035 37800 37761 37773 37814 37765 37714 37695 37566 37543 37578 37669 37758 37854 38056 38043 37779 37450 37212 37030 36973 36956 37026 37029 37208 37316 37349 37362 37405 37477 37514 37631 37848 37863 37752 37563 37353 37147 37088 37108 37124 37241 37281 37249 37099 37043 37052 37105 37183 37228 37420 37258 36984 36635 36340 36171 36167 36312 36439 36423 36468 36443 36336 36346 36432 36518 36618 36669 36643 36402 36156 35934 35835 35853 35956 36206 36407 36404 36547 36703 36737 36858 37046 37129 37169 37148 37218 37300 37165 37013 36874 36751 36667 36730 36756 37025 37233 37571 37632 37454 37422 37450 37519 37629 37923 37811 37615 37354 37063 36899 36820 36903 37012 37168 37117 37110 36984 36876 36850 36901 36926 36752 36535 36379 36328 36292 36262 36206 35990 35879 35857 35836 35995 36221 36419 36631 36804 36955 37053 36965 36673 36477 36281 36220 36254 36377 36468 36597 36735 36719 36720 36754 36778 36921 37174 37388 37398 37147 36848 36621 36418 36257 36271 36325 36569 36662 36793 36729 36708 36852 36896 36857 36843 36890 36831 36665 36445 36231 36026 35946 36010 36126 36248 36388 36399 36288 36109 36013 36040 36052 36093 36188 36378 36190 36123 35973 35838 35726 35728 35719 35656 35748 35671 35754 35742 35747 35852 35983 36129 36285 36516 36742 36679 36388 36092 35858 35671 35631 35681 35784 35861 35997 36099 36086 36083 36171 36282 36414 36489 36571 36631 36504 36331 36132 36020 36004 36201 36308 36531 36664 37046 37062 36794 36739 36768 36859 36889 37063 37098 36867 36740 36448 36251 36234 36294 36447 36637 36641 36703 36486 36415 36467 36666 37138 37707 38100 38253 38143 37789 37508 37107 36857 36739 36729 36901 37097 37287 37198 37208 37235 37229 37377 37546 37763 37794 37383 36984 36643 36332 36160 36122 36181 36349 36714 37046 37155 37063 37043 37128 37138 37172 37245 37247 37234 37092 36904 36623 36402 36327 36384 36410 36435 36313 36330 36334 36157 36149 36194 36229 36271 36351 36823 36688 36628 36284 35902 35603 35485 35541 35684 35984 36208 36606 36494 36464 36532 36631 36811 37071 37186 37039 36725 36315 35963 35738 35655 35698 35824 36035 36144 36459 36593 36499 36435 36416 36379 36371 36419 36667 36994 36996 36724 36451 36189 36172 36258 36308 36298 36078 36010 35899 35777 35846 35984 36106 36236 36479 36808 36818 36494 36065 35674 35434 35357 35371 35481 35421 35578 35637 35570 35596 35680 35777 35940 35889 35852 35687 35461 35250 35081 35032 35009 35102 35247 35341 35428 35596 35613 35340 35229 35253 35343 35486 35620 35713 35696 35624 35457 35294 35248 35275 35230 35237 35212 35256 35192 35168 35112 35085 35197 35323 35515 35670 35969 35859 35529 35161 34852 34702 34698 34824 35028 35177 35404 35608 35759 35729 35754 35773 35716 35685 35727 35846 35886 35809 35676 35497 35386 35355 35469 35613 35746 35763 35972 36019 35954 35951 36061 36182 36343 36521 36837 36836 36663 36370 35993 35726 35565 35540 35594 35806 35928 36156 36130 36108 36222 36273 36405 36456 36549 36497 36349 36124 35926 35767 35715 35749 35866 36162 36302 36573 36363 36101 35939 35894 35916 35982 36075 36135 35977 35720 35479 35330 35327 35384 35385 35381 35354 35381 35426 35453 35541 35730 35894 36028 36175 36412 36383 36122 35715 35332 35108 35030 35147 35277 35595 35798 35957 35916 35884 35940 35899 35828 35824 35910 35950 35810 35630 35390 35208 35182 35283 35473 35616 35478 35267 35177 34995 35014 35081 35242 35399 35599 35923 36012 35947 35670 35292 35063 34930 34963 35022 35163 35177 35409 35450 35419 35455 35529 35648 35662 35558 35575 35437 35296 35161 35044 35021 35003 35059 35240 35393 35521 35489 35297 35126 35044 35108 35195 35327 35478 35777 35826 35700 35476 35205 34883 34739 34715 34815 34961 35055 35161 35151 35065 35078 35163 35297 35461 35450 35503 35336 35190 35036 34864 34813 34811 34924 35170 35489 35722 35970 35719 35485 35388 35405 35491 35638 35825 36116 36064 35813 35546 35343 35245 35157 35162 35234 35354 35379 35384 35328 35335 35425 35544 35679 35882 36081 36037 35669 35365 35118 34938 34954 35120 35316 35481 35654 35858 36042 35870 35640 35507 35485 35478 35573 35771 36005 36062 35893 35703 35545 35516 35568 35604 35532 35509 35609 35830 35857 35837 35925 36023 36123 36272 36519 36719 36475 36141 35781 35499 35341 35338 35463 35724 36049 36213 36303 36229 36116 35964 35927 35894 35984 36264 36508 36654 36536 36226 35955 35736 35685 35798 35820 35877 35950 36133 36150 36102 36136 36234 36328 36415 36514 36720 36493 36102 35738 35387 35188 35188 35287 35440 35636 35723 35778 35721 35639 35643 35568 35547 35517 35581 35686 35623 35475 35263 35107 35097 35186 35396 35462 35428 35250 35065 34931 34978 35099 35240 35400 35575 35873 36071 36109 35675 35153 34810 34643 34650 34839 35012 35140 35334 35467 35459 35491 35558 35620 35642 35785 35980 36082 36135 36153 36040 35948 35895 35859 35932 36048 35971 35755 35537 35287 35173 35216 35311 35454 35647 35944 36159 36145 35947 35622 35332 35140 35118 35290 35487 35643 35783 35817 35704 35609 35644 35722 35792 35724 35690 35540 35363 35214 35124 35123 35158 35271 35517 35673 35822 35754 35604 35460 35453 35505 35613 35737 35886 35980 36061 35999 35868 35699 35429 35190 35193 35324 35508 35687 35963 36093 36132 36106 36133 36182 36271 36302 36130 36046 35811 35595 35379 35300 35253 35332 35521 35600 35805 35912 35918 35667 35482 35411 35436 35563 35678 35789 35963 35834 35866 35660 35441 35166 34980 34925 34984 35231 35428 35518 35530 35452 35447 35532 35637 35768 35792 35746 35551 35357 35167 35134 35143 35201 35336 35437 35592 35649 35587 35311 35096 35063 35118 35238 35367 35611 35721 35595 35384 35235 35008 34871 34950 35080 35033 35145 35226 35414 35691 35946 36250 36501 36824 36982 37072 37127 37112 37047 37130 37254 37426 37592 37795 37960 38062 38170 38261 38320 38450 38639 38763 38924 39030 39124 39191 39254 39235 39277 39319 39319 39347 39351 39423 39447 39470 39550 39597 39684 39772 39823 39939 39992 39996 40047 40020 40017 40009 40108 40210 40234 40293 40380 40366 40437 40508 40536 40643 40737 40855 40959 40984 40875 40823 40942 40957 41104 41110 41107 41116 41133 40968 40932 41173 41330 41339 41388 41488 41539 41457 41082 40654 40530 40528 40624 40734 40809 40930 40997 40979 40888 40776 40787 40826 40844 40958 41042 41025 41076 41028 40941 40773 40680 40710 40801 40920 40987 40878 40821 40996 41050 41034 41094 41094 41174 41112 40840 40401 40200 40236 40293 40442 40598 40726 40805 40752 40652 40468 40529 40582 40648 40728 40796 40753 40803 40651 40332 40288 40188 40186 40285 40420 40496 40487 40324 40415 40683 40815 40812 40802 40805 40820 40617 40024 39841 39954 40025 40141 40261 40392 40508 40569 40442 39896 39867 40146 40204 40209 40276 40352 40388 40454 40426 40035 39731 39618 39750 39909 40055 40156 40159 40117 40317 40443 40471 40513 40505 40545 40550 40522 40451 40220 39993 39888 39940 40134 40307 40379 40265 39695 39450 39678 40009 40068 40054 40140 40217 40266 40146 39337 38943 38834 38874 39086 39330 39494 39596 39531 39466 39622 39682 39633 39597 39605 39671 39780 39757 39660 39505 39482 39514 39610 39641 39777 39933 39932 39688 39618 39808 39943 39993 40007 40031 40047 40032 39726 39245 39075 39153 39146 39225 39337 39557 39722 39752 39631 39400 39309 39322 39373 39439 39544 39644 39708 39681 39631 39193 38752 38555 38560 38740 38954 39092 39216 39227 39389 39502 39558 39510 39324 39238 39300 39112 38918 38664 38478 38304 38233 38271 38394 38673 38866 38907 38715 38505 38348 38332 38492 38639 38709 38638 38451 37639 36969 36535 36440 36265 36180 36195 36148 36174 35969 35809 35474 35236 35178 35236 35302 35438 35713 35980 35741 35472 35277 35227 35093 35032 35086 35119 35123 35145 35152 35165 35251 35352 35440 35598 35467 35209 34869 34537 34358 34262 34315 34429 34713 35003 35255 35296 35221 35489 35500 35532 35688 35856 36012 36168 36353 36513 36064 35505 34994 34612 34464 34459 34627 34815 35003 35166 35387 35407 35288 35299 35300 35380 35521 35852 35992 35914 35653 35313 35199 35117 34973 34923 34897 34933 34926 35242 35334 35357 35418 35487 35622 35711 35627 35529 35259 35043 34878 34777 34778 34844 35046 35205 35324 35131 34916 34756 34681 34746 34876 35024 35193 35486 35827 35600 35197 34584 34212 34110 34150 34342 34534 34648 34649 34960 35036 34855 34768 34735 34847 34997 35111 35166 34960 34803 34591 34540 34486 34346 34310 34359 34462 34483 34678 34983 35012 35094 35196 35333 35447 35348 35291 35142 34894 34633 34499 34491 34603 34797 35001 35192 34906 34858 34671 34638 34738 34904 35124 35361 35589 35810 35770 35364 34884 34597 34459 34469 34606 34788 34909 34847 34977 35023 35031 35161 35309 35476 35631 35751 35777 35644 35437 35340 35290 35264 35315 35359 35360 35344 35326 35355 35419 35425 35546 35691 35826 35715 35550 35394 35200 35013 34836 34774 34806 34905 35108 35324 35346 35280 35414 35582 35684 35853 36018 36189 36426 36858 36999 36637 36064 35535 35100 34909 34900 35014 35211 35369 35596 35775 35717 35566 35526 35584 35693 35833 36092 36409 36405 36074 35839 35623 35443 35245 35198 35166 35126 35320 35449 35459 35499 35564 35699 35782 35724 35486 35135 34793 34566 34505 34556 34684 34898 35135 35297 35263 35118 34869 34809 34904 35053 35309 35547 35914 36051 35977 35635 35210 34842 34723 34837 34962 35123 35219 35335 35392 35317 35327 35353 35237 35177 35231 35313 35187 34989 34785 34763 34829 35106 35240 35060 34830 34518 34397 34384 34477 34713 34951 35270 35546 35846 35406 34885 34257 33979 33918 34029 34225 34484 34690 34726 34845 34598 34354 34320 34407 34529 34773 35009 35339 35312 35097 34876 34566 34351 34226 34329 34463 34632 34703 34784 34850 34904 35040 35262 35391 35451 35506 35527 35530 35608 35466 35212 35109 35146 35280 35224 35091 34909 34939 34971 35035 35206 35359 35478 35640 35869 35749 35235 34810 34610 34584 34757 35013 35193 35341 35571 35770 35982 35898 35830 35811 35793 35918 36147 36479 36557 36478 36240 35892 35509 35275 35240 35339 35480 35541 35589 35767 35798 35994 36194 36176 36044 36008 36013 35872 35732 35515 35400 35369 35430 35593 35591 35553 35354 35516 35662 35758 35914 36079 36294 36468 36691 36701 36393 35874 35435 35181 35130 35244 35505 35695 35855 36088 36253 36082 35890 35822 35798 35888 35999 36194 36312 36279 36077 35752 35361 35166 35166 35345 35596 35840 36189 36322 36285 36370 36535 36553 36445 36368 36517 36506 36473 36377 36193 36084 36158 36351 36398 36082 35865 35691 35632 35619 35730 35901 36084 36266 36499 36230 35674 35102 34779 34686 34717 34901 35110 35293 35362 35340 35216 34872 34732 34776 34880 35091 35264 35488 35386 35176 34995 34817 34639 34539 34690 34781 34886 34877 34847 34944 34984 35062 35213 35336 35287 35183 35334 35152 35105 34945 34858 34838 34948 35171 35353 35296 35135 35017 35105 35062 35163 35363 35523 35760 36151 36463 36157 35703 35247 34913 34726 34724 34862 35064 35291 35372 35557 35386 35132 35027 35053 35184 35369 35632 35821 35843 35709 35519 35200 34956 34924 35056 35238 35616 35930 36187 36237 36253 36284 36341 36236 36065 36095 36023 35859 35732 35593 35517 35539 35657 35846 35922 35860 35740 35777 35757 35702 35739 35844 35978 36154 36398 36378 36130 35771 35521 35436 35473 35692 36025 36192 36390 36492 36565 36459 36407 36547 36607 36715 36948 37274 37624 37825 37841 37428 37055 36689 36474 36388 36540 36938 37312 37530 37488 37464 37650 37736 37623 37493 37469 37360 37264 37082 36943 36759 36609 36615 36562 36349 36027 35887 35872 35808 35860 35949 36091 36259 36471 36486 35960 35410 34951 34678 34600 34698 34866 35075 35373 35511 35541 35396 35296 35359 35489 35650 35902 36103 36318 36218 35902 35380 34884 34601 34517 34635 34818 34905 34990 35033 34964 35023 35108 35090 34963 34950 35053 34891 34802 34746 34767 34836 35005 35242 35344 35406 35127 34858 34690 34684 34813 35004 35232 35427 35635 35431 35054 34778 34723 34811 34895 34967 35241 35424 35427 35332 35275 35280 35382 35530 35691 35863 36002 36095 36108 36066 35940 35746 35690 35701 35825 35881 35721 35618 35645 35639 35659 35769 35825 35828 35898 36024 36100 36080 36016 35939 35930 35996 36077 36094 35988 35754 35607 35630 35683 35794 35966 36098 36258 36385 36276 36049 35719 35537 35486 35524 35667 35811 36050 36226 36249 35960 35816 35668 35627 35754 35880 36049 36282 36573 36669 36494 36073 35685 35531 35449 35539 35702 35919 35998 35972 35976 35918 35792 35699 35720 35821 35888 36190 36330 36388 36510 36626 36751 36805 36832 36879 36894 37030 37184 37280 37389 37382 37440 37455 37545 37624 37977 38243 38404 38323 38333 38414 38533 38654 38869 39050 39176 39299 39498 39642 39756 39865 40025 40147 40282 40390 40549 40535 40478 40358 40005 39802 39676 39590 39594 39694 39772 39715 39641 39604 39611 39592 39593 39630 39525 39511 39187 39018 38637 38311 38064 37892 37782 37688 37517 37154 36988 36935 36968 36893 36776 36702 36690 36766 37164 37467 37481 37359 37191 37002 36898 36696 36575 36526 36490 36381 36322 36320 36321 36401 36525 36617 36522 36442 36324 36130 35875 35791 35834 36013 36290 36474 36648 36654 36437 36160 36024 35829 35903 36076 36342 36602 36792 36955 36675 36328 36074 35806 35672 35727 35793 35936 36020 36111 36082 35847 35604 35570 35667 35825 36018 36275 36562 36886 37107 36911 36423 36085 35867 35814 35923 36074 36240 36280 36343 36357 36357 36334 36386 36423 36470 36561 36735 36614 36493 36293 36150 36103 35994 35968 36001 36067 35980 35989 36143 36204 36298 36447 36584 36547 36468 36452 36327 36214 36077 35957 35957 36000 36140 36274 36182 35991 35838 36103 36141 36279 36469 36696 36882 37029 37111 36805 36422 36096 35890 35810 35821 35962 36163 36370 36233 36324 36289 36289 36425 36644 36793 36932 37032 37125 37134 36950 36564 36250 36005 35962 35995 36121 36306 36324 36376 36389 36344 36314 36251 36189 36190 36358 36677 36627 36458 36190 35956 35915 35857 35777 35729 35745 35670 35898 35984 36042 36194 36383 36597 36712 36535 36277 35935 35701 35544 35476 35537 35673 35858 36000 35828 35314 34995 34832 34827 34948 35139 35326 35531 35705 35947 35508 34966 34607 34474 34481 34647 34879 35086 35368 35477 35542 35373 35218 35230 35311 35432 35609 35805 35944 35895 35788 35556 35229 35075 35081 35233 35437 35665 35697 35890 36019 36000 35993 35911 35791 35788 35957 36100 35951 35849 35703 35666 35695 35773 35764 35705 35636 35659 35600 35464 35611 35819 35996 36195 36333 36249 36116 35892 35773 35767 35800 35920 36059 36244 36397 36452 36188 36088 36013 35981 36084 36206 36352 36498 36736 36761 36504 36187 35937 35872 35927 36069 36276 36407 36552 36728 36858 36767 36748 36863 36997 37118 37267 37343 37343 37195 37063 36821 36605 36444 36434 36544 36646 36801 36822 37011 37165 37467 37767 37775 37626 37492 37391 37273 37078 36830 36610 36527 36526 36505 36402 36359 36281 36260 36258 36223 36268 36369 36430 36535 36458 36306 36071 35817 35722 35697 35703 35786 35963 36132 36326 35987 35618 35360 35250 35278 35413 35594 35803 36040 36341 36117 35780 35346 35083 35049 35082 35253 35436 35633 35640 35573 35281 35044 35021 35199 35462 35750 36010 36184 36088 35888 35480 34917 34689 34621 34645 34815 35030 35147 35129 35116 35107 35148 35166 35224 35326 35405 35445 35361 35168 34863 34659 34626 34678 34793 34877 34856 34804 34888 34946 35062 35198 35397 35634 35670 35580 35593 35498 35442 35455 35462 35579 35739 35876 36026 35996 35752 35333 35205 35327 35548 35787 35997 36203 36407 36564 36255 35851 35592 35513 35554 35659 35786 36038 36246 36330 36118 35849 35628 35607 35697 35834 36013 36196 36318 36340 36155 35879 35644 35563 35591 35676 35882 36082 36277 36319 36445 36621 36631 36694 36734 36826 36887 36826 36818 36659 36527 36426 36374 36257 36188 36244 36360 36441 36410 36360 36370 36341 36397 36486 36488 36462 36442 36567 36510 36475 36375 36331 36333 36374 36454 36383 36317 36230 36230 36283 36333 36441 36605 36738 36903 36833 36630 36337 36080 35950 35899 35969 36034 36183 36356 36518 36356 36028 35813 35694 35750 35918 36122 36380 36612 36852 36956 36596 36135 35822 35686 35651 35757 35917 36094 36332 36402 36499 36445 36395 36469 36551 36697 36843 37001 37135 36984 36808 36482 36153 35876 35825 35926 36041 36151 36153 36138 36013 36009 36134 36138 36113 36123 36103 36099 35935 35819 35754 35729 35778 35892 35845 35739 35597 35633 35506 35559 35621 35713 35908 36053 36112 35862 35597 35339 35214 35198 35298 35451 35574 35830 36028 36016 35567 35327 35133 35153 35299 35434 35597 35799 35998 36107 35754 35281 35052 34996 35046 35169 35369 35589 35775 35819 35725 35467 35300 35356 35597 35856 36222 36509 36709 36980 37084 36609 36211 35809 35648 35637 35762 35926 36031 36008 35920 35868 35742 35628 35664 35732 35853 35954 35963 35833 35676 35567 35540 35464 35380 35421 35517 35573 35583 35674 35662 35739 35896 36041 36022 35913 35867 35738 35618 35564 35521 35578 35632 35814 35932 35763 35634 35610 35749 35813 35927 36133 36385 36584 36673 36394 35958 35617 35487 35489 35587 35747 35935 36149 36288 36290 35935 35778 35688 35669 35813 35957 36146 36281 36423 36507 36033 35597 35298 35222 35307 35430 35662 35826 35974 35910 35787 35482 35309 35356 35450 35634 35805 35933 36002 35803 35727 35369 35123 35066 35083 35241 35430 35651 35682 35704 35783 35778 35693 35601 35563 35603 35718 35828 35768 35594 35505 35471 35425 35326 35314 35381 35522 35664 35689 35690 35671 35711 35797 35861 35789 35767 35827 35969 36013 35956 35881 35792 35843 35943 35906 35935 36031 36114 36138 36080 36116 36140 36234 36402 36608 36659 36693 36779 36651 36638 36675 36737 36862 36954 36995 37007 36927 37004 37156 37524 37788 37850 37938 38125 38267 38290 37887 37511 37309 37102 36983 36967 36938 37003 37126 37313 37437 37267 36849 36806 36927 37051 37221 37407 37557 37681 37767 37486 37171 36831 36631 36570 36623 36770 36933 37122 37218 37086 36769 36565 36532 36642 36753 36903 37019 37071 36949 36748 36470 36227 36146 36184 36321 36480 36569 36560 36669 36834 36979 37081 37091 37069 37080 37094 37061 36862 36685 36590 36569 36602 36561 36455 36355 36325 36270 36260 36261 36289 36425 36585 36703 36556 36409 36224 36028 35851 35797 35849 35940 36053 36224 36287 36034 35750 35635 35617 35675 35859 36056 36277 36457 36647 36567 36215 35810 35518 35454 35478 35592 35813 35996 36068 36062 36024 35910 35903 36033 36191 36378 36571 36739 36791 36732 36567 36187 35905 35734 35696 35836 36011 36170 36308 36381 36522 36365 36286 36261 36281 36357 36532 36774 36752 36614 36411 36290 36087 35908 35885 35947 36066 36142 36215 36299 36315 36384 36506 36504 36435 36387 36416 36323 36243 36157 36129 36208 36341 36590 36756 36835 36930 37071 37087 37034 37114 37253 37374 37390 37347 37035 36715 36416 36237 36223 36315 36463 36606 36768 36819 36799 36649 36528 36569 36580 36610 36802 37043 37250 37205 37085 36894 36813 36763 36838 36984 37160 37116 37213 37293 37326 37442 37448 37449 37377 37429 37375 37213 36955 36768 36694 36728 36700 36570 36580 36618 36724 36972 37021 37043 37341 37586 37768 37666 37520 37202 36861 36548 36363 36234 36289 36381 36579 36688 36306 36067 35987 35918 35977 36124 36351 36534 36762 36772 36129 35629 35184 35027 35005 35124 35318 35514 35741 35701 35647 35489 35394 35513 35737 35945 36163 36451 36578 36486 36099 35567 35214 35037 35147 35307 35501 35581 35595 35658 35660 35614 35579 35538 35516 35520 35675 35724 35487 35227 35090 35054 35008 34994 35083 35123 35143 35202 35290 35298 35401 35623 35762 35596 35394 35380 35193 35143 35083 35038 35131 35256 35452 35449 35255 34989 34987 35158 35295 35525 35685 35745 35777 35704 35480 35132 34846 34804 34852 35060 35288 35566 35731 35877 35748 35541 35396 35421 35607 35863 36149 36205 36211 35993 36033 36039 35975 35986 36146 36486 36749 37047 37332 37676 38141 38604 38922 39216 39540 39728 39765 39755 39768 39929 40015 40135 40191 40140 40039 39854 39718 39661 39648 39582 39542 39574 39467 39184 38814 38507 38142 37703 37533 37510 37516 37559 37603 37511 37171 36660 36324 36204 36249 36392 36577 36771 36938 36949 36597 36089 35776 35638 35662 35726 35923 36091 36223 36278 35860 35487 35315 35348 35486 35712 35903 36113 36199 36064 35785 35343 35070 34978 34964 35098 35275 35424 35335 35352 35478 35567 35569 35635 35790 35918 36034 36033 35846 35746 35763 35856 35859 35797 35744 35681 35601 35453 35465 35524 35680 35850 36019 36085 36043 35941 35757 35628 35537 35511 35550 35646 35760 35865 35797 35472 35349 35465 35674 35933 36199 36428 36630 36837 36663 36346 36116 36000 36007 36105 36239 36376 36473 36465 36324 36125 36131 36141 36217 36386 36603 36746 36767 36696 36518 36263 36086 36101 36218 36416 36621 36755 36776 36784 36801 36827 36848 36911 36989 37030 37166 37447 37672 37799 37716 37690 37592 37478 37456 37525 37616 37693 37974 38183 38299 38551 38767 38894 38877 38876 39008 39055 38999 38891 38846 38822 38889 38924 38707 38372 38192 38113 38052 38147 38342 38557 38814 39123 39281 39051 38733 38502 38377 38364 38405 38511 38635 38639 38339 38041 37855 37786 37905 38059 38201 38278 38213 38138 37918 37621 37410 37369 37432 37595 37812 37998 37945 37866 37849 37672 37652 37682 37796 37889 37975 37984 37850 37776 37704 37651 37485 37443 37539 37640 37718 37683 37668 37670 37718 37866 38016 37998 37934 37872 37773 37692 37612 37551 37554 37629 37731 37690 37560 37288 37102 37039 37019 37142 37329 37553 37786 37676 37324 36873 36690 36612 36620 36729 36875 37074 37254 37162 36650 36357 36198 36252 36460 36678 36967 37177 37245 36882 36529 36288 36173 36238 36391 36573 36805 37014 37037 36939 36751 36598 36587 36717 36906 37127 37328 37403 37267 37191 36961 36718 36608 36637 36787 36992 37170 37143 37058 37066 37091 37015 37031 37115 37212 37297 37358 37223 37141 37116 37163 37136 37056 37091 37211 37298 37329 37262 37258 37303 37429 37591 37587 37548 37510 37551 37526 37526 37522 37548 37576 37669 37636 37606 37569 37469 37434 37460 37570 37711 37855 38038 38116 37939 37788 37579 37480 37453 37507 37615 37757 37920 38068 37909 37621 37414 37387 37459 37608 37760 37914 38055 38196 38034 37751 37307 37150 37060 37155 37303 37492 37666 37818 37747 37270 36989 36796 36753 36837 37048 37274 37494 37691 37614 37168 36824 36612 36583 36693 36884 37123 37397 37571 37421 36987 36618 36471 36584 36790 37039 37257 37413 37357 37208 36807 36537 36408 36435 36591 36854 37074 37238 37164 37097 36961 36872 36913 37060 37281 37433 37586 37641 37540 37471 37357 37172 37073 37031 37132 37263 37402 37378 37315 37346 37447 37471 37519 37568 37678 37823 37857 37769 37719 37692 37766 37726 37675 37650 37687 37684 37604 37602 37693 37827 37978 38134 38018 37972 37992 37986 38008 37982 37921 37930 38013 38096 37983 37850 37699 37535 37455 37405 37489 37700 37950 38122 37965 37603 37283 37162 37103 37117 37246 37398 37580 37751 37542 37082 36635 36464 36539 36666 36871 37127 37361 37519 37042 36517 36260 36141 36197 36397 36639 36920 37118 37203 36726 36261 36030 35998 36099 36301 36545 36786 36934 36823 36452 36139 35959 35883 35989 36143 36375 36608 36805 36789 36521 36290 36123 36156 36277 36487 36696 36845 36853 36538 36231 35852 35614 35628 35754 35968 36238 36442 36449 36286 36131 35912 35835 35887 36048 36253 36411 36492 36267 36077 36016 35833 35711 35698 35820 36046 36202 36229 36212 36109 36046 36087 36151 36224 36306 36416 36467 36337 36268 36260 36219 36250 36202 36183 36211 36300 36312 36266 36296 36261 36363 36583 36731 36713 36621 36515 36276 36221 36231 36274 36397 36540 36644 36509 36298 36125 35961 35900 35917 35972 36206 36439 36620 36510 36330 36032 35923 35901 35902 36000 36199 36375 36557 36482 36209 35939 35836 35848 35906 36136 36386 36653 36844 36698 36171 35875 35751 35751 35852 36005 36211 36445 36585 36496 35970 35625 35435 35355 35565 35837 36093 36324 36476 36315 35901 35568 35370 35305 35412 35579 35825 36042 36159 36200 35972 35669 35588 35741 35948 36135 36310 36348 36145 36030 35774 35516 35408 35407 35564 35787 36021 36050 35992 35879 35819 35759 35800 35870 35998 36131 36206 36070 36005 35978 36000 35959 35884 35883 35963 36109 36205 36241 36247 36230 36290 36443 36489 36480 36454 36420 36227 36194 36109 36026 36104 36330 36472 36502 36527 36515 36403 36339 36311 36421 36587 36752 36923 36787 36569 36206 36074 36032 36038 36133 36308 36495 36720 36787 36626 36260 36082 36086 36159 36314 36592 36866 37140 37297 36956 36569 36311 36138 36127 36287 36497 36723 36866 36944 36640 36340 36146 36152 36291 36470 36708 36927 37012 36891 36699 36376 36178 36145 36253 36445 36645 36849 37011 36941 36917 36667 36577 36580 36649 36795 36995 37174 37282 37106 37087 36911 36691 36622 36683 36825 37002 37191 37373 37390 37457 37421 37194 37020 37011 37104 37197 37353 37524 37579 37493 37567 37547 37386 37418 37695 38100 38363 38434 38336 38087 37844 37746 37713 37684 37600 37620 37653 37554 37382 37249 37131 37082 37091 36994 36962 36980 37032 37024 36990 36916 36854 36961 37131 37173 37104 37037 36953 36783 36754 36741 36765 36886 37039 37122 37015 36875 36665 36524 36509 36582 36749 36957 37199 37287 37001 36624 36269 36139 36080 36101 36164 36266 36438 36557 36298 35940 35686 35553 35579 35739 35948 36216 36415 36593 36297 35876 35650 35558 35575 35697 35859 36080 36240 36327 35965 35612 35346 35224 35361 35619 35870 36153 36278 36208 35737 35352 35111 35116 35242 35479 35714 35864 35873 35818 35561 35212 35143 35290 35507 35756 35905 35892 35764 35675 35449 35238 35205 35338 35567 35751 35841 35746 35661 35574 35542 35507 35511 35638 35688 35692 35654 35567 35513 35475 35606 35639 35657 35777 35853 35952 35879 35791 35840 35913 36056 36217 36305 36327 36365 36153 36091 36102 36105 36274 36461 36435 36389 36370 36394 36310 36347 36336 36377 36560 36843 36991 36832 36662 36451 36381 36396 36427 36560 36730 36931 37136 37001 36747 36525 36487 36439 36488 36720 36989 37251 37335 36747 36314 36110 36012 36108 36311 36563 36840 37059 37031 36494 36135 35840 35780 35905 36153 36392 36574 36544 36169 35653 35331 35103 35122 35323 35629 35956 36203 36238 36150 35864 35579 35446 35570 35837 36123 36350 36413 36294 36273 36102 35943 35915 36011 36192 36390 36625 36738 36758 37009 36809 36662 36820 37184 37439 37478 37381 36998 36770 36558 36333 36229 36200 36318 36422 36504 36426 36337 36254 36323 36344 36320 36413 36556 36696 36628 36459 36387 36287 36278 36337 36239 36205 36270 36314 36330 36332 36415 36443 36413 36522 36643 36656 36636 36587 36465 36367 36367 36335 36326 36447 36460 36410 36278 36108 36038 36041 35943 35934 36148 36449 36591 36411 36262 35961 35931 36010 36081 36241 36432 36679 36857 36764 36471 36231 36145 36174 36282 36541 36789 37001 36996 36446 36099 35903 35786 35839 35976 36157 36390 36661 36742 36271 35890 35761 35696 35804 36041 36331 36609 36791 36729 36159 35818 35613 35571 35701 35866 36077 36332 36433 36233 35753 35428 35277 35308 35500 35779 36094 36341 36441 36106 35664 35341 35248 35285 35427 35595 35807 35926 35998 36065 35794 35637 35602 35666 35880 36158 36364 36497 36587 36177 35827 35595 35527 35592 35737 35945 36147 36316 36406 36113 35832 35742 35762 35927 36109 36300 36433 36517 36241 35934 35570 35389 35374 35508 35655 35884 36079 36257 36246 36018 35826 35790 35801 35963 36174 36367 36517 36505 36304 35947 35581 35369 35394 35541 35744 36003 36170 36247 36072 35833 35563 35425 35564 35808 36071 36301 36319 36082 35966 35609 35372 35373 35464 35674 35943 36128 36142 36143 36118 35887 35661 35671 35819 36014 36209 36385 36462 36412 36418 36188 35876 35670 35687 35830 35925 35929 35969 36089 36100 36034 35993 36027 36093 36145 36214 36131 36090 35988 35921 35887 35800 35811 35900 35969 36029 35961 35896 35847 35890 35974 35979 36016 36064 36091 35909 35876 35832 35879 35992 35939 35899 35933 36020 36056 36080 36113 36191 36384 36618 36531 36326 36097 35798 35691 35643 35583 35701 35886 36048 36077 35922 35832 35681 35652 35689 35681 35760 36006 36246 36118 35935 35640 35485 35422 35368 35445 35638 35881 36083 35978 35845 35672 35641 35661 35745 35857 36037 36254 36226 35873 35566 35323 35263 35281 35338 35508 35723 35915 35961 35743 35559 35431 35454 35527 35678 35921 36145 36342 36266 35960 35712 35554 35525 35546 35579 35713 35862 36063 36007 35814 35650 35509 35506 35571 35614 35770 36018 36244 36048 35761 35446 35350 35305 35271 35400 35622 35818 35986 35812 35599 35316 35245 35291 35407 35598 35861 36107 36106 35809 35444 35289 35296 35265 35309 35456 35615 35880 36006 35689 35529 35452 35345 35452 35731 36101 36541 36942 37369 37844 37736 37308 36902 36821 36819 36899 37020 37141 36924 36397 36076 35972 35960 36093 36318 36526 36733 36775 36386 35763 35533 35400 35396 35552 35729 35945 36163 36306 36088 35670 35384 35355 35429 35598 35881 36129 36360 36538 36199 35816 35541 35433 35374 35464 35660 35937 36185 36270 35825 35607 35530 35487 35568 35771 35987 36260 36515 36351 35925 35649 35480 35411 35476 35594 35820 36031 36160 35899 35546 35346 35327 35427 35621 35870 36108 36318 36331 35975 35688 35467 35391 35443 35564 35746 35959 36094 36029 35646 35306 35028 35011 35120 35356 35586 35772 35929 35883 35560 35167 34918 34872 34985 35232 35532 35758 35910 35905 35740 35503 35355 35417 35635 35893 36053 36085 36010 35878 35560 35341 35317 35427 35651 35898 36075 36074 36094 35934 35639 35564 35634 35763 35874 35888 35810 35692 35599 35378 35142 35030 35053 35261 35525 35687 35733 35702 35728 35773 35707 35729 35784 35860 35938 36093 36118 36022 35889 35774 35651 35608 35726 35889 36043 36054 36023 35981 36033 36155 36130 36117 36116 36158 35934 35879 35741 35719 35777 35771 35669 35692 35771 35829 35714 35683 35686 35750 35925 36197 36157 35990 35876 35648 35498 35495 35612 35828 36076 36280 36217 36025 35726 35491 35380 35397 35499 35680 35901 35936 35629 35371 35101 35008 34883 34879 34955 35057 35216 35391 35256 35151 34879 34771 34834 34931 35102 35309 35594 35824 35706 35571 35288 35166 35133 35108 35223 35411 35646 35916 35829 35612 35225 35097 35087 35147 35360 35662 35953 36094 35847 35652 35355 35318 35224 35235 35373 35567 35796 36001 35836 35610 35319 35265 35273 35394 35602 35865 36135 36268 36041 35555 35299 35121 35048 35138 35280 35499 35797 36021 35771 35293 35047 34966 34986 35230 35583 35919 36126 36263 35819 35375 35048 34847 34889 35059 35312 35637 35905 35976 35409 35099 34973 35044 35232 35518 35856 36076 36288 36057 35552 35246 35003 35020 35205 35465 35770 36048 36241 35975 35571 35240 35112 35207 35395 35652 35966 36147 36366 36138 35645 35282 35119 35159 35375 35611 35911 36175 36314 36168 35664 35340 35121 35151 35323 35631 35974 36203 36352 36019 35544 35189 35081 35193 35438 35725 36084 36360 36577 36538 36056 35698 35573 35632 35748 35925 36108 36316 36175 35886 35460 35216 35230 35369 35587 35911 36282 36481 36505 36486 36122 35886 35886 36000 36182 36386 36601 36795 36801 36607 36302 36195 36343 36607 36909 37148 37274 37365 37407 37407 37027 36916 36987 37145 37355 37478 37588 37633 37498 37329 37018 36941 36938 37073 37209 37309 37376 37218 37061 36987 36734 36571 36536 36575 36714 36876 36985 36856 36714 36639 36399 36254 36175 36256 36394 36575 36648 36610 36605 36639 36620 36587 36565 36608 36673 36819 36739 36744 36762 36821 36724 36603 36547 36586 36653 36783 36686 36573 36503 36500 36399 36201 36119 36132 36286 36382 36364 36373 36400 36457 36393 36212 36185 36175 36321 36480 36698 36969 37387 37772 37963 38019 38117 38381 38582 38533 38528 38404 38359 38412 38456 38404 38217 37969 37756 37535 37403 37395 37524 37627 37278 36935 36705 36425 36232 36163 36131 36158 36216 36348 36290 36033 35797 35567 35412 35352 35424 35671 35912 36118 35854 35651 35413 35310 35328 35309 35401 35549 35705 35913 35605 35255 34922 34814 34812 34936 35217 35483 35676 35582 35192 34911 34562 34485 34581 34729 34883 35031 35219 35341 35009 34621 34462 34421 34435 34608 34860 35154 35351 35299 35034 34649 34431 34402 34430 34536 34801 35052 35296 35324 34896 34540 34419 34408 34565 34868 35200 35438 35620 35293 34724 34413 34337 34356 34517 34776 35072 35324 35519 35185 34689 34425 34263 34289 34521 34838 35099 35285 35426 35056 34738 34561 34490 34594 34807 35060 35375 35662 35894 35461 35223 35118 35091 35221 35480 35733 35938 36149 35938 35447 35173 35057 35110 35259 35471 35724 35918 36080 35779 35358 35165 35093 35243 35491 35762 35958 36113 36016 35581 35165 34908 34819 34875 35092 35416 35672 35802 35754 35543 35324 35153 35213 35427 35657 35843 36069 36145 35984 35686 35417 35298 35320 35435 35654 35890 36091 36127 36077 35839 35622 35574 35712 35869 36016 36137 36145 35872 35689 35357 35195 35173 35302 35574 35839 36014 35947 35815 35752 35522 35499 35610 35765 35934 36118 36252 36041 35925 35803 35512 35366 35388 35569 35762 35881 35889 35816 35747 35635 35506 35556 35713 35890 35919 35997 35811 35567 35507 35304 35067 35066 35262 35540 35732 35760 35632 35613 35451 35262 35278 35378 35495 35532 35525 35323 35134 34987 34878 34763 34763 34878 35101 35295 35284 35191 35116 35116 35201 35265 35342 35467 35554 35599 35413 35284 35208 35267 35250 35201 35267 35465 35618 35656 35568 35553 35565 35670 35765 35813 35890 35980 36076 36026 35794 35591 35510 35515 35476 35501 35631 35752 35885 35799 35662 35675 35690 35767 35834 35893 35929 35965 35943 35730 35635 35612 35717 35738 35753 35836 35989 36124 36161 35993 35905 35911 36001 36044 35998 35960 35946 35857 35676 35575 35470 35474 35488 35426 35446 35587 35648 35616 35650 35643 35662 35818 35965 35989 35945 35925 35892 35667 35574 35487 35519 35696 35780 35751 35753 35838 35880 35795 35797 35865 36021 36224 36202 36167 36139 36106 35884 35792 35761 35797 35950 36081 36076 36090 36146 36230 36220 36197 36120 36101 36198 36353 36402 36421 36398 36452 36251 36075 36003 36053 36239 36273 36300 36374 36464 36531 36508 36501 36507 36591 36742 36722 36692 36656 36671 36426 36262 36157 36093 36138 36130 36037 36096 36181 36197 36185 36139 36147 36217 36412 36596 36625 36665 36647 36748 36589 36427 36428 36502 36629 36658 36667 36673 36684 36700 36640 36554 36564 36693 36937 36930 36761 36585 36539 36294 36264 36196 36194 36224 36282 36188 36191 36244 36351 36316 36340 36426 36511 36636 36652 36426 36195 36189 36134 36040 36019 36088 36083 36096 36007 35919 35979 35957 35992 36044 36042 36002 36068 36277 36318 36257 36164 36166 36007 35935 35983 35948 35982 36060 35940 35891 35899 35951 35940 35967 35944 35983 36148 36281 36184 36078 36028 35967 35880 35780 35683 35631 35711 35707 35634 35660 35705 35677 35729 35711 35618 35628 35774 35900 35776 35680 35602 35515 35446 35348 35337 35501 35673 35725 35658 35506 35338 35290 35299 35298 35487 35709 35893 35759 35616 35458 35233 35137 35068 35088 35173 35321 35437 35376 35182 34986 34871 34883 34920 35095 35342 35659 35879 35638 35292 34981 34832 34824 34796 34783 34826 34929 35098 34876 34625 34428 34374 34336 34403 34705 35061 35369 35086 34761 34414 34257 34249 34295 34477 34713 34956 35195 34922 34579 34384 34326 34347 34498 34773 35117 35390 35235 34818 34382 34211 34180 34253 34451 34673 34887 35201 35050 34701 34382 34266 34237 34343 34565 34839 35043 35134 34792 34516 34236 34084 34280 34381 34598 34872 35245 35593 35742 35821 35723 35666 35849 36178 36365 36615 36843 36882 36140 35638 35098 34699 34343 34301 34355 34607 34829 34777 34568 34543 34888 35166 35471 35930 36126 36251 36383 36246 35814 35466 35303 35257 35333 35482 35729 35925 35950 35583 35357 35357 35442 35573 35778 35988 36147 36302 36139 35701 35479 35380 35419 35506 35637 35833 36000 36066 35686 35401 35240 35244 35330 35490 35654 35771 35872 35697 35082 34766 34688 34677 34785 34978 35200 35408 35610 35422 35062 34806 34729 34842 35094 35384 35595 35769 35908 35370 35046 34840 34809 34887 35059 35288 35524 35716 35561 35125 34872 34829 34920 35141 35330 35518 35642 35707 35231 34976 34857 34907 35173 35519 35835 36134 36200 35943 35476 35222 35189 35328 35534 35702 35952 35534 35468 35316 35153 35084 35082 35176 35343 35530 35692 35391 35247 35176 35064 34958 34968 35097 35259 35550 35569 35578 35523 35270 35038 34947 34909 34999 35186 35392 35438 35215 35001 34720 34564 34539 34751 35048 35212 35427 35583 35469 35160 34663 34303 34153 34113 34170 34455 34836 35106 35213 34968 34396 33877 33677 33836 34070 34385 34705 34970 35058 34775 34241 33865 33729 33870 34192 34478 34726 35049 35243 34878 34201 33901 33671 33695 33900 34135 34315 34470 34613 34534 34285 34189 34172 34381 34719 34914 35197 35449 35383 34901 34513 34208 34157 34304 34523 34737 34891 34960 34748 34343 34014 33854 33847 34039 34207 34425 34572 34603 34581 34308 34110 34052 34127 34274 34399 34497 34580 34639 34510 34166 34023 33980 33976 34098 34274 34486 34757 34736 34518 34346 34153 34129 34281 34477 34679 34854 35053 34898 34640 34348 34167 34075 34202 34476 34772 35038 35267 35060 34673 34452 34268 34219 34374 34643 34886 35197 35166 34829 34621 34492 34436 34406 34415 34554 34715 35024 35291 34977 34612 34407 34337 34282 34449 34871 35431 35858 36115 36290 36790 37226 37581 37605 37620 37430 37307 37393 37081 36345 35925 35853 35922 36197 36556 36811 36917 36960 36426 35873 35657 35600 35600 35669 35818 36025 36257 36489 36153 35974 36114 36396 36641 36893 37242 37471 37590 37633 36948 36573 36312 36125 36122 36323 36533 36834 37110 37365 37053 37088 37375 37344 37367 37453 37566 37702 37885 38074 37649 37353 37290 37293 37431 37556 37734 37918 38118 38198 37692 37352 37269 37414 37769 37943 38041 38224 38338 38191 37503 37201 37146 37173 37188 37327 37491 37531 37354 36806 36330 35967 35910 35982 36216 36407 36490 36761 36721 36277 35921 35652 35624 35767 36008 36232 36279 36231 35967 35734 35689 35716 35863 36248 36627 36784 37151 37685 38094 38310 37910 37450 37311 37352 37588 37799 37888 37878 37522 36972 36693 36728 36914 37144 37255 37379 37398 37051 36509 36109 35984 36038 36169 36454 36693 36867 36674 36290 36067 36019 36132 36357 36635 36915 37212 37428 37475 36889 36410 36261 36257 36297 36526 36865 37147 37350 37603 37696 37593 37523 37496 37637 37826 37977 38213 38360 38218 37699 37457 37372 37415 37571 37731 37853 37829 37933 37553 37097 36998 37170 37366 37525 37674 38019 38049 37874 37384 37173 37100 37093 37274 37449 37596 37474 37091 36535 35984 35772 35767 35823 35914 35910 35829 35615 35428 35065 34873 34929 35110 35354 35714 35953 35933 35770 35564 35181 34981 34968 35165 35402 35599 35828 35791 35740 35423 34942 34712 34765 34918 35198 35456 35580 35419 35212 34710 34530 34655 34792 34994 35118 35281 35008 34941 34669 34407 34395 34543 34743 35080 35379 35485 35341 35300 35029 34971 35079 35233 35462 35680 35886 35773 35709 35452 35141 35036 35081 35269 35531 35718 35846 35848 35872 35660 35507 35516 35599 35785 35981 36228 36383 36324 36160 35801 35528 35480 35564 35767 35971 36067 35983 35919 35554 35279 35350 35520 35732 35974 36241 36252 36149 35880 35543 35429 35490 35620 35884 36127 36248 36131 36009 35758 35612 35603 35722 35888 36101 36340 36226 35967 35892 35609 35536 35595 35719 35952 36209 36416 36391 36251 35928 35717 35732 35927 36138 36267 36378 36521 36337 36243 35889 35624 35537 35587 35750 35998 36223 36410 36578 36446 36142 35987 35936 36059 36261 36508 36758 36781 36614 36247 36023 35957 36067 36264 36508 36740 36893 36924 36474 36068 35845 35801 35948 36166 36417 36650 36583 36428 35942 35486 35361 35493 35718 36004 36266 36247 35998 35622 35221 35040 35039 35260 35558 35861 36099 36242 36065 35559 35217 35125 35245 35444 35764 36016 36215 36178 35816 35481 35304 35403 35598 35877 36126 36344 36422 36162 35787 35503 35421 35502 35634 36025 36476 36936 37110 36962 36678 36448 36503 36687 36876 37014 37098 37328 37366 36660 36300 36159 36279 36447 36658 36866 37081 37229 36739 36249 35934 35893 36086 36360 36567 36744 36970 36552 36130 35820 35688 35744 35829 36110 36430 36617 36791 36112 35759 35659 35718 35887 36148 36410 36546 36634 36243 35640 35393 35290 35381 35489 35624 35978 36354 36809 36901 36727 37109 37381 37426 37651 37778 37866 38026 38179 37665 37440 37618 37717 37744 37822 37922 38003 38113 37637 37317 37357 37758 38055 38291 38414 38418 38451 38058 38017 37942 38039 38259 38446 38554 38572 38621 38535 37886 37424 37208 37321 37430 37595 37792 37911 37957 37456 37256 37022 37051 37241 37443 37630 37712 37886 38029 37848 37447 37360 37495 37490 37553 37763 37954 38016 37416 37198 36851 36771 36791 36890 37043 37159 37302 37173 36821 36535 36199 36111 36134 36173 36348 36582 36716 36251 35974 35932 35774 35764 35806 35988 36220 36451 36468 36218 36134 35923 35807 35920 36118 36294 36630 36897 36694 36391 36469 36273 36246 36369 36477 36683 36885 36826 36608 36516 36542 36389 36276 36263 36312 36426 36583 36416 36215 36064 36129 36088 36086 36095 36126 36241 36239 36092 36053 36107 36207 36262 36323 36322 36329 36434 36421 36269 36113 36234 36215 36176 36221 36299 36409 36361 36128 36110 36183 36366 36268 36291 36231 36308 36534 36636 36489 36421 36460 36635 36841 36912 36906 36944 36921 36658 36434 36431 36589 36814 36999 37161 37113 37153 37151 36981 36998 37094 37238 37394 37616 37640 37537 37319 36877 36651 36659 36795 37050 37250 37469 37394 37174 36863 36451 36344 36396 36582 36751 36903 37080 36936 36812 36485 36138 36015 36019 36240 36512 36760 36849 36819 36735 36415 36266 36308 36429 36568 36749 36898 36748 36694 36405 36117 36009 36095 36299 36542 36791 36832 36793 36715 36443 36276 36247 36290 36379 36455 36670 36456 36393 36320 36138 36111 36142 36240 36431 36662 36827 36982 36959 36918 36667 36607 36657 36702 36780 36992 36863 36848 36791 36583 36318 36253 36279 36443 36681 36908 36993 36917 36769 36527 36454 36522 36741 37013 37232 37286 37319 37430 37261 36828 36630 36561 36656 36866 37015 36977 36863 36730 36558 36370 36391 36570 36862 37067 37242 37072 36750 36630 36539 36441 36517 36639 36817 36900 37034 37129 37140 37135 37064 37041 37122 37215 37356 37586 37561 37412 37390 37333 37151 37060 37109 37271 37409 37319 37212 37133 37119 37128 36962 36859 36893 36958 37180 37271 37224 37118 37060 36969 36765 36682 36785 36860 36861 36860 36934 36972 37002 37025 36992 37043 37061 37218 37374 37316 37364 37497 37612 37450 37284 37253 37308 37404 37412 37386 37347 37454 37678 37625 37500 37402 37306 37275 37171 37093 37124 37186 37070 36808 36715 36740 36932 37119 37263 37276 37214 37222 37122 36929 36826 36802 36901 36884 36803 36759 36798 36933 36877 36785 36724 36711 36761 36907 37122 37283 37423 37632 37742 37412 37299 37400 37493 37527 37508 37438 37560 37730 37549 37354 37320 37376 37537 37575 37555 37553 37638 37680 37264 37045 37051 37011 37085 37154 37210 37328 37421 37391 37083 36941 36924 36938 36936 36995 37098 37182 37360 37379 36967 36821 36829 36801 36913 37012 37144 37301 37430 37332 37082 37076 37089 37121 37170 37173 37243 37428 37611 37227 36946 36902 36827 36863 36873 36909 37016 37127 37113 36840 36714 36591 36524 36553 36603 36674 36817 37009 37003 36659 36559 36467 36390 36379 36327 36369 36538 36723 36625 36403 36349 36268 36300 36389 36453 36513 36640 36852 36586 36285 36186 36028 35940 35885 35885 35990 36143 36185 35956 35831 35814 35692 35681 35846 35993 36168 36328 36235 35876 35775 35713 35699 35767 35852 35999 36163 36285 36154 35873 35742 35433 35395 35462 35471 35574 35789 36038 35802 35657 35432 35154 35036 34936 35081 35300 35452 35361 35018 34845 34543 34288 34162 34129 34271 34558 34878 34753 34586 34429 34319 34273 34214 34194 34315 34430 34587 34403 34293 34247 34146 34097 34119 34298 34506 34733 34635 34395 34349 34341 34331 34221 34190 34390 34703 35002 35049 34929 34915 34813 34881 34863 34788 34884 35142 35453 35354 35183 35233 35199 35070 34979 34959 35054 35230 35295 35094 34930 34582 34488 34475 34446 34496 34689 34942 34803 34613 34576 34560 34574 34568 34585 34719 34844 34950 34854 34816 34805 34810 34871 34886 34908 35038 35340 35366 35120 35061 35109 35041 34959 34915 35035 35274 35460 35436 35357 35389 35437 35541 35648 35675 35792 36025 36142 35897 35820 35869 35862 35826 35776 35718 35768 35823 35691 35626 35595 35740 35823 35778 35729 35774 35938 36082 35953 35809 35791 35919 35618 35597 35548 35589 35703 35592 35486 35568 35683 35983 36140 36170 36189 36212 36195 36097 36121 36141 36290 36428 36193 36045 35959 35974 35820 35707 35785 35930 36148 36223 36091 36021 35995 36111 36154 36238 36280 36422 36565 36456 36322 36241 36250 36127 36056 36196 36355 36542 36465 36431 36266 36196 36174 36048 36036 36081 36146 36258 36109 36147 36070 36071 35996 35915 35925 36064 36169 36323 36381 36492 36578 36609 36483 36393 36371 36318 36472 36600 36606 36702 36689 36401 36208 36098 36173 36265 36452 36420 36377 36344 36213 35971 35799 35773 35830 36007 36225 36109 35993 35940 35673 35436 35307 35386 35615 35832 36024 35977 35860 35631 35255 34981 34914 35105 35355 35619 35812 35665 35602 35331 35022 34845 34901 35184 35479 35778 35897 35920 35886 35599 35454 35446 35533 35640 35736 35968 35943 35789 35518 35257 35095 35026 35206 35496 35769 35882 35910 35846 35503 35311 35291 35320 35428 35625 35840 35795 35783 35491 35201 35130 35227 35435 35750 36006 36196 36274 36272 35953 35734 35688 35793 35950 36080 36285 36416 36370 36183 35775 35641 35640 35714 35951 36228 36355 36419 36496 36212 35988 35942 36046 36246 36449 36650 36586 36427 36219 35780 35563 35538 35657 35913 36162 36402 36469 36409 36108 35861 35769 35886 36131 36464 36701 36717 36745 36568 36048 35747 35591 35594 35802 36058 36310 36403 36418 36093 35666 35498 35589 35834 36081 36315 36508 36465 36193 35628 35243 35106 35192 35474 35764 35966 35940 35724 35248 34762 34588 34671 34900 35131 35374 35580 35362 35059 34549 34240 34150 34271 34572 34912 35195 35263 35244 34947 34668 34593 34658 34833 35053 35305 35424 35285 35170 34832 34633 34591 34687 34992 35361 35651 35857 35971 35562 35099 34874 34896 35092 35322 35535 35734 35820 35432 34996 34537 34290 34227 34229 34533 35040 35371 35595 35518 34841 34545 34364 34271 34351 34646 35030 35269 35476 35269 34742 34461 34373 34395 34539 34733 35003 35282 35438 35069 34811 34743 34702 34785 35017 35337 35562 35701 35406 34870 34637 34473 34417 34502 34739 35048 35349 35461 35048 34746 34611 34519 34594 34805 35066 35273 35475 35391 35093 34771 34592 34567 34710 34925 35235 35580 35718 35366 35155 35050 35050 35165 35355 35580 35729 35810 35526 35164 34929 34766 34738 34903 35154 35374 35669 35757 35508 35388 35261 35155 35113 35267 35567 35829 36009 35863 35549 35267 35102 35066 35241 35503 35772 36035 36062 35749 35549 35416 35344 35371 35564 35734 35926 35996 35721 35329 35092 35019 35009 35212 35449 35711 36026 36059 35813 35563 35493 35512 35612 35800 36057 36290 36397 36136 35885 35679 35562 35542 35503 35562 35742 36019 36059 35823 35563 35450 35453 35468 35589 35826 36128 36310 35914 35760 35525 35416 35330 35266 35310 35433 35618 35538 35299 35178 35131 35154 35161 35250 35428 35664 35841 35624 35501 35463 35458 35474 35467 35587 35691 35840 35845 35608 35628 35739 35931 35960 35930 35865 35959 36105 35780 35521 35466 35364 35323 35352 35399 35539 35679 35635 35465 35478 35438 35523 35611 35647 35682 35752 35847 35579 35357 35417 35531 35650 35723 35728 35818 35904 35956 35811 35744 35685 35779 35917 35951 35963 36055 36290 36243 35962 35791 35692 35580 35607 35596 35724 35959 36102 36044 36017 36115 36196 36318 36423 36415 36440 36619 36542 36352 36245 36307 36108 36083 36085 36083 36181 36120 35981 35925 35891 35922 36003 36100 36176 36280 36378 36364 36199 36079 36171 36235 36151 36107 36098 36174 36244 36075 35966 35990 36239 36822 37546 38348 38781 38939 38922 38580 38021 38201 38348 38453 38482 38362 38257 38054 37587 37343 37251 37290 37325 37307 37308 37344 37393 37309 37011 36777 36701 36684 36625 36576 36508 36537 36640 36563 36526 36502 36531 36605 36825 36943 36941 37051 37217 37056 36840 36767 36793 36799 36749 36746 36822 36981 36926 36806 36786 36747 36763 36811 36764 36794 36927 37130 36877 36634 36584 36502 36452 36464 36480 36587 36679 36676 36557 36461 36390 36340 36459 36590 36625 36687 36835 36837 36557 36431 36459 36365 36305 36222 36209 36256 36289 36097 35949 35839 35729 35829 35786 35868 36120 36450 36585 36359 36333 36429 36380 36360 36374 36464 36611 36705 36563 36335 36145 35855 35781 35615 35564 35691 35986 36282 36067 35795 35631 35407 35419 35448 35677 35991 36228 36304 36113 36049 35806 35717 35718 35621 35745 36053 36306 36021 35858 35720 35496 35631 35734 35801 35974 36173 36224 36039 35950 35846 35817 36007 36020 36039 36235 36474 36429 36168 36013 35818 35624 35506 35535 35684 35939 36089 35827 35625 35223 35224 35096 35024 35208 35532 35792 35584 35375 34983 34664 34670 34745 35032 35346 35662 35926 35538 35168 34815 34730 34676 34640 34856 35247 35558 35335 34846 34384 34216 34096 34029 34216 34510 34855 35182 34997 34643 34421 34463 34342 34394 34661 35040 35360 35230 34679 34338 34202 34159 34374 34673 34968 35268 35493 35099 34476 34209 34024 33881 33993 34285 34588 34715 34484 33840 33538 33474 33470 33709 33862 34028 34079 33972 33249 32472 31948 31861 32007 32463 32821 33200 33584 33622 33601 33840 34253 34562 34893 35254 35116 35022 35183 35250 35193 34804 34293 33714 33594 33379 33223 33113 32918 32705 32590 32703 33101 33488 33793 33915 34087 34191 34537 34464 34424 35211 36042 36583 37053 37429 37345 37296 37009 36314 36141 36255 36386 36638 36876 37386 37699 37926 38231 38381 38440 38456 38294 38272 38184 38187 38173 38218 38263 38247 38234 38361 38572 38704 38598 38424 38426 38437 38423 38553 38716 38842 38791 38692 38700 38633 38461 38255 38077 38205 38341 38497 38516 38653 38757 38812 38935 39165 39370 39531 39654 39620 39710 39749 39715 39784 39796 39812 39814 39759 39692 39793 38935 38930 39076 39211 39324 39173 39163 39178 39058 38927 39028 39148 39226 39372 39400 39756 40167 40368 40370 40241 40059 40010 39928 39833 39748 39612 39451 39206 38559 38445 38494 38718 38864 38952 39104 39104 38872 38265 38040 37925 38293 38502 38567 38570 38930 39141 38535 38029 37424 36789 36498 36328 36235 36091 35626 34741 34160 34246 34356 34555 34972 35040 35254 35294 35036 34986 35024 35114 35276 35510 35790 36058 36273 36241 36144 35657 35422 35538 35738 35953 36006 36099 35730 35106 34722 34552 34598 34607 34734 34874 34728 34290 33572 33012 32753 32861 33076 33232 33416 33508 33094 32403 31852 31514 31429 31487 31756 31929 32247 32162 31590 31217 31239 31381 31750 32252 32696 33037 33069 32448 31747 31377 31298 31394 31651 31919 32132 32261 31789 31372 31192 31295 31593 32061 32347 32554 32780 32493 31896 31568 31458 31565 31863 32218 32532 32866 32770 32378 32289 32252 32506 32788 32994 33234 33514 33472 32972 32419 32111 31998 31973 32023 32200 32417 32316 31702 31627 31879 32125 32415 32657 32988 33331 33646 33472 33080 32638 32413 32399 32435 32579 32823 32940 32530 32458 32477 32672 33009 33306 33634 33927 34088 33353 32579 32066 31949 32088 32255 32458 32651 32891 32539 32250 32156 32264 32492 32959 33145 33315 33528 32929 32375 31988 31812 31846 32004 32256 32504 32587 32131 31904 31954 32133 32411 32700 32994 33353 33617 33277 32560 32120 31952 32042 32185 32367 32529 32696 32753 32335 32107 32095 32235 32478 32714 32941 33123 33261 32878 32312 31986 32013 32421 32700 32830 33293 33499 33451 33005 32729 32573 32555 32699 32890 33140 33418 33475 33239 32962 32770 32657 32646 32747 32910 33041 33087 32846 32471 31982 32103 32278 32531 32825 33044 33282 33174 32926 32580 32368 32323 32466 32809 33084 33196 33352 33127 32529 32260 32203 32259 32440 32624 32860 33018 32784 32477 32107 31836 31655 31639 31731 31898 32152 32108 31844 31556 31569 31746 31996 32355 32823 33206 33185 32885 32527 32110 31988 31973 31988 32052 32200 32320 32257 32217 31973 31802 31787 31851 32077 32392 32744 32826 32619 32431 32092 31851 31786 31891 32061 32291 32396 32375 32224 31997 32109 32291 32532 32842 33103 33176 32980 32734 32512 32179 32004 31900 31940 32097 32252 32242 32230 32065 31987 32061 32284 32619 32883 33282 33318 33202 33307 33608 33801 33982 34093 34281 34489 34740 34680 34669 34621 34756 34919 35096 35243 35407 35564 35353 35197 35265 35270 35408 35549 35666 35800 35929 35738 35486 35446 35403 35474 35643 35731 35804 35888 35942 35637 35488 35528 35478 35460 35400 35426 35481 35516 35366 35201 35110 35025 35094 35138 35156 35300 35483 35511 35264 35142 35184 35182 35257 35285 35339 35472 35488 35303 35193 35235 35309 35443 35586 35730 35880 36010 35728 35386 35259 35343 35385 35404 35472 35508 35603 35487 35284 35223 35302 35430 35531 35513 35515 35560 35681 35534 35381 35365 35536 35556 35509 35556 35656 35742 35561 35443 35440 35597 35710 35811 35841 35930 36049 36068 35795 35634 35606 35723 35730 35744 35743 35701 35730 35525 35394 35334 35398 35495 35603 35685 35689 35778 35737 35492 35281 35143 35369 35400 35336 35282 35228 35223 34998 34876 34841 34880 34975 35081 35101 35244 35409 35371 35217 35112 35098 35305 35312 35427 35431 35499 35439 35159 35047 35062 35244 35383 35521 35604 35674 35774 35589 35403 35244 35229 35524 35633 35638 35658 35715 35702 35521 35454 35525 35679 35819 35891 35817 35775 35833 35687 35583 35563 35607 35850 35925 35915 35900 35907 35711 35577 35497 35579 35754 36000 36148 36192 36095 35967 35746 35668 35638 35669 35829 36105 36131 36168 36123 35841 35656 35532 35565 35627 35788 35902 35908 35870 35677 35548 35519 35552 35640 35701 35867 35890 35857 35763 35445 35251 35162 35161 35198 35239 35271 35204 35120 34749 34503 34471 34538 34550 34511 34625 34928 34861 34659 34334 34173 34249 34451 34670 34834 34988 35056 35091 34852 34641 34605 34752 35091 35372 35754 36265 36561 36467 36071 35819 35845 35943 36125 36291 36348 36351 36351 35951 35662 35633 35789 35956 36090 36136 36142 36041 35498 35071 34892 34861 34930 35105 35388 35741 35957 36055 35845 35801 35988 36089 36128 36220 36286 36359 36061 35527 35247 35127 35153 35255 35444 35576 35743 35738 35313 35098 35018 35063 35192 35340 35484 35633 35710 35308 34918 34645 34565 34626 34751 34943 35091 35150 35135 34715 34368 34313 34447 34616 34851 34963 35119 35067 34444 33881 33506 33396 33472 33657 33923 34083 33915 33399 32755 32357 32417 32681 33035 33349 33565 33739 33463 32925 32480 32346 32461 32663 32986 33255 33392 33381 33057 32719 32562 32637 32915 33162 33332 33511 33524 33149 32680 32292 32167 32262 32506 32787 32864 32676 32453 32031 31717 31903 32230 32640 32932 33130 33161 32816 32406 32055 31865 31762 31767 32046 32361 32559 32597 32513 32247 31879 31967 32275 32641 32995 33261 33481 33281 32823 32396 32254 32328 32506 32795 33050 33183 33097 32799 32521 32506 32746 32977 33178 33365 33526 33669 33230 32898 32629 32554 32609 32671 32915 33247 33527 33573 33319 33032 32821 32799 32989 33204 33334 33294 33529 33258 32988 32892 32880 32977 33003 33091 33345 33448 33118 32690 32660 32506 32503 32762 33026 33225 33472 33611 33091 32857 32724 32748 32982 33189 33489 33744 33799 33218 32889 32654 32571 32661 32915 33155 33323 33417 33264 32862 32688 32597 32668 32754 32733 32802 33039 33191 32910 32742 32632 32606 32684 32864 33087 33354 33601 33509 33211 32943 32825 32863 32965 33145 33396 33680 33650 33413 33176 32904 32821 32977 33181 33508 33751 33697 33310 32972 32779 32716 32823 33003 33292 33579 33723 33419 33173 32987 32872 32841 33055 33333 33544 33722 33552 33092 32952 32838 32888 33079 33294 33499 33647 33542 33051 32795 32674 32671 32747 32939 33080 33295 33493 33213 32975 32758 32688 32710 32828 33009 33269 33514 33353 33075 32820 32766 32713 32801 33092 33319 33480 33335 33246 32894 32593 32283 32019 31868 31865 31933 32194 32207 32292 32440 32763 32520 32335 32292 32539 32617 32521 32590 32751 32836 32838 32844 32720 32791 32887 32799 32765 32911 33132 33325 33402 33249 33082 32983 32867 32987 33245 33501 33706 33901 33748 33667 33502 33323 33232 33210 33352 33643 33875 33957 33912 33731 33501 33316 33372 33491 33717 33950 34146 34062 33892 33600 33216 33145 33248 33433 33699 33874 34043 34033 33868 33482 33333 33315 33460 33618 33749 34028 33928 33864 33599 33426 33444 33567 33770 34068 34328 34510 34405 34095 33736 33595 33628 33787 34044 34318 34553 34343 34146 33744 33431 33345 33462 33722 34059 34243 34369 34431 34066 33716 33554 33636 33881 34174 34330 34431 34246 33645 33121 32769 32627 32752 33073 33368 33475 33330 33022 32691 32658 32739 32922 33203 33505 33768 34024 33554 32893 32374 32260 32443 32494 32721 33050 33282 33100 32648 32038 31743 31757 32018 32443 32950 33316 33632 33519 33144 32792 32680 32763 32886 33167 33432 33442 33048 32485 32372 32361 32517 32936 33409 33714 33938 34044 33531 33118 32916 32941 33103 33300 33558 33811 33758 33395 33256 33055 33075 33283 33631 33925 34083 34182 33667 33325 33076 33019 33179 33358 33542 33831 34006 33732 33421 33344 33232 33314 33497 33726 33999 34199 34079 33816 33546 33440 33462 33627 33841 34098 34361 34316 33940 33652 33508 33458 33611 33926 34240 34416 34287 34147 33878 33591 33604 33737 33922 34088 34294 34374 34152 33827 33720 33681 33648 33792 34092 34382 34478 34263 34171 34040 33977 33960 34044 34210 34382 34607 34494 34306 34067 34006 33929 33956 34174 34500 34898 34868 34752 34699 34559 34473 34459 34516 34807 35097 35146 35009 34834 34766 34785 34734 34765 34988 35256 35138 34873 34764 34657 34371 34350 34380 34510 34639 34608 34531 34479 34525 34507 34565 34565 34585 34776 34994 35028 35030 35012 35123 35064 34949 34863 34878 34930 34815 34862 34869 34909 34938 34920 34804 34795 34907 34870 34834 34762 34752 34958 34768 34675 34689 34657 34503 34387 34494 34655 34826 34934 34978 34927 34866 34750 34694 34756 34790 34890 35103 35026 34849 34759 34602 34442 34338 34532 34677 34766 34848 34862 34839 34815 34694 34565 34562 34654 34769 35068 35016 34897 34867 34695 34622 34550 34714 34890 34983 35049 35049 34887 34600 34473 34460 34554 34601 34778 34843 34765 34761 34655 34446 34443 34475 34583 34686 34801 34754 34859 34675 34475 34440 34566 34738 34970 35156 35406 35379 35173 34698 34416 34416 34535 34761 34978 35214 35266 35097 34632 34341 34328 34449 34682 34905 35044 35302 35139 34607 34202 34051 34128 34316 34597 34880 35036 35072 34719 34322 34037 34043 34210 34497 34790 35073 35262 35041 34570 34218 34020 34097 34341 34628 34929 35147 35306 34903 34677 34570 34525 34578 34728 34865 34952 35164 34833 34280 33906 33779 33802 33968 34163 34495 34733 34513 33964 33714 33481 33455 33599 33813 34015 34181 34116 33817 33353 33226 33208 33247 33392 33527 33759 34033 33889 33718 33552 33558 33589 33685 33889 34235 34468 34231 34017 33811 33605 33444 33447 33571 33782 33990 33883 33699 33423 33419 33456 33468 33508 33631 33807 33671 33441 33300 33254 33090 32997 33053 33164 33298 33505 33424 33252 33114 33154 33116 33153 33360 33696 33961 33793 33746 33691 33514 33400 33380 33479 33668 33929 33884 33627 33339 33326 33200 33252 33455 33720 33921 33720 33533 33471 33272 33202 33179 33319 33510 33700 33748 33712 33685 33652 33736 33779 33828 33942 34090 34210 34025 33974 33952 33718 33591 33496 33557 33705 33867 33872 33822 33719 33682 33653 33637 33828 34068 34266 34080 33913 33957 33806 33658 33523 33539 33631 33750 33743 33790 33755 33490 33484 33521 33486 33619 33841 33939 33887 33850 33951 33947 33769 33611 33636 33760 33836 33871 33938 34090 34260 34488 34837 35228 35604 35870 35835 35848 35952 36059 35971 35914 35719 35678 35642 35439 35405 35502 35714 35847 35966 35934 35974 36125 36169 36122 36156 36265 36556 36632 36576 36491 36462 36293 36197 36253 36413 36641 36867 37074 37373 37480 37366 37170 37157 37134 37168 37243 37090 36929 36795 36464 36190 36043 36077 36149 36231 36150 35992 35865 35678 35538 35515 35568 35635 35751 35963 35921 35770 35783 35626 35528 35513 35607 35754 35834 35733 35632 35602 35330 35185 35196 35349 35532 35757 35952 35928 35805 35513 35354 35305 35433 35640 35851 35997 36144 36237 36142 35941 35905 35969 36085 36223 36320 36421 36280 35901 35442 35156 35085 35150 35262 35336 35314 35374 35356 35007 34872 34904 35037 35221 35397 35545 35715 35372 34899 34530 34407 34460 34622 34893 35162 35348 35366 34881 34460 34262 34308 34506 34761 34966 35160 35344 34950 34483 34179 34070 34147 34334 34585 34824 34978 34832 34173 33840 33657 33729 33925 34177 34478 34735 34843 34503 34159 33881 33843 33902 34026 34197 34426 34674 34490 34211 33967 33846 33888 34001 34094 34281 34503 34588 34474 34402 34363 34141 34030 33933 33881 33961 34039 34105 34207 34331 34531 34609 34670 34825 34982 35054 34947 34896 34875 35012 34979 34977 35014 35048 35004 34899 34932 35067 35175 35316 35264 35175 35160 35062 34927 34958 35059 35175 35329 35523 35460 35428 35389 35157 34990 35003 35059 35227 35413 35572 35715 35553 35100 34831 34729 34813 35009 35330 35532 35615 35689 35251 34945 34592 34354 34333 34448 34561 34629 34819 35094 35014 34910 34761 34610 34577 34702 34884 35049 35199 35024 34851 34755 34507 34377 34307 34318 34429 34578 34561 34519 34464 34462 34409 34391 34489 34742 34930 34901 34776 34712 34791 34864 34813 34755 34742 34816 34746 34629 34715 34719 34783 34800 34817 34829 34881 35023 35047 35031 34994 35134 35198 35039 34895 34776 34673 34544 34556 34655 34628 34702 34682 34731 34884 34983 34952 34958 35015 35104 35231 35344 35145 35003 34856 34628 34523 34555 34755 34914 35010 34910 34891 34885 34746 34699 34747 34822 34840 34996 34962 34899 34801 34497 34292 34236 34380 34633 34775 34858 34827 34836 34724 34564 34586 34744 34979 35153 35313 35425 35265 35055 34717 34570 34575 34698 34975 35090 35096 35019 34791 34442 34372 34434 34538 34630 34756 34895 34551 34301 33918 33764 33802 33935 34139 34377 34475 34425 34421 34192 33914 33917 34119 34336 34460 34595 34487 34311 34069 33748 33676 33772 33998 34278 34417 34414 34325 34166 33832 33808 34025 34253 34452 34569 34739 34537 34394 34065 33898 33882 34007 34192 34466 34542 34451 34529 34285 33959 33888 34027 34270 34509 34683 34734 34505 34296 34047 33891 33940 34118 34379 34549 34595 34435 34274 33923 33652 33703 33943 34290 34519 34709 34599 34521 34199 33971 33985 34160 34384 34649 34768 34769 34872 34681 34525 34525 34658 34761 34759 34816 34967 35018 34855 34612 34538 34596 34755 34997 35098 35197 35125 34958 34503 34295 34360 34512 34723 34764 35046 35022 34797 34494 34303 34302 34434 34680 35002 35215 35196 35186 34822 34472 34464 34629 34839 34939 35193 35159 35074 34761 34474 34338 34410 34607 34835 34954 35054 35061 35024 34734 34567 34647 34871 35046 35246 35550 35494 35476 35204 34980 34926 35001 35267 35490 35690 35659 35693 35344 35052 34985 35096 35234 35370 35577 35732 35527 35182 34835 34744 34750 34896 35063 35214 35257 35083 34986 34518 34208 34166 34362 34561 34631 34786 34758 34635 34147 33817 33725 33772 33950 34186 34402 34518 34400 34213 33906 33694 33701 33883 34076 34224 34438 34420 34180 33822 33545 33443 33478 33616 33901 34156 34391 34470 34169 33843 33510 33561 33827 34118 34354 34549 34565 33992 33487 33211 33178 33274 33492 33749 33948 33986 33636 33375 33133 33042 33227 33506 33753 33999 34040 33697 33255 32931 32947 33138 33329 33617 33827 33857 33671 33422 33102 32926 33058 33264 33394 33477 33608 33553 33187 32898 32858 32989 33119 33382 33560 33658 33443 33158 32807 32577 32655 32857 33116 33280 33551 33418 33076 32764 32651 32778 32960 33162 33391 33518 33487 33313 32893 32514 32534 32776 33050 33246 33367 33500 33130 32679 32500 32618 32782 33036 33292 33456 33460 33201 32786 32412 32474 32763 33086 33380 33525 33491 33321 32925 32633 32638 32805 32947 33288 33476 33548 33439 33104 32744 32600 32742 32943 33182 33388 33565 33486 32994 32592 32403 32474 32658 32952 33208 33207 33076 32682 32260 32099 32278 32596 33005 33176 33269 33039 32599 32276 32218 32449 32753 32964 33055 33177 33048 32335 32186 32235 32433 32829 33178 33216 33429 33577 33797 33998 34127 34321 34698 35079 35383 35630 35912 36124 36263 36405 36497 36513 36242 36208 36164 35919 35804 35772 35735 35739 35666 36004 36219 36648 36824 37028 37119 37211 37326 37514 37693 37780 37850 37786 37913 37811 37920 37974 38073 38263 38358 38389 38445 38334 38183 38127 38087 38058 38135 38176 38291 38343 38200 38077 38040 38191 38312 38491 38589 38630 38695 38564 38439 38340 38676 38894 39079 39307 39462 39593 39556 39496 39464 39472 39595 39731 39835 39868 39886 39889 39829 39835 39816 39903 39872 39953 39797 39641 39416 39181 38936 38733 38620 38732 38824 38956 39067 39064 38923 39153 39232 39183 39165 39108 39092 39093 39000 38289 37751 37590 37564 37704 37670 37753 37930 38030 36880 35949 35193 34807 34695 34859 35055 35201 34717 34058 33526 33267 33503 33747 34028 34535 34882 34990 34752 34809 35002 35212 35540 35723 35909 36077 36239 36294 36384 36526 36562 36601 36635 36781 36938 37017 36863 36703 36544 36503 36507 36578 36647 36763 36745 36560 36641 36677 36731 36820 36860 36735 36746 36636 36270 36098 35864 35823 35858 35978 36155 36353 36387 36109 36033 35949 35876 35748 35694 35743 35811 35752 35481 35337 35294 35231 35249 35431 35712 36140 36328 36327 36423 36406 36081 35768 35654 35727 35786 35686 35353 35075 34741 34516 34445 34454 34593 34789 34880 34627 34429 34411 34362 34191 34109 34088 34116 34100 34072 34104 34109 34220 34284 34077 33979 33973 33922 33925 34014 34097 34188 34385 34160 34008 33939 33720 33561 33537 33647 33803 33921 33805 33721 33644 33565 33513 33556 33638 33728 33887 34012 33788 33617 33349 33104 33009 33151 33423 33648 33642 33620 33611 33461 33262 33194 33215 33291 33460 33721 33654 33474 33085 32762 32679 32756 32980 33202 33320 33355 33313 33121 32813 32762 32908 33123 33337 33444 33699 33704 33337 32821 32526 32512 32655 32904 33190 33383 33529 33494 33022 32718 32710 32897 33140 33387 33605 33792 33344 32574 32010 31916 32156 32448 32756 33078 33203 33155 32797 32584 32484 32585 32868 33193 33465 33682 33866 33595 33113 32811 32788 32933 33067 33288 33555 33648 33508 33059 32854 32809 32952 33239 33562 33788 33928 33737 33121 32780 32631 32710 32796 32976 33212 33379 33301 32733 32493 32304 32253 32473 32820 33102 33293 33471 33144 32828 32630 32683 32934 33213 33482 33755 33810 33473 33107 32916 32743 32835 33177 33571 33851 34031 33616 33151 32978 32975 33189 33446 33732 34063 34243 33814 33393 33143 32970 32999 33261 33634 33913 34015 33930 33433 33174 33057 33275 33606 33964 34254 34514 34586 33996 33605 33492 33519 33677 33965 34270 34442 34516 33899 33611 33484 33530 33839 34186 34426 34714 34898 34272 33887 33729 33709 33839 34044 34273 34446 34528 34141 33820 33613 33553 33681 33881 34154 34423 34703 34441 33984 33773 33757 33722 33837 34125 34434 34490 34318 33799 33688 33691 33820 34103 34300 34474 34692 34580 33986 33699 33507 33450 33599 33821 34130 34366 34473 33919 33704 33566 33570 33690 33878 34126 34446 34581 34274 33858 33712 33804 33869 34075 34397 34640 34822 34660 34113 33902 33902 33941 34029 34198 34408 34635 34379 34103 33764 33667 33581 33574 33704 33920 34125 34055 33878 33661 33611 33564 33604 33835 34121 34356 34386 34208 33899 33691 33635 33583 33638 33878 34183 34244 34084 33967 33708 33613 33568 33611 33745 33936 34057 33985 33879 33771 33761 33714 33757 33917 34142 34283 34128 34091 34058 33944 33892 33922 33979 34075 34189 34205 34072 33943 33784 33763 33686 33746 33958 34192 34144 34008 34031 33881 33817 33804 33775 33870 33959 33946 34012 33932 33822 33853 33866 33832 33957 34101 34055 33961 33923 33838 33858 33922 33966 34097 34253 34206 34208 34207 34147 34003 33963 33865 33836 34003 34084 34112 34078 34193 34099 33982 33947 34063 34292 34282 34308 34325 34297 34092 34057 33994 34025 34186 34122 33968 33909 33974 33993 33944 33961 33973 34050 33933 33872 34001 34124 34240 34254 34198 34017 33934 33826 33754 33816 33907 33967 34153 34058 33877 33738 33482 33307 33302 33505 33704 33855 33932 33921 33845 33604 33502 33427 33531 33675 33750 33929 33693 33545 33170 32872 32828 32954 33221 33546 33772 33961 33891 33483 33242 33211 33297 33547 33789 33959 34159 34074 33676 33275 33052 33057 33204 33530 33818 33968 33978 33895 33676 33459 33488 33639 33890 34091 34204 34453 34146 33766 33529 33394 33377 33504 33795 34050 34292 34308 33975 33811 33975 34411 34860 35204 35519 35693 35647 35297 35243 35282 35456 35652 35826 35989 36095 36057 35601 35392 35431 35501 35620 35759 35868 35947 35610 35038 34856 34853 34995 35237 35471 35720 35924 35995 35493 35289 35224 35364 35553 35736 35960 36128 36279 35945 35624 35550 35579 35726 35886 36066 36249 36387 36024 35707 35587 35632 35781 35956 36164 36325 36398 36126 35974 35915 35918 35885 35912 36044 36188 36406 36378 36170 35997 35947 35957 36019 36203 36398 36609 36411 36272 36150 36037 36013 35992 36004 36072 36189 36030 35879 35889 35840 35797 35842 35909 36039 36150 36006 35856 35824 35716 35673 35668 35671 35719 35810 35718 35563 35471 35260 35196 35204 35389 35567 35819 35966 35826 35874 35660 35554 35540 35497 35569 35707 35676 35570 35484 35406 35308 35336 35420 35524 35700 35607 35382 35261 35193 34885 34623 34616 34644 34782 34680 34490 34263 33965 33761 33854 33674 33725 33969 34059 34001 33926 33914 33870 33816 33863 33892 34040 34083 34079 34038 33996 33907 33903 34015 34109 34231 34243 34230 34219 34213 34222 34109 34019 33974 34068 34043 34003 34051 34087 34082 33915 33891 33952 34032 34137 34168 34204 34243 34384 34289 34299 34401 34453 34354 34248 34325 34458 34637 34674 34663 34735 34741 34508 34435 34444 34485 34665 34992 35043 34977 35028 34904 34812 34802 34940 35075 35234 35180 35188 35215 35024 34927 34986 35040 35126 35307 35372 35336 35307 35015 34813 34757 34816 35012 35183 35335 35372 35461 35251 35038 35054 35183 35376 35526 35711 35743 35602 35158 34806 34681 34698 34829 35112 35357 35516 35580 35386 35065 34882 34977 35182 35417 35579 35800 35916 35520 35132 34838 34709 34792 34966 35224 35386 35557 35358 35046 34905 34910 35076 35307 35531 35667 35892 35356 34991 34703 34619 34695 34838 35080 35329 35469 35218 34819 34685 34619 34658 34827 35101 35333 35588 35393 34908 34690 34650 34753 34877 35032 35147 35282 34991 34599 34394 34344 34489 34708 34959 35132 35265 35113 35017 35187 35450 35790 36006 36226 36402 36536 36324 35726 35412 35355 35473 35614 35798 35873 35973 35871 35415 34993 34658 34501 34406 34373 34453 34582 34666 34511 34359 34294 33989 33709 33651 33723 33962 34129 34116 34164 34199 34233 34185 34010 33957 33927 33787 33755 33807 33996 34139 34272 34172 34062 34034 33821 33767 33864 34025 34181 34372 34515 34357 34048 33571 33361 33389 33557 33829 34087 34268 34242 34162 33861 33749 33814 33974 34170 34404 34676 34607 34256 33766 33472 33434 33549 33811 34124 34313 34475 34359 33887 33539 33382 33399 33545 33800 34138 34427 34606 34375 33817 33363 33249 33322 33461 33625 33817 34153 34210 33895 33561 33328 33211 33153 33335 33623 33986 34128 33946 33872 33640 33283 32947 32913 33160 33430 33558 33466 33258 33194 33127 33142 33266 33471 33720 33775 33733 33707 33796 33789 33695 33645 33638 33711 33658 33624 33749 33802 33851 33916 33964 33921 34044 34131 34148 34247 34325 34454 34415 34203 34103 34019 33895 33838 33897 34060 34130 34186 34124 34086 34031 33963 33938 34006 34183 34305 34463 34577 34502 34470 34200 34040 34051 34193 34411 34574 34769 34874 34873 34671 34514 34485 34577 34806 35009 35197 35344 35235 34882 34531 34344 34313 34391 34595 34804 35000 35132 34854 34584 34395 34420 34535 34718 34877 34957 35030 34412 33952 33673 33685 33865 34065 34324 34537 34686 34463 33967 33735 33667 33809 34114 34439 34665 34833 35015 34530 34088 33889 33870 34033 34338 34622 34828 34828 34304 33886 33702 33703 33805 33992 34225 34442 34544 34091 33463 33303 33238 33275 33394 33541 33795 33952 33670 33362 33138 33149 33223 33416 33671 33997 34281 34151 33944 33662 33565 33648 33744 33894 34077 34291 34259 34093 33974 33844 33895 33863 33935 34104 34323 34347 34112 33962 33827 33733 33764 33834 33932 34030 33893 33814 33714 33691 33618 33713 33867 33958 34120 34106 34126 34185 34281 34332 34206 34102 34109 34085 33859 33742 33903 34065 34215 34365 34487 34475 34511 34465 34407 34428 34490 34680 34857 34777 34673 34540 34325 34231 34274 34387 34492 34629 34738 34695 34649 34581 34746 35116 35320 35416 35771 35951 35749 35482 34866 34546 34359 34415 34534 34529 34541 34554 34483 34191 33942 33803 33812 33799 33903 34154 34021 33700 33075 32722 32738 32941 33246 33583 33780 33848 33794 33591 33225 33131 33324 33616 33926 34056 34084 33939 33588 33135 32938 33016 33146 33337 33586 33667 33717 33545 33191 33093 33209 33464 33802 34048 34261 34382 33925 33566 33338 33320 33460 33703 33997 34353 34554 34172 33669 33322 33209 33320 33498 33763 33977 34098 33946 33458 33313 33374 33488 33611 33744 33946 34160 34174 33890 33627 33442 33461 33545 33706 33973 34230 34207 33999 33654 33386 33372 33449 33498 33621 33887 33947 33751 33638 33647 33589 33671 33965 34311 34627 34584 34243 34127 33720 33561 33459 33483 33669 33789 33858 33820 33814 33796 33926 33996 34005 33997 33968 34089 34146 34183 34335 34330 34264 34297 34364 34464 34444 34286 34175 34179 34295 34382 34438 34530 34687 34688 34522 34412 34430 34563 34576 34552 34574 34585 34480 34253 34242 34376 34460 34591 34745 34614 34570 34452 34310 34299 34536 34897 35227 35449 35302 35102 34583 34250 34131 34203 34359 34552 34680 34724 34692 34357 34165 34220 34379 34636 34893 35131 35178 34759 34119 33549 33260 33209 33331 33606 33947 34144 34230 33824 33333 33210 33382 33652 33959 34303 34516 34680 34389 33942 33743 33632 33718 33867 34035 34298 34432 34392 34027 33861 33792 33916 34111 34179 34378 34537 34620 34051 33632 33427 33419 33532 33704 33921 34100 34169 33832 33644 33531 33599 33811 34031 34298 34506 34508 34233 33986 33871 33874 33884 33975 34126 34332 34385 34067 33886 33643 33699 33736 33841 34077 34377 34612 34397 34322 34214 34134 34102 34094 34134 34244 34401 34321 34203 34200 34185 34247 34183 34215 34433 34633 34572 34457 34505 34554 34537 34614 34615 34627 34603 34465 34390 34391 34424 34357 34358 34209 34037 33924 33785 33744 33711 33872 34130 34171 34125 34086 33991 33732 33546 33692 33919 34091 34088 34175 34203 34173 34152 34233 34357 34353 34454 34558 34353 34447 34363 34116 33999 34093 34328 34425 34506 34382 34515 34332 34098 34098 34298 34493 34610 34748 34834 34750 34582 34147 33951 33871 33939 34263 34499 34727 34857 34806 34356 34058 33960 34078 34342 34578 34792 34953 34774 34309 33978 33785 33812 33819 34020 34024 33988 33928 33798 33506 33355 33609 33889 34126 34288 34419 34397 33933 33574 33317 33272 33273 33525 33846 33984 34135 33789 33364 33196 33301 33463 33552 33628 33690 34001 33335 33112 32988 32943 33030 33115 33398 33674 33918 33774 33423 33311 33208 33204 33409 33665 33867 34133 34260 33805 33567 33456 33454 33453 33573 33847 34062 33906 33371 33191 33070 32950 33061 33185 33361 33581 33569 33370 33306 33004 32953 32816 32850 32963 33127 33338 33343 33380 33416 33355 33203 33136 33286 33469 33734 33855 33985 34129 34408 34335 34187 34100 34007 33792 33590 33625 33824 34020 34090 34077 33981 33908 33872 33921 34103 34346 34533 34793 34610 34555 34347 34068 33966 33990 34174 34315 34521 34726 34743 34544 34343 34258 34310 34530 34763 35029 35054 34910 34821 34694 34675 34706 34881 35084 35231 35259 35069 34954 34953 34918 35009 35077 35182 35330 35090 35070 34850 34476 34193 33991 34072 34313 34491 34587 34765 34410 34013 33759 33752 33873 33882 34020 34202 34589 34560 34000 33733 33559 33448 33483 33680 33849 33845 33762 33424 33095 32973 32927 33188 33628 33947 34122 34474 34126 33743 33483 33376 33416 33548 33873 34133 34120 33662 33280 33066 32958 33163 33533 33956 34215 34279 33888 33459 33170 32959 32984 33152 33298 33583 33688 33410 33224 33220 33199 33271 33502 33735 33943 33995 33704 33754 33572 33423 33297 33334 33474 33644 33924 33746 33544 33394 33423 33382 33521 33802 34139 34367 34175 34175 33971 33759 33515 33556 33689 33730 33816 33800 33732 33633 33684 33725 33722 33886 34048 34098 33985 34004 34272 34183 34188 34041 34067 34209 34033 33975 33975 33962 33924 33919 33905 33973 34147 34288 34274 34257 34347 34539 34644 34629 34586 34538 34474 34348 34234 34218 34266 34194 34197 34191 34187 34105 34051 34106 34112 34342 34655 34589 34504 34334 34068 33939 33845 33961 34123 34331 34799 35037 35164 35090 35017 34932 34907 34984 35182 35569 35594 35400 34947 34646 34400 34248 34419 34574 34674 34691 34773 34517 34474 34537 34652 34739 34769 35018 35056 34787 34287 33851 33621 33563 33800 34114 34267 34253 34145 33742 33361 33230 33442 33726 34035 34262 34561 34485 33972 33469 33300 33375 33502 33749 33991 34159 34281 33996 33638 33391 33424 33552 33671 33736 33955 34363 34039 33645 33338 33364 33434 33459 33664 33664 33753 33760 33584 33586 33579 33761 33900 34137 34333 34474 34340 34024 33795 33698 33822 33882 33829 34042 34264 34202 33774 33580 33484 33565 33726 33895 34103 34162 33944 33889 33666 33592 33536 33634 33837 34003 34228 34159 33986 33800 33909 33929 33963 34081 34269 34463 34551 34539 34526 34554 34449 34275 34200 34226 34437 34535 34374 34305 34309 34339 34280 34233 34303 34420 34297 34094 34096 34238 34342 34318 34299 34358 34368 34213 34206 34173 34227 34259 34429 34364 34365 34480 34515 34581 34673 34787 34978 34972 34791 34624 34515 34417 34395 34490 34501 34501 34577 34565 34556 34762 34807 34805 34873 34962 35094 34994 34806 34745 34701 34556 34508 34668 34807 34948 34820 34723 34631 34443 34379 34502 34629 34721 34766 34774 34681 34593 34340 34154 34208 34329 34573 34732 34855 34905 34894 34840 34810 34924 35108 35303 35449 35630 35551 35332 34973 34606 34523 34599 34805 35026 35190 35180 35080 34807 34508 34475 34641 34865 35045 35213 35459 35504 35239 34870 34699 34723 34887 35099 35348 35569 35678 35463 35014 34838 35016 35240 35456 35691 35816 35880 35310 34880 34538 34540 34692 34977 35283 35420 35520 35140 34757 34537 34518 34767 35064 35315 35511 35745 35234 34724 34439 34377 34446 34603 34929 35185 35290 35002 34683 34516 34450 34601 34930 35237 35461 35546 34939 34673 34503 34465 34596 34759 35053 35251 35442 35189 34904 34840 34892 35099 35350 35578 35782 36068 35828 35501 35379 35327 35399 35485 35707 35878 36032 35687 35372 35228 35231 35404 35638 35906 36053 36194 35660 35251 35149 35118 35198 35325 35552 35746 35912 35682 35443 35338 35260 35393 35593 35889 36130 36379 36100 35753 35652 35599 35713 35877 36155 36401 36562 36254 35943 35894 35905 36021 36213 36418 36603 36631 36355 36011 35965 35956 36020 36113 36308 36548 36672 36490 36157 36089 36084 36051 36141 36334 36519 36616 36396 36074 35946 35928 35946 36017 36238 36501 36645 36349 36052 35987 35968 36003 36180 36388 36606 36588 36358 36104 35895 35738 35670 35633 35625 35744 35882 35691 35412 35409 35681 36257 36834 37274 37557 37716 37455 36793 36324 36016 35825 35735 35721 35753 35771 35446 35102 34866 34944 35060 35169 35294 35465 35619 35408 35220 34938 34770 34677 34703 34948 35262 35547 35525 35311 35080 34899 34864 35133 35834 36424 36740 36856 36622 36301 36127 36133 36298 36584 36820 36962 36819 36689 36556 36534 36625 36665 36787 36928 37067 36607 36270 36003 35776 35703 35667 35734 35862 35971 35841 35727 35628 35574 35563 35615 35741 35853 35981 35715 35597 35426 35270 35309 35406 35585 35731 35871 35700 35614 35417 35347 35371 35459 35611 35808 36016 35854 35754 35584 35457 35356 35346 35406 35512 35666 35574 35489 35338 35256 35304 35246 35254 35395 35600 35521 35453 35478 35490 35428 35346 35199 35096 34989 34879 34922 35016 35064 35093 34964 34768 34622 34522 34446 34564 34731 34888 35083 35204 35111 34970 34614 34448 34401 34519 34727 34881 34813 34810 34730 34355 34146 34215 34386 34530 34628 34789 34729 34652 34386 34260 34295 34414 34651 34843 34967 34950 34856 34449 34212 34208 34413 34686 34821 34997 35028 34667 34165 33867 33864 33949 34178 34466 34661 34656 34512 34103 33792 33764 33908 34112 34311 34424 34611 34324 33836 33564 33533 33751 34027 34292 34432 34556 34554 34364 34162 34007 34010 34157 34379 34577 34752 34899 34373 33871 33590 33563 33750 34003 34316 34631 34703 34193 33776 33504 33480 33638 33964 34339 34652 34575 34206 33715 33434 33362 33558 33820 34062 34353 34476 34191 33811 33606 33519 33538 33729 34029 34322 34341 34140 33970 33774 33626 33654 33846 34067 34287 34259 33976 33610 33445 33393 33260 33285 33480 33727 33679 33567 33470 33371 33356 33347 33543 33822 34069 34050 33895 33749 33587 33578 33568 33616 33849 34157 34187 33957 33789 33493 33372 33236 33203 33255 33514 33578 33645 33758 33835 33909 33930 34159 34300 34622 34797 34852 34828 34695 34452 34421 34487 34683 34805 34734 34810 34849 34799 34735 34615 34551 34693 34842 35016 35173 35391 35751 35735 35679 35617 35564 35365 35153 35147 35222 35355 35523 35667 35850 36036 36086 36018 36019 36059 36143 36250 36251 36281 36269 36045 35984 36036 36177 36338 36453 36407 36327 36260 36184 36244 36295 36471 36621 36786 36921 36780 36494 36057 35839 35846 35939 36134 36287 36390 36323 36095 35850 35858 35897 36032 36196 36347 36558 36710 36577 36343 36213 36230 36367 36597 36832 37029 37234 37213 36706 36627 36687 36819 36957 37101 37119 37324 37412 37003 36801 36673 36735 36826 36916 37111 37175 37251 36888 36638 36684 36830 37010 37133 37285 37441 37439 37065 36744 36673 36787 36948 37123 37258 37421 37411 37204 36951 36845 36997 37219 37374 37534 37682 37712 37494 37387 37152 37070 37292 37315 37423 37463 37451 37238 37097 36925 36937 37083 37252 37472 37670 37831 37642 37451 37450 37335 37359 37323 37307 37315 37277 37177 37119 37025 36907 36783 36710 36755 36925 36991 36939 36976 37058 37246 37338 37364 37285 37188 36945 36789 36763 36896 37107 37344 37455 37459 37571 37546 37458 37443 37436 37448 37683 37863 37828 37791 37530 37350 37287 37392 37529 37690 37944 38130 38310 38428 38728 38958 39035 38901 38444 38140 37727 37263 36456 35761 35414 35252 35166 35099 35157 35009 34832 34248 33796 33495 33475 33601 33841 34014 34080 33964 33619 33221 33089 33234 33444 33879 34263 34423 34279 33686 32877 32456 32352 32275 32350 32611 32928 33211 32950 32423 32022 31818 31835 31909 32008 32192 32396 32309 32014 31948 32014 32217 32613 33062 33453 33931 34113 33920 33683 33454 33325 33413 33661 33891 34124 34132 33749 33440 33420 33550 33708 33977 34308 34446 34249 33871 33487 33173 32942 32699 32574 32515 32563 32522 32460 32388 32412 32513 32622 32859 33212 33600 33838 34062 34032 33892 33842 33731 33680 33778 33870 33869 33789 33749 33665 33667 33747 33808 34014 34297 34280 34222 34186 34168 34236 34137 33986 33735 33481 33186 32995 33038 33165 33379 33442 33660 33840 33875 33787 33761 33870 34050 34133 34277 34291 34196 33954 33586 33375 33333 33516 33731 33870 33919 33860 33508 33339 33416 33528 33672 33875 34033 34095 34049 33773 33263 32953 32901 33065 33367 33560 33569 33539 33560 33331 33327 33622 33947 34131 34280 34468 34415 34165 33605 33233 33103 33084 33181 33349 33357 33511 33588 33560 33665 33974 34337 34839 35287 35593 35811 35935 35683 35554 35497 35612 35826 36107 36366 36572 36818 36758 36759 36829 36974 37166 37383 37572 37614 37593 37040 36727 36739 36831 36990 37183 37343 37465 37596 37436 37330 37495 37776 37958 38086 38187 38332 38456 38116 38056 38027 38124 38123 38102 38113 38186 38204 37989 38002 38032 38171 38311 38436 38556 38660 38749 38399 38105 38134 38112 38203 38237 38298 38380 38390 38294 38200 38099 37890 37853 38028 38136 38256 38390 38405 38416 38407 38536 38639 38612 38565 38583 38449 38304 38288 38372 38470 38559 38472 38419 38480 38347 38286 38333 38459 38552 38641 38797 38852 38785 38413 38233 38217 38285 38424 38567 38650 38711 38682 38359 38237 38248 38350 38529 38688 38788 38904 38912 38514 38282 38174 38244 38358 38525 38675 38769 38811 38409 38115 38071 38203 38386 38576 38733 38800 38888 38436 38133 37962 37967 38024 38103 38226 38417 38504 38157 37851 37769 37789 37900 37979 38093 38174 38271 38091 37835 37840 37885 37997 38070 38119 38198 38299 38054 37723 37501 37494 37617 37724 37852 37898 37808 37814 37921 37927 37990 37984 38047 38099 38143 37993 37670 37561 37500 37528 37612 37730 37853 38039 37956 37669 37518 37385 37375 37444 37470 37544 37653 37573 37470 37416 37417 37440 37267 37190 37216 37355 37346 37348 37373 37401 37583 37642 37550 37538 37358 37142 37018 36996 37149 37310 37474 37571 37277 36709 36527 36428 36382 36438 36593 36731 36855 37046 36686 36283 36031 36031 36269 36472 36668 36801 36964 36763 36279 36030 36069 36240 36426 36640 36825 36984 36820 36377 36291 36262 36386 36523 36687 36828 36987 36883 36491 36222 36096 36149 36319 36503 36660 36849 36810 36499 36274 36139 36085 36120 36234 36366 36566 36591 36439 36262 36123 35986 36049 36094 36208 36383 36465 36411 36373 36445 36411 36393 36545 36680 36754 36670 36619 36577 36676 36703 36840 36916 37050 37188 37071 37041 37050 37112 37326 37436 37479 37492 37390 37145 36997 36995 37070 37194 37336 37392 37373 37325 37102 36984 37017 37115 37203 37341 37619 37640 37543 37308 37088 37053 37097 37181 37331 37508 37681 37588 37198 36989 36925 37019 37252 37413 37513 37628 37575 37213 37104 37034 37026 37129 37289 37435 37592 37674 37246 37148 37069 37135 37320 37493 37686 37866 37712 37620 37709 37700 37758 37843 37887 37928 37967 37991 37710 37565 37633 37642 37774 37926 37961 38009 38021 37797 37716 37739 37889 37964 38032 38013 38030 37973 37796 37734 37752 37818 37958 37980 37998 38084 38037 37825 37807 37884 37945 38174 38243 38328 38345 38009 37754 37694 37723 37890 38030 38205 38330 38313 38061 37766 37704 37780 37971 38137 38290 38418 38539 38483 38078 37968 37969 38056 38173 38327 38461 38589 38685 38408 38248 38227 38330 38442 38536 38605 38682 38817 38763 38654 38615 38696 38839 38791 38691 38514 38280 37917 37770 37794 37737 37773 37880 37831 37837 37842 37683 37566 37577 37646 37853 37999 37932 37877 37713 37475 37374 37373 37417 37574 37613 37563 37484 37445 37496 37448 37465 37532 37638 37841 37667 37516 37342 37083 36933 36883 36949 36913 37088 37212 37206 37113 36936 36834 36832 36953 37107 37309 37372 37214 36988 36572 36276 36192 36232 36351 36526 36670 36736 36522 36160 36087 36056 36178 36335 36439 36725 36938 36875 36538 36321 36180 36085 36123 36271 36538 36633 36627 36409 36311 36251 36270 36304 36320 36420 36573 36363 36042 35729 35536 35330 35321 35566 35728 35827 35625 35136 34754 34671 34858 35037 35192 35418 35766 35871 35318 34866 34644 34600 34549 34743 34988 35160 35172 34658 34158 33985 34126 34440 34760 35013 35170 34960 34637 34607 34710 34875 34993 35141 35365 35557 35801 35641 35315 35171 35176 35282 35455 35677 35838 35997 35907 35539 35133 34915 34869 34967 34967 35081 35301 35376 35104 34810 34652 34752 34867 34969 35201 35406 35637 35552 35240 34885 34776 34893 34943 35044 35223 35315 35169 34947 34868 34883 35027 35191 35326 35451 35505 35480 35277 35243 35278 35318 35426 35606 35773 35874 35563 35285 35076 34982 35078 35359 35521 35677 35808 35552 35475 35087 34945 35074 35158 35208 35253 35339 35219 35135 34951 34912 34998 35089 35235 35405 35544 35236 34955 35054 34873 34778 34721 34718 34611 34397 34123 34108 34252 34340 34547 34622 34668 34780 34916 34873 34752 34839 35131 35207 35238 35151 35109 35080 34736 34602 34514 34600 34658 34768 34737 34907 35161 35215 35098 34928 34819 34749 34514 34564 34577 34667 34593 34538 34456 34515 34643 34668 34658 34499 34607 34703 34739 34794 34911 35187 35553 35638 35738 35885 35783 35701 35708 35809 35974 36171 36257 36484 36619 36660 36638 36616 36567 36546 36727 37046 36971 36791 36480 36365 36349 36420 36529 36692 36903 37288 37580 37212 36847 36724 36786 36903 37078 37258 37532 37467 37115 36719 36506 36509 36577 36695 36855 37036 37185 37120 36684 36471 36398 36481 36589 36709 36840 37140 37109 36593 36241 36007 35926 35972 36105 36305 36466 36484 36005 35649 35445 35507 35750 35963 36174 36331 36589 36311 36143 36063 36038 36101 36210 36297 36497 36632 36352 35982 35849 35749 35797 35996 36143 36290 36469 36521 36228 35823 35643 35565 35593 35623 35781 35978 35789 35461 35335 35251 35299 35518 35803 36031 36264 36130 36022 35892 35902 35992 36093 36211 36292 36391 36256 36148 36140 36091 36178 36222 36231 36322 36477 36444 36304 36434 36581 36685 36679 36613 36658 36723 36503 36352 36314 36385 36414 36455 36414 36424 36477 36405 36265 36248 36597 36734 36692 36653 36506 36432 36189 36102 36227 36226 36122 36240 36408 36276 36244 36337 36277 36248 36369 36631 36715 36416 36171 36098 35889 35736 35698 35837 35977 35989 35915 35799 35702 35545 35361 35300 35367 35507 35843 35803 35783 35685 35389 35198 35036 35050 35290 35592 35877 35875 35903 35673 35362 35422 35482 35608 35745 36045 36328 36242 35871 35573 35461 35475 35466 35618 35891 36307 36588 36453 36314 36379 36464 36535 36571 36572 36780 37117 36766 36328 35986 35838 35909 35836 35934 36170 36467 36545 36053 35855 35797 35776 35890 36150 36285 36485 36762 36229 35933 35695 35528 35523 35578 35765 35958 36041 35700 35410 35165 35162 35268 35564 35843 36006 36017 35834 35499 35425 35403 35501 35649 35679 35825 36028 35842 35580 35272 35278 35336 35330 35391 35516 35556 35286 35166 35164 35073 35006 35091 35371 35507 35550 35272 35041 34892 34580 34538 34551 34614 34739 34764 34523 34321 34326 34000 33849 33729 33674 33795 33979 34059 34245 34386 34253 34234 34089 34021 34248 34467 34493 34519 34543 34800 34743 34699 34613 34463 34275 34024 33956 34122 34366 34340 34400 34358 34129 33923 33669 33704 33993 34302 34623 34773 34908 35023 34774 34523 34366 34397 34446 34484 34776 35008 35344 35292 34960 34633 34611 34880 35138 35318 35365 35664 35880 35437 35130 34967 34959 35082 35300 35613 35848 36122 35989 35972 35963 35999 36089 36098 36132 36107 36317 36243 36025 36049 36004 36047 36165 36282 36391 36438 36120 35936 35770 35740 35818 35821 35762 35706 35874 35832 35798 35717 35920 35870 35922 36005 36042 35906 35652 35550 35574 35716 35868 35815 35731 35783 35835 35728 35471 35307 35456 35680 35745 35826 35909 35802 35600 35359 35381 35542 35750 35840 36048 36151 36151 36066 36029 36092 36220 36433 36817 37004 37064 36967 36676 36394 36200 36256 36235 36178 36196 36334 36283 36020 35961 35979 36143 36163 36207 36522 36369 36067 35700 35458 35439 35471 35653 35932 36006 36112 35966 35583 35386 35352 35457 35590 35701 35887 36227 35941 35575 35297 35263 35332 35457 35591 35815 36164 36167 35595 35216 35069 35159 35331 35526 35639 35779 36072 35674 35348 35136 35102 35088 35111 35179 35347 35352 34967 34618 34521 34518 34593 34696 34902 35089 35032 34900 34904 34888 34984 35129 35277 35352 35249 35282 35104 35005 34842 34873 34881 34883 34891 35072 35150 34960 35027 35212 35181 35105 34972 34858 34859 34973 34983 34980 34691 34567 34885 34932 35237 35722 36058 36124 36074 36187 36316 36296 36322 36376 36387 36336 36134 36046 36038 36001 35990 35970 35844 35878 35905 35833 35880 35926 36141 36300 36304 36220 36096 35859 35602 35584 35699 35783 35745 35700 35733 35693 35696 35606 35641 35761 35832 36167 36324 36271 36208 36077 35929 35788 35847 36057 36146 36204 36305 36419 36355 36187 36133 36172 36290 36343 36533 36697 36764 36547 36407 36366 36308 36330 36447 36618 36512 36542 36144 35761 35664 35658 35927 36215 36352 36579 36534 36286 35846 35535 35501 35732 36074 36328 36483 36559 36458 36037 35703 35588 35746 36025 36319 36475 36830 36770 36562 36395 36272 36308 36366 36531 36751 36824 36750 36254 36085 35935 35925 36104 36328 36482 36624 36767 36556 36381 36189 36096 36166 36264 36415 36637 36632 36349 36222 36068 36036 36139 36334 36547 36673 36466 36254 35850 35682 35525 35455 35585 35732 35892 35908 35595 35278 35114 35034 35140 35343 35511 35670 35801 35671 35680 35647 35691 35837 35980 36107 36193 36211 36086 36004 35828 35880 35971 35944 36017 36228 36372 36211 36074 36181 36209 36234 36304 36275 36276 36201 36057 36053 36036 36187 36202 36219 36194 36191 36101 35974 35866 35834 36067 36370 36432 36387 36264 35970 35719 35563 35683 35721 35819 35857 36051 36137 36122 36232 36402 36607 36752 36923 37079 37270 37288 37054 36774 36757 36718 36576 36404 36030 35647 35330 34933 34570 34364 34331 34412 34486 34391 34086 33681 33080 32636 32568 32846 33204 33630 33981 34011 33928 33451 33051 32869 32797 32904 33120 33375 33548 33556 33258 32701 32355 32353 32708 33058 33431 33774 33876 33884 33909 33838 33914 34289 34750 35152 35300 35268 34817 34058 33402 33009 32878 32921 33075 33326 33521 33299 32792 32605 32640 32815 33124 33613 34168 34595 34707 34301 33978 33752 33702 33806 33856 33908 34046 33948 33570 33323 33255 33373 33666 34016 34407 34747 34871 34558 34187 33853 33504 33298 33211 33198 33257 33199 33036 32837 32756 32906 33101 33387 33641 33881 34034 34074 34178 34017 33858 33658 33636 33786 33990 34060 34106 34230 34200 34205 34276 34220 34437 34834 34997 34882 34804 34763 34602 34410 34098 33960 33878 33673 33523 33464 33553 33590 33654 33630 33636 33740 33677 33581 33591 33689 33855 33831 33756 33597 33539 33377 33306 33348 33530 33683 33742 33899 34028 33988 33983 34095 34241 34359 34465 34598 34485 34332 34001 33570 33229 33110 33189 33372 33630 33722 33946 33897 33609 33485 33534 33669 33787 33899 34134 34103 34027 33497 33128 32897 32955 33178 33431 33661 33669 33811 33575 33440 33549 33752 33971 34210 34388 34732 34573 34023 33401 33069 32956 33005 33184 33400 33675 33856 33609 33162 32961 33044 33306 33700 34162 34523 34697 34441 34009 33617 33447 33595 33799 33991 34158 34267 34119 33917 33743 33628 33653 33820 34070 34291 34461 34511 34079 33839 33521 33375 33345 33301 33317 33430 33443 33263 33131 33206 33414 33846 34363 34834 35209 35466 35562 35407 35348 35172 34997 34842 34733 34647 34514 34303 34221 34132 34258 34288 34252 34444 34621 34634 34593 34586 34519 34414 34197 34041 33950 33871 33742 33662 33658 33751 33772 33943 33985 34178 34475 34513 34519 34568 34663 34672 34514 34317 34150 33983 33726 33593 33595 33669 33865 34011 34207 34315 34531 34642 34751 34957 35251 35474 35369 35217 34930 34668 34490 34485 34523 34654 34758 34712 35011 35151 35333 35551 35672 35705 35625 35587 35477 35138 34767 34292 33794 33508 33381 33401 33598 33751 33799 33782 33662 33364 33264 33286 33496 33815 34159 34423 34170 33968 33363 33045 33007 33011 33063 33149 33306 33370 33513 33312 33327 33534 33885 34215 34577 34911 35009 34626 33965 33390 33092 32991 32989 33126 33454 33704 33735 33585 33382 33478 33890 34359 34724 34916 35020 34766 34246 33646 33292 33166 33200 33362 33682 33828 33921 34086 34180 34190 34249 34331 34431 34529 34716 34614 34198 33710 33353 33194 33178 33289 33450 33629 33823 33753 33302 33207 33121 33210 33445 33712 33996 34186 34229 33992 33698 33477 33378 33353 33437 33584 33729 33768 33707 33606 33711 33924 34243 34636 34878 35164 35362 35132 34699 34380 34150 34001 33999 34046 34152 34097 33949 33883 33714 33737 33706 33748 33883 34014 34005 33915 33893 33913 33904 33809 33726 33720 33734 33716 33675 33675 33664 33698 33892 34000 34109 34237 34352 34379 34303 34397 34388 34323 34182 34052 33985 33828 33805 33798 33838 33919 33929 33973 34041 34145 34200 34101 34151 34260 34532 34587 34534 34389 34165 33869 33601 33540 33586 33724 33932 33958 34111 34079 33935 33782 33747 33818 33972 34101 34294 34227 34101 33803 33496 33366 33411 33567 33761 33885 33848 34099 34179 34092 34143 34280 34404 34533 34661 34756 34646 34279 33696 33334 33189 33225 33496 33860 34193 34328 34462 34357 34287 34467 34747 35038 35147 35154 35048 35065 34539 34133 33849 33795 33924 34110 34269 34315 34233 34096 33873 33826 33947 34098 34367 34629 34748 34588 34133 33814 33618 33566 33657 33870 34068 34280 34473 34118 33827 33609 33557 33668 33705 33851 34040 34165 34024 33714 33503 33273 33206 33239 33314 33499 33654 33613 33320 33227 33242 33320 33565 33729 33887 34112 34115 33976 33740 33623 33452 33355 33559 33925 34108 33963 33786 33756 33806 33919 34142 34447 34771 34878 34703 34550 34478 34214 34073 33825 33688 33636 33594 33522 33577 33652 33730 34046 34215 34279 34411 34637 34685 34690 34645 34667 34490 34339 34170 34127 34117 34082 34117 34219 34318 34305 34343 34330 34280 34214 34179 34164 34218 34296 34405 34493 34421 34258 33837 33521 33350 33374 33543 33747 33960 34165 34523 34407 34149 34105 34183 34312 34475 34602 34744 34623 34381 33942 33660 33642 33736 33815 33946 34117 34216 34292 34126 33993 34124 34313 34521 34685 34826 34928 34628 34004 33512 33299 33327 33466 33616 33784 33971 33905 33565 33385 33334 33387 33429 33513 33713 33909 34146 33825 33542 33212 33107 33175 33350 33591 33809 33951 33760 33491 33393 33483 33672 33905 34236 34589 34895 34889 34594 34317 34039 33889 33872 33896 33985 34044 33936 33736 33638 33609 33583 33636 33670 33693 33743 33745 33716 33646 33480 33413 33411 33485 33592 33706 33552 33549 33469 33561 33640 33729 33824 33893 33986 34000 33967 33999 33919 33818 33696 33676 33725 33740 33639 33618 33692 33598 33637 33605 33621 33812 33967 33920 33915 33991 34008 33981 34028 33922 33850 33756 33658 33712 33826 33973 34135 34308 34533 34630 34787 34959 35113 35289 35391 35547 35390 35155 34869 34514 34174 34086 34077 34131 34241 34348 34342 34498 34318 34101 34045 34060 34115 34231 34391 34648 34597 34379 33884 33565 33480 33551 33728 33936 34184 34303 34206 34002 33854 33932 34116 34352 34591 34810 34937 34931 34305 33874 33576 33463 33483 33520 33651 33965 34351 33973 33550 33702 33819 33955 34180 34324 34424 34536 34383 33893 33599 33441 33424 33561 33776 34002 34167 34105 33761 33657 33659 33661 33710 33841 34038 34224 34153 33968 33779 33653 33638 33643 33694 33739 33800 33797 33725 33650 33609 33623 33637 33602 33710 33758 33667 33638 33768 33924 34006 34023 33928 33763 33619 33435 33421 33552 33683 33692 33766 33870 33982 34238 34384 34510 34877 35319 35753 36043 36287 36491 36671 36573 36489 36484 36545 36653 36839 37083 37319 37529 37560 37571 37809 38052 38232 38500 38629 38591 38228 37387 37087 37079 37113 37242 37513 37718 37882 38061 38091 38013 38085 38253 38414 38553 38663 38746 38804 38772 38584 38509 38563 38659 38731 38812 38843 38866 38790 38388 38101 38006 38027 38117 38236 38352 38513 38616 38427 38141 37991 37981 37965 37938 37961 38048 38061 37807 37640 37486 37510 37507 37551 37648 37772 37751 37550 37538 37375 37349 37383 37377 37439 37525 37558 37553 37667 37869 37989 38120 38215 38312 38441 38536 38520 38483 38552 38654 38661 38697 38670 38607 38486 38270 38161 38188 38238 38333 38368 38387 38370 38216 38026 37964 37963 37970 37929 37891 37723 37552 37072 36662 36399 36247 36265 36670 37466 37759 37647 36970 36631 36560 36513 36592 36587 36599 36560 36403 35962 35417 35015 34824 34689 34716 34890 34957 34819 34412 33918 33695 33674 33845 34008 34026 33987 34159 33865 33452 33039 32985 33156 33314 33524 33709 33810 33452 32966 32665 32740 32922 33294 33734 34146 34313 34250 33657 33369 33146 33105 33251 33549 33762 34002 34169 33920 33573 33341 33116 33246 33705 34065 34328 34329 34057 33674 33411 33258 33173 33230 33465 33695 33969 33923 33646 33321 33182 32996 33093 33502 33851 34133 34150 33987 33788 33539 33329 33224 33260 33365 33373 33293 33292 33366 33398 33348 33151 33288 33623 33926 34116 34213 34314 34415 34366 34359 34433 34471 34517 34474 34400 34278 34180 34025 33911 33863 34086 34350 34492 34461 34426 34499 34614 34504 34421 34327 34319 34268 34215 34211 34311 34391 34476 34514 34536 34582 34584 34679 34987 35204 35353 35425 35590 35485 35335 35043 34838 34754 34820 35018 35130 35048 34861 34855 34560 34546 34547 34722 34918 34968 35115 35233 35220 35000 34644 34491 34499 34672 34855 34975 34986 35069 35006 34933 35008 35149 35286 35435 35550 35661 35557 35269 34824 34673 34627 34599 34562 34743 34957 34983 34911 34405 34200 34255 34419 34633 34915 35137 35223 35065 34670 34344 34229 34260 34360 34532 34675 34789 34813 34537 34345 34354 34471 34640 34723 34801 34935 35015 34668 34169 33895 33789 33720 33809 33908 34013 34121 34225 33985 33749 33542 33567 33804 33977 34243 34541 34743 34887 34627 34391 34415 34425 34477 34475 34656 34822 34704 34439 34235 34039 34253 34736 35231 35490 35681 35502 35346 35082 34938 35231 35842 36238 36294 36648 36508 36120 35723 35186 34896 35080 35205 35199 35139 34988 34840 34585 34601 34626 34571 34717 34941 35125 35298 35389 35250 35031 35011 35027 35066 35156 35361 35714 35884 35922 35874 35676 35320 35109 34964 34843 34602 34414 34357 34342 34325 34382 34301 34246 34248 34167 34094 34134 34199 34369 34370 34262 34102 33872 33602 33479 33539 33677 33851 33914 34234 34713 35083 35462 35841 36121 36334 36434 36499 36332 35957 35355 34704 34272 34064 34108 34192 34243 34013 34087 34103 34030 34025 34122 34568 34790 34868 34749 34556 34357 33788 33435 33330 33456 33667 33851 34088 34584 35202 35568 35542 35741 36029 36425 36825 37283 37613 37697 37824 37984 38058 38057 38128 38314 38420 38511 38598 38871 39180 39385 39542 39613 39605 39565 39513 39449 39328 38645 37610 36977 36617 36494 36535 36586 36537 36107 35500 35051 34864 34914 35004 35127 35324 35365 35319 34827 34368 33960 33791 33677 33651 33735 33896 34030 33809 33508 33399 33346 33452 33609 33817 34026 34098 33843 33525 33339 33126 32974 32862 32842 32958 33106 33021 32835 32821 32919 33027 33247 33452 33611 33957 34086 34004 33721 33563 33541 33580 33734 33952 34134 34214 34169 34026 33818 33946 34069 34175 34630 34902 34921 34921 34861 34569 34376 34085 33853 33665 33491 33324 33287 33411 33493 33645 33891 34033 34162 34298 34229 34184 34255 34421 34326 34205 33993 33871 33751 33612 33611 33645 33808 33778 33719 33732 33744 33765 33786 33783 33861 33981 34149 34220 34125 34046 33732 33474 33290 33312 33444 33612 33846 33886 33958 33878 33828 33877 33954 34134 34327 34409 34779 34679 34496 34032 33718 33639 33686 33812 33985 34127 34180 34234 34232 34310 34453 34684 34827 34948 35099 35247 35129 34616 34130 33836 33761 33739 33808 33937 34111 34259 33901 33629 33437 33405 33540 33718 33889 34057 34162 34080 33804 33661 33553 33456 33475 33533 33619 33779 33745 33604 33434 33488 33497 33521 33644 33837 34025 34083 34009 33944 33785 33688 33584 33542 33524 33563 33483 33435 33444 33359 33423 33397 33466 33644 33705 33644 33626 33681 33725 33708 33651 33481 33436 33289 33149 33166 33276 33440 33362 33436 33471 33560 33734 33859 33979 34091 34222 34290 34191 34141 34002 33819 33633 33554 33660 33813 33968 33988 34103 34185 34094 34162 34396 34601 34786 34955 35051 35115 34978 34550 34017 33732 33671 33703 33832 34003 34189 34269 34172 33896 33674 33678 33814 33951 34182 34411 34686 34591 34273 33885 33694 33685 33782 33966 34149 34319 34178 33792 33577 33508 33620 33782 33996 34228 34445 34493 34008 33761 33472 33384 33438 33502 33618 33771 33891 33681 33410 33355 33362 33516 33680 33863 34076 34289 34275 34040 33849 33666 33577 33591 33682 33795 33846 33704 33595 33327 33386 33335 33503 33680 33827 33964 33924 33911 33922 33818 33769 33573 33521 33483 33473 33499 33571 33686 33677 33760 33722 33736 33891 33948 33957 34052 34198 34381 34313 34249 34097 34032 33896 33838 33873 33952 34078 34054 34152 34270 34429 34486 34508 34548 34645 34765 34922 34707 34647 34496 34110 33922 33903 34051 34205 34309 34372 34303 34334 34151 34013 34011 34107 34297 34475 34614 34709 34641 34239 33847 33686 33707 33863 34062 34173 34251 34222 34183 34020 33969 34079 34281 34504 34702 34857 34888 34517 34084 33743 33631 33684 33872 34067 34209 34281 33975 33666 33419 33439 33619 33869 34106 34306 34492 34293 33842 33517 33325 33315 33351 33531 33770 33961 33800 33315 33224 33148 33202 33292 33437 33643 33887 33947 33786 33678 33519 33460 33536 33681 33907 34105 34187 34024 33720 33678 33644 33673 33871 34204 34518 34687 34581 34403 34153 34012 33842 33775 33769 33826 33825 33707 33709 33612 33665 33645 33669 33799 34056 34149 34140 34159 34238 34132 34097 33948 33878 33866 33785 33751 33790 33910 34000 34127 34107 34147 34266 34346 34374 34433 34480 34631 34435 34340 34223 34096 33904 33801 33837 33965 34078 33961 33983 33986 34071 34079 34184 34391 34574 34739 34878 34814 34738 34470 34065 33801 33687 33860 34115 34427 34575 34580 34591 34339 34166 34211 34314 34465 34691 34933 35099 35024 34589 34010 33617 33607 33677 33776 33922 34096 34266 34069 33456 33248 33215 33356 33648 33842 34036 34261 34359 34184 33896 33710 33558 33548 33535 33573 33772 33844 33733 33528 33492 33553 33713 33887 34059 34201 34250 34143 34110 33885 33783 33656 33650 33687 33773 33763 33708 33709 33405 33547 33571 33720 33859 34025 34007 33998 34076 34172 34096 34094 33989 33941 33933 33826 33802 33824 33870 33909 34170 34240 34336 34480 34569 34508 34568 34653 34815 34712 34585 34387 34084 33802 33696 33701 33858 34030 34237 34288 34425 34417 34294 34499 34873 35395 36004 36358 36372 36369 36109 35343 34784 34587 34629 34893 35242 35362 35348 35269 35167 34936 34826 34886 35037 35306 35490 35729 35858 35464 35002 34539 34169 34056 33998 34031 33751 33583 33604 33591 33713 34248 34880 35258 35648 36170 36518 36684 36378 35622 35457 35640 36147 36495 36799 36624 36503 36291 36054 35921 36008 36232 36414 36454 36666 36715 36450 36275 36073 35955 35873 35857 35936 35954 35671 35196 34600 34210 34060 34190 34320 34372 34500 34358 34106 33914 33702 33584 33419 33366 33467 33715 33810 33794 33741 33547 33641 33635 33659 33822 33935 34010 34011 33997 34099 34010 33948 33765 33654 33586 33442 33437 33464 33551 33609 33655 33655 33639 33673 33576 33521 33598 33739 33937 33919 33892 33709 33443 33166 33054 33110 33290 33494 33555 33694 33774 33779 33756 33755 33773 33862 34005 34218 34347 34322 34006 33605 33337 33303 33417 33626 33776 33856 33866 33915 33650 33596 33683 33880 34075 34275 34509 34555 34290 33794 33418 33293 33338 33495 33720 33934 34125 33952 33669 33506 33568 33823 34109 34457 34807 35050 35216 34717 34371 33989 33879 33859 34008 34222 34405 34575 34346 34230 34140 34123 34149 34172 34262 34468 34598 34608 34403 34257 34110 34075 34320 34727 35202 35564 35489 35049 34846 34769 34779 34964 35155 35293 35314 35079 34858 34669 34559 34390 34364 34399 34460 34430 34285 34190 34039 34039 34054 34077 34233 34457 34629 34634 34623 34632 34505 34399 34285 34249 34220 34155 34120 34133 34231 34154 34221 34215 34261 34422 34408 34356 34363 34453 34568 34426 34322 34178 34125 33893 33801 33845 33978 34245 34310 34359 34368 34344 34268 34176 34246 34404 34615 34863 34733 34551 34236 33883 33746 33790 33923 34127 34367 34452 34506 34421 34352 34383 34416 34529 34649 34787 34891 34650 34158 33649 33404 33404 33550 33744 33953 34105 34013 33792 33405 33282 33444 33598 33785 34041 34286 34553 34370 33974 33588 33439 33500 33581 33756 33934 34038 33922 33754 33664 33681 33808 34034 34278 34543 34713 34646 34093 33731 33513 33500 33605 33720 33880 34073 33989 33562 33420 33412 33473 33655 33844 34053 34283 34234 34116 33871 33777 33669 33602 33611 33676 33848 33880 33842 33733 33744 33814 33875 33971 34159 34313 34457 34493 34630 34485 34442 34315 34249 34213 34166 34054 34018 34045 34148 34277 34434 34450 34523 34473 34382 34475 34587 34935 35208 35242 35061 34812 34519 34349 34288 34346 34456 34395 34202 34152 34067 34030 33999 34131 34322 34529 34716 34720 34597 34472 34136 33970 33896 34034 34243 34422 34515 34592 34726 34598 34535 34596 34661 34810 35006 35173 35293 35075 34630 34063 33816 33803 33832 33986 34186 34341 34294 34023 33729 33639 33754 33963 34186 34460 34671 34841 34440 33939 33640 33509 33587 33705 33880 34044 34173 33680 33525 33278 33372 33577 33749 33937 34142 34357 34021 33603 33269 33054 33034 33114 33298 33510 33656 33502 33169 33163 33245 33365 33532 33739 33934 34154 34099 33985 33735 33545 33417 33381 33448 33614 33753 33718 33638 33376 33340 33321 33307 33451 33669 33902 33963 33922 33974 33783 33675 33531 33409 33428 33417 33421 33496 33562 33449 33408 33367 33333 33440 33484 33543 33694 33913 34188 34151 34158 34011 33789 33574 33477 33579 33778 33953 34090 34110 34199 34189 34104 34095 34300 34822 35266 35646 35774 35938 35617 35086 34778 34780 34947 35287 35507 35499 35335 35355 35134 35042 35134 35169 35262 35375 35465 35617 35315 34785 34288 34004 33893 33991 34191 34358 34535 34269 33848 33601 33531 33679 33849 34043 34272 34498 34612 34174 33896 33603 33564 33595 33682 33856 34088 34145 33787 33730 33711 33799 33949 34105 34269 34476 34653 34497 34160 33928 33723 33677 33652 33742 33911 33920 33800 33532 33511 33548 33615 33737 33878 34039 33970 33920 33964 33737 33703 33560 33527 33595 33644 33583 33577 33650 33605 33597 33636 33782 34026 34267 34230 34189 34215 34280 34216 34232 34118 34045 33878 33734 33787 33922 34030 34086 34139 34112 34048 33963 33902 33951 34148 34313 34514 34414 34379 34180 33862 33694 33624 33751 33940 34122 34176 34355 34431 34375 34290 34270 34333 34477 34671 34839 34773 34689 34313 34057 33917 33900 34035 34328 34643 34775 34857 34485 34274 34257 34347 34507 34695 34878 35049 35287 34864 34459 34153 34079 34077 34184 34356 34515 34684 34396 34260 34158 34164 34295 34491 34659 34828 35004 34882 34468 34275 34109 34105 34168 34224 34346 34457 34301 34187 34004 34010 34054 34139 34290 34437 34625 34570 34667 34397 34349 34234 34250 34449 34638 34815 34894 34968 34967 34953 35082 35115 35213 35489 35661 35685 35693 35606 35324 35135 34866 34766 34799 34776 34727 34785 34838 34878 35140 35399 35551 35751 35730 35585 35599 35656 35765 35726 35613 35404 35036 34563 34332 34200 34218 34328 34504 34616 34691 34642 34522 34448 34490 34592 34694 34957 35267 35490 35505 34977 34623 34306 34193 34124 34057 34080 34227 34412 34148 33985 33921 33995 34159 34320 34494 34678 34819 34855 34601 34407 34172 34011 33991 33978 34035 34127 34044 33980 33809 33859 33970 34115 34292 34431 34604 34605 34527 34552 34422 34309 34068 33919 33929 33896 33825 33802 33793 33729 33841 33967 34122 34255 34304 34326 34433 34508 34588 34479 34401 34209 34061 33871 33734 33711 33819 33956 33935 34139 34457 34766 35086 35358 35452 35563 35690 36043 35757 35584 35199 34700 34407 34322 34419 34597 34792 34859 34848 34912 34671 34611 34597 34653 34777 34961 35215 35168 35042 34551 34161 34038 34017 34126 34285 34428 34590 34732 34701 34492 34415 34413 34526 34739 34957 35259 35258 34955 34480 34261 34225 34292 34399 34523 34632 34782 34643 34636 34603 34645 34690 34778 34930 35131 35441 35076 34673 34285 34103 34074 34106 34198 34325 34383 34224 33972 34044 34171 34300 34433 34484 34626 34804 34723 34756 34506 34418 34220 34155 34145 34218 34293 34189 34146 34074 34139 34330 34450 34615 34695 34787 34711 34716 34764 34625 34523 34303 34191 34148 34046 33979 33991 34109 34226 34197 34396 34477 34530 34676 34652 34677 34718 34884 35044 34976 34782 34600 34290 34067 34049 34138 34273 34465 34460 34550 34517 34446 34436 34522 34664 34809 34975 34919 34837 34601 34107 33873 33740 33801 33957 34145 34231 34251 34299 34008 33903 33942 34094 34290 34515 34698 34766 34650 34191 33845 33761 33798 33920 34085 34268 34366 34254 34143 34065 34142 34286 34445 34606 34776 35012 34903 34490 34105 33888 33920 33985 34093 34267 34512 34785 34745 34758 34786 34873 34903 34939 35112 35315 35582 35155 34799 34413 34236 34226 34240 34317 34429 34556 34292 34041 34046 34174 34360 34476 34586 34776 34980 34967 34658 34444 34274 34208 34225 34298 34439 34516 34378 34243 34300 34411 34410 34465 34472 34547 34556 34433 34406 34400 34403 34320 34241 34243 34261 34247 34209 34213 34181 34139 34175 34180 34245 34455 34552 34613 34722 34957 34923 34859 34659 34520 34423 34238 34193 34148 34218 34262 34314 34380 34420 34531 34582 34560 34640 34874 35331 35898 35807 35735 35263 34776 34520 34576 34789 34953 35039 35075 35182 35160 35000 34841 34828 34913 35055 35265 35461 35244 35045 34589 34331 34318 34334 34453 34515 34614 34462 34603 34525 34555 34667 34707 34833 34938 35077 35287 34936 34484 34081 33937 33902 33931 34057 34210 34378 34347 33945 33767 33795 33823 33948 34105 34275 34473 34497 34126 33882 33670 33616 33682 33781 33866 34022 34017 33905 33635 33740 33809 33911 34015 34154 34324 34467 34458 34422 34271 34128 34004 33942 33947 34005 33963 33963 33962 33895 34047 34071 34150 34164 34138 34038 34057 34197 34259 34205 34076 33964 33940 33766 33700 33733 33855 34067 34036 34178 34176 34188 34131 34135 34216 34360 34553 34774 34650 34556 34355 34104 33977 33974 34070 34192 34324 34299 34427 34424 34336 34372 34442 34575 34733 34909 34991 34830 34552 34093 33903 33845 33942 34120 34310 34438 34381 34301 33929 33813 33933 34164 34416 34650 34836 35109 34893 34399 34045 33945 33929 34023 34185 34311 34452 34327 34069 33957 34155 34416 34644 34860 35090 35291 34820 34353 33974 33853 33888 33948 34113 34274 34380 34185 33713 33595 33639 33791 34022 34223 34422 34599 34476 34164 34008 33848 33801 33826 33869 33983 34126 34066 33927 33772 33950 34008 34107 34204 34349 34533 34617 34647 34457 34260 34052 33968 34014 34051 34111 33934 33896 34018 34081 34392 34498 34560 34590 34547 34512 34590 34835 34745 34742 34571 34407 34352 34346 34458 34617 34776 34914 34862 34995 34994 34959 34956 35036 35202 35476 35679 35691 35561 35249 34895 34565 34495 34640 34811 34927 34998 34890 34885 34638 34358 34292 34386 34531 34738 34902 34997 34895 34492 33995 33813 33882 34081 34318 34537 34708 34587 34452 34115 34051 34201 34327 34489 34678 34877 35107 34724 34275 33871 33753 33734 33829 34007 34181 34339 34220 33867 33734 33738 33880 34090 34233 34412 34654 34622 34194 33952 33738 33685 33762 33782 33922 34083 34017 33674 33540 33623 33846 34043 34161 34262 34385 34381 34426 34248 34093 33941 33864 33830 33842 33895 33865 33894 33956 33876 33863 33864 34213 34621 34761 34826 34837 34785 34776 34639 34524 34269 34063 33785 33625 33607 33684 33824 33994 34251 34217 34372 34272 34242 34342 34499 34737 35019 35239 35348 35083 34662 34232 34026 33942 33978 34057 34228 34414 34081 33836 33643 33861 34108 34310 34435 34585 34751 34803 34244 33920 33760 33740 33855 34011 34174 34398 34487 34217 33987 34038 34145 34214 34309 34369 34490 34650 34571 34364 34260 34128 34025 33993 33891 33940 34044 34022 34063 33959 34021 34021 33975 34030 34123 34021 33921 34002 34170 34186 34106 33942 33902 33942 33900 33917 33987 34092 34109 34020 34126 34132 34178 34253 34391 34606 34761 34930 34848 34727 34583 34278 34104 33972 34027 34162 34275 34318 34349 34483 34486 34504 34516 34576 34696 34781 34965 34856 34637 34157 33752 33613 33621 33774 33994 34202 34270 34264 33983 33821 33887 34037 34235 34472 34610 34752 34648 34150 33834 33692 33791 33954 34180 34533 35172 35557 35879 36239 36403 36526 36657 36819 37002 37126 37205 37096 36875 36881 36997 37239 37517 37881 38182 38406 38449 38480 38484 38488 38546 38596 38672 38722 38793 38442 38249 38142 38184 38274 38353 38461 38613 38686 38494 38316 38366 38438 38512 38604 38743 38859 38838 38781 38795 38755 38759 38806 38808 38855 38902 38673 38628 38623 38663 38813 38954 39079 39202 39280 39245 39178 39251 39326 39334 39277 39267 39311 39261 39158 39130 39178 39193 39265 39328 39422 39484 39506 39468 39497 39664 39743 39685 39666 39516 39302 38999 38826 38751 38756 38799 38907 38937 39000 39013 38851 38735 38758 38844 38983 38804 38422 38286 37970 37736 37814 37999 38367 38714 38983 39163 39328 39357 39161 39074 39087 39204 39327 39454 39577 39558 39361 39188 39169 39255 39314 39427 39492 39486 39475 38987 38763 38646 38714 38861 39048 39231 39359 39444 39002 38778 38720 38794 38893 38988 39101 39250 39289 38962 38771 38872 38961 39069 39201 39375 39504 39713 39419 39190 39025 38950 38985 39018 39051 39136 39116 38811 38628 38567 38638 38727 38791 38886 39039 39073 38891 38845 38783 38770 38786 38853 38945 39031 38966 38842 38818 38869 39027 39228 39274 39303 39426 39350 39221 39304 39313 39395 39482 39506 39525 39468 39259 39118 39126 39197 39308 39454 39522 39552 39568 39426 39344 39303 39348 39304 39145 39015 38959 38745 38516 38385 38376 38367 38378 38502 38663 38720 38501 38381 38403 38449 38558 38708 38855 38899 38908 38706 38667 38602 38622 38684 38770 38859 38950 39020 38800 38691 38642 38752 38869 38978 39131 39180 38970 38684 38458 38400 38403 38501 38654 38707 38799 38750 38353 38242 38244 38345 38509 38681 38853 38987 38913 38580 38385 38322 38365 38466 38585 38652 38676 38604 38220 38026 38021 38140 38293 38468 38627 38720 38435 37809 37552 37444 37444 37448 37490 37624 37730 37604 37164 36978 36981 37096 37254 37412 37564 37697 37713 37515 37185 36992 