5305 46181 46154 46148 46127 46096 46046 46010 45987 45935 45820 45690 45562 45520 45518 45499 45465 45393 45218 45006 44802 44731 44513 44524 45319 46141 46646 46900 47001 47034 47045 46945 46673 46411 46164 45905 45465 45015 44626 44330 44135 44007 43825 43763 43740 43757 43787 43836 43882 43880 43822 43585 43281 43050 42897 42839 42859 42966 43111 43204 43288 43394 43478 43560 43641 43698 43781 43714 43517 43360 43251 43176 43137 43133 43068 42994 42983 43014 43096 43182 43270 43358 43461 43434 43318 43211 43147 43116 43142 43171 43214 43274 43344 43429 43548 43653 43786 43943 44098 44096 43962 43818 43778 43771 43939 44084 44244 44422 44567 44718 44898 45003 45076 45150 45190 45155 45041 44981 44940 44936 44958 44972 44990 44992 45055 45157 45318 45490 45525 45247 44923 44477 44054 43766 43409 42791 42270 41222 40255 39380 38716 38276 37954 37750 37660 37578 37569 37549 37512 37533 37506 37493 37471 37435 37399 37344 37288 37246 37202 37140 37089 37018 36970 36902 36831 36760 36723 36680 36614 36531 36458 36365 36286 36199 36120 36029 35937 35839 35762 35663 35587 35498 35422 35361 35305 35249 35174 35094 35029 34991 34951 34897 34847 34795 34749 34678 34632 34562 34531 34493 34457 34463 34419 34384 34334 34313 34295 34255 34225 34183 34136 34115 34087 34055 34012 33999 34000 33987 33970 33934 33919 33896 33871 33846 33832 33827 33801 33792 33761 33752 33745 33742 33748 33758 33776 33768 33759 33753 33734 33718 33706 33711 33694 33691 33687 33691 33664 33664 33666 33696 33736 33717 33706 33681 33677 33690 33682 33669 33704 33784 33906 34106 34371 34754 35375 36252 37135 37930 38444 38806 39002 39150 39351 39483 39559 39704 39842 39928 39985 39947 39921 39839 39651 39478 39278 39011 38780 38617 38453 38357 38321 38260 38216 38210 38263 38395 38530 38748 39143 39551 40051 40599 41263 42014 42388 42738 42904 42983 42869 42730 42533 42582 42671 42629 42603 42932 43696 43755 43692 43622 43652 43584 43448 43241 43071 42942 42842 42558 42345 42314 42022 41807 41593 41502 41434 41440 41636 41966 42238 42321 42098 42099 41985 41674 41359 41370 41267 41220 41185 41359 41804 42019 42809 43788 44967 45128 45119 45145 45231 45321 45168 45125 44944 44630 44039 43436 42790 42821 42475 42452 42096 41630 41256 41031 40845 40663 40560 40014 39732 39405 39389 39683 39834 40091 40234 40446 40668 40787 40776 40825 41083 41312 41624 42185 42631 42722 42824 42839 42929 42784 42336 42207 42246 42263 42116 41652 40554 39164 37750 36922 36515 36246 35876 35653 35507 35249 35089 35061 35127 35165 35216 35274 35455 35783 36202 36654 37192 37800 38494 39193 39748 40230 40587 40757 40937 41193 41358 41428 41454 41418 41446 41476 41491 41543 41566 41442 41199 40880 40758 40785 40859 41017 41181 41236 41270 41346 41433 41528 41686 41875 42070 42279 42483 42660 42814 42832 42717 42575 42638 42858 43007 43027 42976 42927 42913 42841 42685 42552 42388 42203 42003 41901 41894 41822 41688 41525 41426 41450 41535 41668 41831 42041 42360 42625 42741 42772 42521 42085 41785 41563 41478 41432 41484 41471 41430 41293 41206 41338 41473 41407 41238 41028 40842 40649 40339 40138 40066 40085 39998 39977 39939 39971 40077 40336 40622 40796 40834 40833 40817 40816 40869 40935 41080 41226 41411 41698 42084 42455 42803 43063 43316 43282 43250 42572 41995 41525 40916 41737 43697 45260 45747 45504 45404 45719 45832 45969 45945 45109 43735 42846 42080 41621 41301 41212 41764 42650 43629 44514 44749 45057 45045 46007 45808 45707 45466 45059 44226 43196 42975 40157 37531 37519 37954 38394 38502 38731 39375 41618 43963 46658 47267 47327 47293 47278 47255 47235 47183 47050 46934 46847 46620 46123 45493 44929 44727 44728 44833 45051 45478 45948 46236 46380 46320 46222 46165 46136 46134 46135 46091 46072 46065 46069 46138 46219 46374 46540 46635 46689 46671 46694 46727 46795 46932 47039 47035 47030 47028 47025 47029 47024 47023 47023 47031 47041 47044 47049 47054 42209 42256 42321 42350 42410 42450 42513 42571 42628 42676 42726 42738 42708 42649 42623 42616 42607 42615 42635 42663 42678 42698 42727 42779 42797 42838 42867 42879 42837 42811 42849 42902 42918 42916 42931 42994 43090 43163 43237 43357 43470 43564 43669 43726 43689 43664 43672 43705 43741 43765 43788 43824 43867 43934 43983 44049 44138 44200 44267 44294 44190 44106 44088 44084 44120 44151 44181 44215 44240 44294 44347 44399 44461 44538 44604 44621 44520 44456 44476 44484 44511 44555 44552 44582 44609 44662 44725 44771 44808 44783 44738 44582 44468 44430 44374 44403 44493 44577 44646 44735 44813 44904 44976 45057 45101 45118 44973 44797 44646 44563 44519 44496 44487 44481 44475 44487 44515 44561 44624 44676 44694 44667 44589 44383 44245 44145 44057 43998 43950 43897 43847 43817 43822 43827 43847 43885 43909 43970 44019 43964 43872 43812 43777 43757 43746 43692 43625 43585 43581 43564 43552 43549 43551 43580 43582 43492 43333 43183 39379 36836 36542 35070 34311 34134 34019 34006 33906 33842 33820 33835 33788 33759 33828 33822 33850 33832 33903 33926 33965 33991 33975 33980 33945 33929 33914 33906 33884 33879 33909 33933 33928 33936 33916 33903 33906 33913 33923 33936 33961 33967 33963 33975 34026 34103 34169 34222 34259 34269 34275 34283 34291 34317 34303 34308 34304 34288 34290 34288 34266 34243 34265 34317 34343 34336 34346 34333 34361 34377 34384 34396 34392 34388 34402 34404 34432 34475 34517 34534 34568 34607 34631 34651 34677 34677 34705 34735 34734 34744 34738 34732 34762 34801 34815 34818 34811 34802 34798 34796 34794 34778 34751 34754 34742 34736 34734 34691 34176 34280 34391 34755 35062 35474 35913 36359 36529 36380 36325 36150 36115 36187 36252 36204 35838 35319 35216 35498 35718 35913 36231 36459 36601 36700 36912 36886 36692 36625 36883 37425 36511 35410 34804 34282 33798 33707 33732 33766 34015 34240 34399 34350 34410 34513 34629 34673 34670 34571 34512 34714 34800 35001 35144 35253 35358 35423 35483 35597 35756 35886 35891 35899 35928 35987 36047 36040 36025 35983 35979 35957 35904 35867 35870 35886 35869 35830 35820 35867 35868 35890 35889 35938 35930 35918 35886 35832 35785 35763 35731 35764 35811 35889 36048 36173 36296 36305 36314 36359 36528 36846 37258 37687 37960 38180 38475 38502 38459 38405 38425 38447 38463 38492 38527 38482 38298 37905 37856 37992 38021 37903 37590 37193 36880 37176 38427 38935 38899 39206 39238 39377 39455 39462 39588 39642 39552 39033 39596 39532 39517 39542 39493 39202 39638 39619 39641 39751 39473 39338 39732 39784 39672 39638 39558 39645 39595 39513 39474 39564 39576 39692 39691 39555 39383 39173 38948 38789 38595 38395 38230 38165 38172 38177 38163 38179 38199 38227 38265 38269 38228 38163 38123 38135 38166 38213 38255 38301 38333 38399 38453 38507 38586 38646 38602 38563 38528 38555 38604 38669 38737 38782 38841 38914 38985 39081 39155 39205 39256 39229 39154 39135 39128 39176 39217 39278 39309 39374 39427 39472 39540 39584 39621 39597 39529 39484 39471 39486 39503 39525 39549 39576 39618 39669 39723 39770 39817 39775 39717 39637 39602 39578 39598 39613 39605 39632 39665 39699 39746 39811 39861 39901 39888 39841 39812 39784 39759 39262 38764 38484 37894 37507 37996 38667 39352 39528 39521 38841 38832 39280 39668 39665 39602 39385 38933 39591 39990 39955 40012 40060 40059 40116 40040 39838 39609 39475 39419 39404 39367 39235 39080 38962 38910 38922 39044 39133 39268 39315 39248 39158 39038 38813 38621 38510 38644 38786 38867 38995 39079 39025 38923 38791 38585 38359 38193 38063 37948 37883 37856 37816 37833 37882 37951 38047 38142 38261 38365 38542 38594 38592 38623 38645 38698 38774 38847 38929 39004 39085 39153 39246 39329 39395 39427 39367 39311 39269 39246 39257 39281 39292 39309 39325 39421 39496 39608 39677 39736 39674 39615 39584 39519 39494 39435 39398 39326 39479 39376 38435 36803 36063 35826 35793 36216 37034 37900 38218 38416 38359 38187 37861 37575 37425 37231 37022 36859 36629 36406 36264 36183 36098 35990 35872 35773 35742 35702 35614 35521 35372 34675 34408 34295 34530 34679 34894 34566 34208 33889 33794 33868 34002 34101 34263 34363 34413 34473 34549 34362 33902 33506 33315 33214 33157 33190 33280 33371 33443 33528 33549 33559 33573 33606 33658 33728 33805 33931 33996 34120 34229 34240 34577 35313 36153 37272 38106 38724 38728 38707 38394 38260 37914 37644 37383 37254 37014 36915 39899 40610 40358 40251 38753 39284 38797 38713 38890 39078 38806 38883 38974 38965 38849 38730 38466 38482 38744 38600 38405 38407 38541 38696 38907 38956 38924 39018 39093 39024 39004 38976 39028 39020 38987 38859 38733 38623 38527 38358 38209 38143 38014 37936 37732 37722 37731 37684 37596 37396 37321 37469 37902 38275 38592 39046 39841 40807 40994 40855 40711 40644 40589 40541 40452 40311 40201 40084 39942 39828 39699 39538 39314 39060 38896 38775 38743 38858 38917 39061 39220 39507 39763 40066 40292 40501 40613 40601 40543 40460 40384 40318 40310 40329 40389 40493 40642 40736 40761 40767 40563 40465 40583 40516 40497 40535 40576 40615 40665 40708 40716 40754 40790 40830 40781 40617 40342 40095 39930 39771 39653 39602 39578 39697 39845 39992 40088 40226 40267 40226 39972 39689 39604 39571 39552 39578 39781 40122 40361 40275 40150 39991 39870 39853 39850 39829 39751 39569 39314 39131 38944 39005 39322 39665 39911 40133 40263 40261 40215 40296 40481 40565 40575 40225 40228 40612 40615 40671 40741 40954 41195 41388 41490 41483 41369 41311 41204 41054 40740 40648 40826 40991 40984 40930 40899 40872 40941 41038 41175 41331 41194 41060 40930 40877 40888 40898 40940 40908 40729 40745 40974 41154 41246 41392 41522 41537 41567 41433 41161 41053 41025 40985 41008 40994 40990 40953 40863 40777 40691 40683 40763 40819 40937 41084 41147 41073 40937 40824 40745 40709 40702 40670 40618 40611 40500 40297 40088 40056 40179 40365 40553 40722 40672 40600 40520 40479 40473 40412 40462 40517 40498 40404 40305 40243 40251 40361 40548 40729 40824 40792 40731 40652 40609 40612 40553 40492 40433 40409 40337 40257 40255 40351 40568 40757 40957 41111 41138 41064 40924 40746 40597 40479 40429 40445 40479 40490 40468 40512 40552 40613 40767 40891 41005 41040 40900 40837 40753 40843 40949 40967 40866 40851 40847 40818 40850 40990 41179 41391 41572 41663 41683 41567 41463 41341 41312 41349 41353 41319 41272 41271 41285 41270 41299 41356 41442 41476 41608 41636 41561 41569 41611 41637 41633 41660 41614 41489 41371 41243 41242 41302 41367 41469 41556 41629 41501 41200 41127 41061 41006 40962 40949 40880 40906 40878 40824 40790 40812 40870 40963 41114 41237 41284 41131 40847 40627 40472 40395 40358 40356 40320 40291 40134 40054 40032 40051 40152 40272 40448 40586 40545 40489 40463 40523 40577 40639 40665 40610 40585 40535 40541 40490 40555 40622 40722 40809 40795 40803 40849 40882 40958 40981 41015 40978 41000 40953 40918 40931 41031 41169 41332 41480 41595 41562 41487 41532 41658 41735 41765 41724 41595 41576 41507 41455 41448 41469 41550 41623 41706 41785 41752 41638 41488 41296 41142 41020 40953 40909 40900 40908 40876 40824 40766 40810 40930 40981 41022 40989 40894 40752 40643 40563 40465 40429 40424 40410 40396 40239 40065 39957 40065 40346 40592 40801 40929 40966 40984 40978 40994 41079 41005 40847 40663 40575 40469 40534 40754 41017 41217 41311 41409 41464 41247 41006 40770 40635 40537 40478 40437 40436 40461 40396 40351 40329 40408 40502 40533 40579 40594 40518 40472 40423 40394 40362 40338 40351 40409 40433 40344 40250 40196 40185 40259 40414 40561 40675 40654 40648 40646 40664 40612 40507 40417 40408 40443 40473 40491 40471 40464 40563 40755 40942 41058 40978 40901 40807 40735 40667 40645 40621 40598 40629 40680 40775 40882 40910 40988 41140 41249 41331 41337 41279 41276 41290 41325 41350 41310 41259 41257 41178 41122 41106 41128 41214 41348 41448 41560 41610 41551 41497 41450 41397 41338 41237 41178 41216 41265 41242 41255 41288 41338 41401 41439 41524 41542 41500 41456 41394 41359 41328 41257 41230 41162 41116 41036 40942 40890 40824 40839 40965 41094 41247 41281 41224 41104 40945 40797 40683 40606 40583 40573 40600 40547 40544 40505 40477 40504 40577 40586 40613 40517 40339 40217 40157 40079 40066 40092 40110 40203 39587 39074 39213 39838 39899 40407 40771 40718 40405 40064 39759 39848 39956 40103 40344 40593 40528 40462 40399 40361 40295 40354 40523 40671 40758 40792 40679 40487 40300 40132 40006 39958 40026 40013 40012 40029 40130 40402 40658 40863 41034 41105 41111 41071 40921 40923 40958 41049 41116 41119 41113 41113 41079 41010 40972 40953 41006 41093 41189 41277 41398 41331 41273 41187 41048 40880 40693 40574 40471 40441 40399 40369 40356 40405 40555 40720 40891 40926 40855 40740 40618 40483 40353 40244 40195 40139 40167 40162 40166 40126 40065 40104 40279 40432 40613 40661 40634 40596 40552 40551 40557 40525 40391 40301 40217 40158 40096 40053 40049 40127 40312 40488 40667 40729 40619 40414 40260 40174 40179 40157 40106 40135 40217 40225 40191 40146 40133 40287 40519 40731 40759 40721 40752 40801 40860 40923 40976 41003 40926 40962 40867 40773 40779 40850 40939 41028 41119 41202 41160 41101 41044 41053 41041 41018 40945 40855 40797 40782 40774 40790 40841 40913 41042 41202 41363 41417 41284 41125 41039 40943 40868 40836 40831 40866 40914 40936 40929 40931 40952 41006 41092 41145 41204 41236 41130 41062 41016 40983 40941 40965 40938 40885 40838 40688 40584 40513 40516 40626 40831 40999 41152 41257 41208 41133 40996 40847 40733 40636 40616 40606 40555 40546 40497 40485 40530 40653 40842 40928 40971 40908 40803 40739 40677 40655 40581 40593 40628 40665 40704 40619 40497 40419 40415 40533 40679 40820 40917 40894 40833 40786 40747 40686 40549 40424 40371 40381 40380 40372 40353 40378 40463 40642 40829 40967 40967 40821 40666 40543 40471 40460 40443 40436 40509 40586 40649 40656 40610 40540 40518 40599 40742 40846 40958 40991 40946 40911 40855 40834 40768 40593 40452 40332 40302 40309 40289 40258 40237 40286 40406 40593 40793 40870 40740 40618 40494 40409 40344 40228 40156 40138 40219 40217 40225 40144 40008 39978 40067 40242 40428 40500 40485 40441 40363 40318 40274 40190 40089 39999 39991 39985 40018 40035 40033 40087 40264 40516 40725 40849 40795 40654 40493 40330 40210 40247 40424 40652 40751 40862 40919 40987 41068 41129 41151 41182 41220 41166 41060 41031 41011 41007 40961 40965 40988 41072 41074 41015 40922 40862 40852 40935 41066 41208 41323 41256 41222 41196 41180 41121 41038 40922 40888 40876 40851 40847 40874 40941 41039 41184 41337 41490 41508 41418 41343 41284 41221 41140 41130 41128 41156 41168 41205 41197 41219 41255 41260 41279 41296 41237 41128 41007 40890 40835 40807 40741 40764 40827 40833 40818 40783 40792 40840 40995 41138 41303 41443 41471 41468 41483 41493 41455 41373 41336 41328 41319 41309 41283 41293 41338 41395 41506 41652 41714 41745 41682 41584 41523 41513 41488 41475 41508 41538 41548 41534 41499 41442 41363 41314 41331 41438 41563 41634 41579 41566 41562 41549 41561 41513 41450 41354 41284 41207 41168 41169 41229 41307 41461 41573 41671 41661 41533 41385 41226 41113 41056 41005 40988 40980 40970 40931 40916 40918 40921 40941 41006 41070 41076 41003 40921 40827 40776 40822 40948 41055 41116 41071 40960 40884 40888 41052 41306 41585 41809 42111 42162 41984 41853 41718 41620 41583 41464 41318 41259 41262 41245 41296 41396 41559 41659 41765 41775 41713 41539 41373 41317 41338 41382 41448 41393 41371 41406 41452 41423 41406 41391 41409 41474 41538 41593 41583 41479 41471 41459 41450 41432 41394 41324 41269 41175 41101 41090 41112 41162 41245 41352 41454 41504 41412 41278 41108 40960 40816 40713 40682 40663 40649 40604 40601 40592 40625 40757 40866 40939 40973 40927 40884 40847 40817 40817 40800 40763 40756 40764 40693 40549 40431 40320 40294 40398 40624 40923 41031 41041 41000 40950 40954 40933 40954 40880 40833 40846 40847 40852 40925 41022 41124 41256 41404 41352 41174 41007 40871 40771 40697 40693 40726 40778 40867 40893 40975 41058 41067 41087 41116 41188 41292 41229 41135 41077 41044 41028 41006 41046 41065 41016 40898 40808 40736 40743 40829 40952 41093 41233 41228 41198 41071 40875 40680 40500 40370 40299 40304 40317 40264 40207 40153 40185 40390 40593 40767 40794 40627 40506 40502 40563 40645 40677 40721 40687 40689 40614 40496 40424 40394 40424 40509 40636 40790 40839 40758 40730 40681 40659 40564 40447 40338 40318 40362 40387 40403 40446 40537 40673 40831 40970 41017 40904 40757 40651 40572 40513 40499 40503 40522 40591 40574 40581 40576 40562 40575 40621 40721 40943 41066 41016 40988 40966 40929 40912 40919 40889 40871 40807 40703 40677 40738 40855 40984 41119 41232 41280 41193 41067 40935 40798 40705 40659 40599 40599 40594 40517 40456 40397 40424 40461 40593 40749 40889 40832 40800 40790 40783 40790 40818 40851 40868 40798 40601 40451 40349 40338 40408 40544 40701 40869 40877 40795 40664 40524 40351 40229 40169 40111 40131 40170 40187 40218 40274 40401 40521 40623 40660 40699 40646 40535 40455 40425 40407 40372 40374 40370 40410 40359 40210 40100 39995 39989 40037 40183 40385 40545 40592 40445 40297 40143 40070 40040 40093 40171 40215 40240 40227 40231 40258 40337 40384 40394 40448 40429 40360 40332 40323 40343 40364 40389 40424 40407 40350 40219 40107 40052 40016 40051 40176 40317 40440 40531 40492 40392 40264 40142 40045 40002 39960 39945 39908 39951 39928 39963 39981 40014 40088 40192 40302 40255 40261 40202 40154 40095 40061 40052 40008 39957 39793 39687 39572 39485 39474 39613 39850 40072 40240 40227 40092 39907 39740 39593 39458 39397 39365 39418 39379 39338 39264 39179 39140 39202 39314 39491 39656 39584 39476 39379 39324 39292 39248 39165 39125 39128 38993 39004 39012 38996 39037 39116 39310 39544 39736 39772 39621 39512 39367 39314 39292 39289 39266 39284 39411 39493 39386 39318 39206 39186 39306 39528 39812 40003 40128 40123 40138 40055 39972 39870 39755 39719 39757 39797 39855 39859 39861 39925 40056 40167 40273 40264 40162 40089 40057 40036 39990 39955 39927 39961 40014 39899 39778 39671 39591 39655 39829 40059 40234 40350 40336 40221 40056 39883 39750 39678 39633 39706 39800 39907 39955 39976 39997 40033 40143 40241 40347 40361 40319 40247 40169 40125 40097 40073 40038 40010 39945 39896 39863 39830 39895 40093 40332 40556 40700 40677 40576 40426 40320 40235 40169 40134 40163 40247 40294 40312 40327 40322 40368 40445 40495 40558 40622 40602 40521 40400 40257 40160 40103 39979 39795 39600 39395 39224 39121 39088 39201 39489 39833 40022 39964 39698 39518 39401 39470 39653 39880 40001 40161 40237 40250 40242 40234 40247 40277 40383 40504 40584 40512 40428 40469 40535 40692 40873 40945 40902 40866 40853 40901 41026 41123 41264 41399 41571 41669 41745 41785 41757 41765 41840 41826 41794 41740 41759 41759 41791 41791 41771 41819 41978 42095 42180 42120 41996 41824 41723 41734 41755 41699 41645 41661 41637 41625 41611 41649 41709 41797 41990 42131 42146 42039 41950 41936 41963 41974 41962 42000 42018 42049 42044 41997 41959 41951 42003 42083 42189 42275 42272 42224 42221 42220 42175 42111 42014 41990 41977 41974 41968 41969 41990 42039 42102 42181 42165 42164 42086 41960 41898 41849 41823 41785 41791 41778 41786 41708 41598 41510 41495 41541 41632 41737 41836 41874 41807 41703 41598 41505 41418 41363 41318 41304 41345 41328 41324 41361 41396 41433 41481 41585 41636 41601 41549 41503 41468 41458 41468 41508 41414 41390 41238 41241 41252 41324 41447 41571 41698 41856 41893 41766 41652 41570 41526 41481 41470 41462 41452 41508 41503 41527 41531 41531 41565 41642 41756 41839 41834 41756 41738 41760 41781 41750 41709 41639 41576 41579 41585 41646 41664 41748 41888 42000 42049 42001 41886 41790 41672 41611 41545 41514 41508 41483 41511 41475 41445 41379 41324 41339 41436 41573 41718 41718 41658 41643 41586 41515 41434 41351 41306 41235 41306 41311 41377 41400 41417 41477 41577 41675 41752 41745 41718 41701 41704 41744 41721 41709 41690 41603 41585 41513 41492 41464 41450 41475 41635 41818 41961 42018 41953 41893 41842 41826 41779 41781 41744 41746 41776 41762 41923 42115 42300 42423 42523 42572 42570 42469 42416 42388 42370 42387 42358 42237 42127 42079 41952 41926 41925 41971 42031 42116 42233 42279 42145 42021 41910 41868 41839 41815 41811 41799 41844 41864 41877 41849 41796 41775 41808 41851 41955 42042 41968 41986 41988 42011 41949 41846 41739 41673 41626 41605 41576 41560 41584 41630 41721 41854 41867 41841 41683 41626 41583 41557 41533 41523 41557 41669 41724 41733 41740 41739 41790 41892 41956 42095 42175 42094 42061 42050 42009 41935 41832 41789 41690 41648 41579 41549 41537 41650 41748 41915 42050 42108 42089 42051 41973 41947 41930 41927 41922 41999 42049 42098 42097 42054 42028 42048 42113 42198 42277 42302 42377 42327 42269 42208 42127 42044 41963 41921 41899 41960 41968 42009 42032 42098 42195 42281 42357 42378 42387 42299 42293 42276 42291 42298 42285 42297 42299 42271 42168 42086 42032 42017 42044 42122 42206 42316 42327 42262 42199 42111 42007 41894 41835 41770 41765 41775 41793 41817 41853 41909 41953 41975 42032 42036 41946 41817 41718 41675 41628 41622 41638 41559 41508 41387 41307 41251 41229 41251 41382 41537 41710 41793 41772 41596 41435 41295 41181 41116 41105 41122 41161 41165 41213 41249 41236 41326 41505 41625 41693 41748 41733 41677 41635 41562 41548 41491 41378 41238 41175 41120 41076 41044 41015 41064 41247 41475 41638 41526 41433 41362 41299 41275 41243 41235 41210 41255 41234 41215 41154 41106 41082 41095 41222 41449 41549 41579 41552 41525 41493 41407 41347 41325 41275 41290 41299 41339 41347 41355 41398 41509 41615 41689 41710 41669 41642 41650 41643 41623 41627 41652 41603 41570 41476 41408 41378 41361 41392 41426 41529 41730 41846 41835 41754 41693 41651 41654 41673 41710 41711 41728 41746 41803 41830 41846 41938 41996 42078 42265 42306 42284 42249 42249 42262 42263 42222 42163 42116 42075 42072 42096 42159 42258 42380 42480 42558 42562 42514 42431 42329 42239 42219 42201 42216 42198 42198 42145 42039 41980 41945 41923 41956 42043 42127 42215 42205 42198 42106 42010 41899 41812 41755 41738 41699 41688 41674 41673 41667 41671 41642 41615 41635 41755 41887 41861 41801 41742 41656 41618 41563 41466 41294 41262 41176 41142 41099 41068 41093 41202 41362 41507 41567 41453 41331 41247 41167 41103 41055 41062 41003 41021 41077 41018 40965 40915 40922 40984 41123 41271 41409 41443 41362 41190 40973 40757 40644 40585 40577 40538 40595 40555 40614 40652 40671 40681 40793 40921 41059 41142 41104 41066 41003 40966 40955 40908 40904 40791 40751 40678 40714 40732 40727 40804 40955 41171 41324 41392 41399 41236 41220 41212 41182 41189 41143 41136 41117 41105 40944 40891 40878 40888 40943 41041 41179 41326 41494 41634 41530 41487 41376 41283 41201 41144 41124 41160 41211 41252 41268 41196 41100 41077 41117 41165 41298 41482 41664 41681 41683 41607 41516 41386 41296 41255 41227 41223 41180 41137 41059 40999 40992 40984 41004 41124 41300 41378 41289 41191 41095 41102 41108 41106 41114 41048 40984 40893 40883 40880 40927 41044 41225 41446 41641 41638 41483 41319 41133 41040 40940 40930 40918 40953 40976 40954 40850 40742 40665 40702 40891 41128 41307 41372 41351 41340 41347 41292 41189 41050 40986 40940 40918 40910 40954 40986 41062 41217 41338 41417 41382 41280 41213 41136 41074 41020 40943 40940 40913 40867 40792 40731 40711 40649 40663 40777 40963 41126 41283 41243 41075 40989 40905 40810 40747 40712 40696 40692 40697 40771 40774 40731 40803 40977 41173 41376 41547 41613 41594 41602 41613 41581 41492 41438 41368 41318 41319 41312 41307 41308 41319 41382 41501 41594 41810 42222 42298 42379 42431 42483 42493 42467 42425 42283 42179 42098 42078 42136 42216 42308 42407 42496 42625 42733 42524 42438 42358 42326 42378 42431 42422 42408 42408 42377 42385 42379 42391 42456 42565 42656 42712 42733 42666 42643 42651 42689 42675 42622 42572 42467 42398 42331 42318 42318 42362 42445 42507 42505 42475 42450 42311 42152 42081 42012 41964 41902 41877 41832 41813 41723 41656 41660 41661 41701 41755 41911 42122 42239 42215 42021 41842 41698 41645 41613 41630 41628 41635 41729 41733 41754 41743 41718 41751 41809 41910 42060 42137 42057 41988 41954 41924 41847 41739 41625 41481 41590 41617 41642 41691 41717 41775 41872 42028 42102 42089 41971 41920 41935 41950 42006 42028 42072 42077 42108 41999 41891 41805 41760 41744 41817 41953 42105 42224 42161 42056 41944 41869 41880 41902 41954 41928 41926 41880 41824 41827 41783 41784 41793 41821 41893 41958 41918 41799 41718 41648 41592 41487 41384 41270 41196 41171 41152 41171 41171 41223 41359 41524 41619 41642 41530 41388 41291 41219 41154 41091 41111 41085 41068 41011 40840 40792 40750 40764 40905 41123 41349 41545 41618 41504 41342 41123 40992 40939 40919 40908 40873 40878 40828 40798 40735 40706 40758 40892 41000 41132 41205 41170 41114 41040 40974 40931 40855 40798 40755 40702 40590 40572 40612 40586 40642 40868 41108 41318 41422 41383 41274 41256 41285 41357 41409 41516 41631 41587 41501 41379 41344 41349 41434 41551 41705 41763 41826 41847 41736 41502 41266 41074 40962 40870 40843 40807 40783 40702 40598 40431 40289 40290 40446 40674 40884 41051 41033 40970 40892 40844 40765 40671 40588 40542 40550 40494 40491 40411 40326 40334 40451 40648 40774 40891 40921 40781 40665 40505 40404 40398 40438 40468 40390 40337 40139 40056 39962 39903 39983 40208 40467 40750 40927 40796 40603 40409 40304 40289 40285 40295 40300 40274 40235 40103 40025 39901 39848 39897 40092 40315 40532 40571 40436 40323 40165 40095 40063 40063 40080 40110 40090 39974 39835 39784 39760 39733 39783 39926 40033 40047 39915 39673 39493 39438 39456 39404 39309 39222 39179 39041 38912 38826 38780 38822 38953 39283 39628 39841 39951 39872 39755 39857 40041 40197 40331 40481 40509 40552 40405 40368 40410 40484 40680 40893 41115 41382 41506 41457 41233 41110 41045 40965 40948 40962 40906 40892 40821 40735 40598 40515 40481 40532 40726 40932 41085 41087 41013 40939 40848 40827 40809 40762 40682 40707 40724 40669 40672 40674 40713 40839 41002 41141 41286 41260 41258 41234 41233 41256 41195 41089 40959 40951 40814 40751 40718 40709 40748 40916 41118 41354 41376 41167 41033 40938 40872 40874 40781 40766 40782 40832 40810 40735 40688 40661 40760 40952 41157 41248 41224 41142 41085 40953 40789 40672 40576 40524 40667 40670 40742 40720 40743 40825 40936 41037 41077 41037 40907 40832 40760 40720 40669 40623 40514 40377 40213 40138 40123 40067 40068 40217 40453 40701 40870 40797 40568 40476 40440 40483 40531 40529 40536 40614 40744 40730 40695 40665 40670 40723 40886 41081 41253 41339 41312 41244 41135 41069 41013 40968 40972 40950 40998 41052 41101 41149 41155 41171 41253 41351 41464 41535 41529 41560 41569 41592 41579 41500 41383 41243 41218 41141 41121 41069 41054 41098 41269 41411 41478 41463 41373 41351 41312 41309 41297 41289 41252 41260 41204 41119 41072 41050 41038 41127 41306 41484 41653 41769 41723 41630 41509 41445 41415 41396 41327 41397 41415 41434 41467 41434 41363 41346 41460 41606 41762 41888 41892 41869 41827 41829 41757 41694 41621 41571 41545 41564 41521 41524 41530 41554 41583 41679 41827 41960 42022 41957 41927 41868 41845 41853 41803 41777 41669 41699 41647 41704 41765 41841 41920 42009 42157 42249 42306 42181 42044 41995 41918 41870 41825 41721 41698 41676 41546 41410 41359 41314 41354 41475 41664 41873 41987 41928 41729 41507 41383 41317 41268 41241 41228 41260 41182 41184 41133 41035 41021 41096 41270 41526 41660 41678 41557 41458 41393 41314 41198 41085 41020 41058 41019 41033 41048 41035 41065 41143 41274 41412 41501 41441 41286 41142 41026 40997 40979 41167 41275 41267 41345 41433 41543 41619 41683 41745 41915 42044 42057 41851 41686 41683 41680 41823 42005 42039 42081 42159 42165 42096 42056 42103 42153 42201 42258 42286 42277 42168 42041 41877 41697 41580 41487 41422 41359 41409 41357 41355 41343 41401 41493 41578 41643 41744 41812 41798 41797 41763 41715 41695 41600 41462 41327 41322 41273 41251 41211 41223 41355 41533 41673 41737 41687 41496 41308 41150 41050 41021 41004 41050 41086 40992 40872 40813 40808 40810 40943 41134 41338 41514 41621 41516 41552 41633 41699 41744 41810 41804 41822 41871 41891 41962 42064 42159 42225 42262 42298 42335 42303 42189 42146 42170 42192 42227 42182 42140 42069 42031 42025 42018 42047 42095 42153 42228 42261 42304 42343 42259 42199 42155 42117 42104 42087 42024 41896 41815 41828 41763 41744 41759 41786 41856 42034 42201 42255 42265 42099 41997 41905 41820 41746 41721 41707 41658 41560 41502 41397 41340 41333 41351 41409 41569 41766 41925 41897 41768 41597 41527 41475 41454 41456 41432 41434 41455 41407 41261 41090 40985 40976 41144 41376 41581 41726 41771 41705 41580 41440 41365 41309 41288 41239 41253 41287 41276 41283 41221 41193 41235 41371 41530 41703 41802 41779 41759 41765 41687 41613 41535 41511 41463 41473 41505 41543 41567 41611 41625 41693 41778 41866 41941 41951 41904 41879 41840 41810 41798 41711 41560 41522 41480 41466 41495 41498 41544 41736 41907 41986 41996 41915 41837 41775 41759 41715 41710 41691 41623 41624 41566 41537 41577 41624 41730 41841 41993 42117 42212 42142 42008 41933 41886 41861 41830 41849 41820 41873 41898 41833 41803 41823 41876 41956 42105 42226 42346 42355 42367 42308 42247 42191 42144 42103 42077 42071 42075 42076 42129 42165 42200 42222 42292 42374 42443 42456 42395 42365 42359 42305 42231 42124 42011 41967 41954 41927 41917 41913 41925 41998 42094 42149 42179 42127 42076 42023 41969 41940 41913 41867 41743 41601 41516 41453 41406 41362 41363 41455 41624 41760 41808 41779 41671 41600 41534 41444 41342 41263 41197 41172 41152 41102 41022 40957 40963 41028 41174 41369 41539 41643 41523 41342 41158 40989 40871 40823 40793 40749 40832 40899 40879 40806 40774 40854 41002 41191 41402 41491 41481 41460 41349 41190 41047 40887 40865 40879 40998 40971 41005 41017 40989 41021 41113 41243 41397 41487 41442 41406 41382 41376 41380 41274 41201 41098 41105 41099 41076 41084 41092 41177 41371 41527 41637 41621 41629 41583 41613 41596 41633 41614 41648 41689 41637 41554 41492 41481 41468 41562 41743 41900 42049 42026 41940 41885 41840 41824 41826 41789 41753 41812 41866 41871 41863 41874 41893 41949 42031 42131 42215 42238 42205 42250 42181 42082 42000 41932 41883 41876 41889 41909 41963 41970 41994 42074 42201 42290 42378 42342 42331 42329 42308 42293 42257 42146 42063 41976 41917 41935 41939 41947 41990 42052 42191 42270 42272 42177 42129 42111 42075 42053 42030 42021 41958 41982 41950 41893 41875 41867 41883 41906 42003 42127 42273 42272 42169 42073 41973 41853 41771 41705 41634 41610 41644 41600 41511 41370 41278 41236 41328 41560 41766 41871 41852 41826 41721 41617 41489 41388 41301 41284 41353 41396 41433 41474 41501 41516 41616 41740 41876 41932 41872 41857 41816 41757 41636 41456 41269 41127 41174 41137 41101 41073 41047 41112 41289 41386 41428 41404 41291 41201 41096 41040 40987 40914 40869 40776 40682 40585 40516 40421 40480 40586 40746 40926 41075 41094 40971 40774 40626 40521 40450 40407 40346 40274 40324 40239 40253 40220 40173 40238 40391 40637 40924 41131 41235 41175 41094 41025 40947 40904 40864 40865 40939 41010 41098 41141 41200 41327 41496 41646 41798 41945 41950 41998 42063 42094 42092 42026 42011 41961 41990 41961 41926 41943 42028 42147 42214 42210 42246 42348 42395 42317 42331 42305 42327 42381 42366 42324 42220 42159 42073 42065 42076 42105 42141 42185 42256 42321 42358 42317 42260 42227 42202 42171 42168 42164 42156 42056 41958 41893 41836 41812 41829 41859 41927 42076 42215 42290 42181 42060 41989 41959 41935 41914 41893 41855 41839 41773 41598 41468 41432 41419 41440 41517 41656 41841 41995 41855 41679 41557 41485 41458 41463 41389 41399 41430 41388 41326 41218 41092 41021 41007 41133 41298 41451 41526 41437 41333 41133 40989 40839 40809 40771 40866 40879 40910 40945 40932 40867 40903 40984 41136 41287 41443 41417 41403 41358 41273 41127 40994 40851 40750 40767 40802 40894 40973 41012 41049 41159 41286 41373 41474 41459 41476 41534 41533 41545 41552 41504 41338 41259 41190 41206 41213 41206 41197 41294 41457 41593 41572 41422 41266 41230 41190 41134 41153 41113 41103 41261 41293 41321 41363 41446 41527 41589 41681 41813 41948 41909 41776 41646 41519 41448 41400 41332 41305 41372 41373 41368 41350 41246 41190 41259 41442 41646 41781 41818 41785 41711 41568 41393 41297 41208 41069 41145 41256 41347 41363 41367 41315 41296 41351 41486 41607 41655 41656 41664 41702 41694 41632 41517 41429 41377 41481 41497 41581 41646 41667 41768 41922 41944 41912 41761 41600 41476 41410 41417 41432 41339 41227 41178 41169 41155 41212 41260 41304 41381 41532 41742 41895 41937 41806 41803 41840 41856 41887 41963 42019 42107 42139 42057 41978 41989 42042 42088 42178 42271 42393 42378 42282 42181 42047 41930 41861 41794 41773 41795 41840 41795 41747 41592 41525 41546 41699 41820 41908 41927 41920 41880 41783 41563 41307 41148 40983 40905 40975 40932 40915 40866 40865 40840 40925 41094 41267 41378 41350 41343 41347 41318 41249 41162 41059 40877 40851 40829 40858 40911 40924 40968 41092 41274 41400 41497 41542 41512 41583 41652 41655 41622 41610 41527 41467 41351 41287 41242 41204 41204 41318 41467 41667 41778 41772 41613 41508 41391 41299 41289 41322 41360 41378 41370 41227 41150 41084 41133 41200 41386 41559 41697 41794 41723 41523 41336 41149 41008 40988 40988 41032 41060 41104 41158 40970 40794 40608 40535 40600 40808 41042 41253 41417 41484 41338 41152 41002 40848 40729 40680 40646 40624 40634 40712 40582 40453 40281 40151 40109 40224 40489 40765 41012 41040 40968 40848 40776 40703 40687 40672 40663 40715 40769 40808 40747 40646 40611 40676 40862 41053 41222 41317 41314 41287 41213 41092 41038 40942 40869 40841 40966 41021 41073 41095 41041 41011 41056 41165 41345 41465 41474 41494 41523 41507 41423 41291 41206 41084 41149 41143 41192 41208 41200 41221 41304 41419 41545 41663 41701 41709 41727 41677 41651 41605 41503 41377 41342 41240 41270 41259 41231 41217 41302 41500 41657 41729 41683 41606 41541 41460 41413 41412 41354 41383 41325 41336 41218 41224 41243 41263 41347 41483 41679 41879 41932 41820 41686 41622 41523 41463 41403 41342 41329 41285 41215 40982 40932 40897 40918 41000 41120 41304 41511 41604 41474 41122 40928 40743 40679 40645 40616 40647 40751 40734 40652 40567 40495 40529 40684 40890 41084 41327 41541 41554 41463 41328 41232 41178 41112 41072 41058 41008 40942 41002 40961 40874 40819 40864 41008 41230 41405 41456 41412 41370 41232 41106 40977 40913 40822 40850 40904 40985 41043 41082 41147 41210 41305 41433 41543 41627 41618 41610 41616 41615 41577 41507 41447 41417 41437 41479 41597 41693 41824 41931 42029 42149 42233 42238 42302 42392 42462 42529 42596 42631 42588 42489 42411 42328 42317 42377 42485 42574 42672 42750 42908 42964 42760 42664 42578 42557 42517 42485 42477 42503 42422 42374 42331 42271 42258 42264 42333 42433 42515 42540 42505 42378 42224 42056 41959 41851 41858 41925 41948 41930 41907 41798 41687 41617 41653 41734 41829 41863 41719 41615 41528 41364 41170 41052 41102 41073 41007 40970 40962 40925 40917 40991 41084 41239 41406 41639 41733 41777 41791 41806 41840 41785 41630 41515 41489 41495 41499 41522 41528 41531 41534 41575 41616 41641 41696 41606 41550 41513 41478 41466 41419 41313 41169 41092 41073 41082 41112 41110 41098 41146 41276 41426 41490 41539 41493 41412 41400 41355 41357 41337 41309 41286 41286 41216 41197 41151 41117 41139 41234 41440 41681 41817 41766 41640 41590 41478 41382 41322 41255 41189 41271 41292 41228 41124 41038 41025 41128 41355 41581 41805 41911 41913 41805 41713 41620 41566 41509 41529 41525 41599 41625 41641 41555 41482 41456 41608 41819 41994 42093 42074 42095 42058 41966 41871 41803 41788 41778 41844 41838 41860 41911 41941 41999 42117 42243 42353 42479 42477 42400 42354 42268 42232 42126 42088 41998 41957 41825 41830 41825 41837 41950 42098 42253 42348 42279 42271 42130 42027 41977 41972 41979 41911 41848 41760 41703 41678 41694 41779 41883 42040 42237 42356 42234 42088 42007 42044 42077 42189 42246 42319 42412 42404 42323 42295 42331 42391 42500 42624 42701 42723 42693 42521 42323 42171 42130 42138 42180 42208 42235 42250 42279 42285 42235 42212 42270 42337 42406 42398 42330 42250 42189 42078 41954 41789 41734 41766 41782 41815 41892 41996 42132 42223 42227 42198 42157 42044 41964 41952 41984 42054 42069 42003 41884 41736 41671 41716 41798 41905 41984 42076 42162 42141 41943 41748 41594 41431 41329 41295 41339 41262 41324 41282 41261 41198 41192 41237 41333 41472 41601 41699 41632 41523 41570 41580 41657 41719 41785 41756 41805 41730 41742 41785 41852 41934 41970 41910 41902 41978 41982 41923 41887 41869 41891 41935 41904 41917 41941 41915 41979 42031 42021 42007 42015 42060 42198 42208 42099 41913 41837 41790 41732 41594 41475 41380 41423 41343 41369 41373 41410 41530 41716 41872 41998 42071 42069 42094 42145 42158 42156 42160 42168 42135 42090 42044 42056 42103 42158 42281 42418 42567 42655 42560 42382 42296 42283 42302 42321 42352 42400 42462 42408 42322 42258 42264 42246 42244 42325 42434 42562 42564 42404 42165 41967 41829 41743 41701 41679 41758 41717 41661 41527 41408 41374 41445 41626 41810 41916 41913 41879 41842 41703 41563 41469 41504 41639 41797 41856 41878 41910 41976 42045 42028 42050 42020 42012 41953 41892 41921 42005 42149 42213 42188 42052 42000 41942 41977 42092 42236 42377 42546 42596 42554 42441 42334 42290 42233 42222 42288 42398 42484 42418 42167 41933 41837 41923 42040 42184 42326 42443 42562 42484 42229 42085 42005 41992 41985 41969 41952 41940 41999 41825 41723 41651 41667 41721 41827 42001 42184 42252 42135 41928 41758 41679 41636 41571 41535 41558 41667 41678 41675 41604 41520 41454 41533 41698 41873 41989 41975 41895 41744 41538 41385 41296 41244 41290 41431 41452 41561 41686 41734 41681 41605 41678 41765 41930 41874 41894 41910 41912 41833 41699 41553 41425 41587 41715 41820 41900 42009 42146 42238 42303 42329 42370 42344 42331 42295 42304 42333 42365 42377 42312 42215 42134 42134 42184 42239 42320 42383 42445 42480 42466 42444 42396 42402 42406 42411 42406 42414 42355 42210 42053 41908 41801 41702 41613 41608 41726 41895 41990 41943 41788 41747 41741 41741 41681 41662 41661 41744 41752 41595 41554 41521 41502 41575 41740 41919 42099 42180 42001 41858 41699 41560 41498 41464 41538 41584 41678 41675 41663 41594 41578 41616 41727 41883 42039 42104 42068 42031 41870 41774 41724 41725 41775 41754 41844 41800 41832 41824 41791 41749 41722 41761 41866 41939 41892 41768 41708 41601 41426 41308 41245 41150 41255 41238 41312 41352 41370 41404 41418 41482 41598 41767 41793 41798 41817 41821 41817 41790 41740 41620 41646 41587 41640 41681 41725 41759 41804 41922 41986 42039 41987 41967 41991 41948 41947 41910 41888 41809 41826 41730 41736 41756 41775 41810 41875 42015 42182 42257 42176 42110 42100 42075 42050 42056 42027 42015 42095 42012 41958 41904 41856 41845 41869 41952 42126 42271 42306 42188 42055 41910 41776 41710 41672 41700 41714 41734 41733 41681 41599 41570 41597 41713 41892 42021 42077 42029 41879 41681 41476 41355 41287 41267 41346 41374 41388 41438 41371 41338 41308 41380 41526 41698 41758 41729 41704 41635 41451 41241 41108 41040 41013 41032 41038 41066 41108 41134 41133 41165 41191 41266 41252 41193 41098 40970 40855 40748 40627 40554 40551 40527 40480 40502 40496 40537 40646 40814 40881 40947 40945 40933 40960 40968 40916 40871 40869 40766 40726 40589 40499 40525 40535 40649 40854 41061 41215 41156 41025 40988 40970 40930 40973 40971 40952 40992 40840 40725 40610 40502 40515 40642 40860 41106 41294 41451 41322 41198 41114 41067 41006 40971 40985 41018 41137 41280 41369 41414 41478 41584 41658 41716 41841 41997 42078 42005 41931 41865 41822 41781 41790 41799 41818 41842 41896 41935 41903 41850 41851 41923 42062 42159 42276 42286 42311 42306 42220 42121 42028 41962 41953 41900 41838 41824 41796 41768 41807 41843 41907 42051 42126 42107 42084 42064 41976 41863 41727 41713 41739 41800 41827 41860 41905 41971 42062 42135 42195 42286 42433 42435 42437 42424 42429 42450 42403 42318 42217 42259 42192 42182 42159 42182 42204 42344 42573 42681 42688 42694 42513 42305 42131 42117 42122 42068 41897 41732 41485 41411 41447 41543 41757 41938 42148 42223 42255 42187 42128 42088 42084 42109 42139 42227 42227 42087 41845 41508 41313 41182 41119 41166 41355 41569 41627 41460 41146 40939 40842 40822 40889 40979 41036 41054 41073 40978 40998 41037 41102 41186 41327 41492 41604 41570 41405 41232 41187 41174 41188 41204 41223 41287 41285 41124 41049 40963 40982 41062 41197 41365 41546 41649 41514 41424 41305 41229 41191 41185 41211 41218 41314 41278 41272 41265 41293 41386 41527 41724 41876 42011 41973 41845 41740 41669 41600 41578 41591 41582 41713 41753 41811 41793 41751 41772 41873 42026 42163 42276 42243 42283 42243 42159 42069 42022 41979 41914 41998 42082 42150 42208 42251 42287 42404 42533 42608 42680 42648 42655 42683 42684 42601 42549 42464 42448 42468 42473 42527 42552 42538 42512 42515 42564 42644 42709 42681 42651 42654 42630 42592 42503 42283 42218 42076 41919 41841 41776 41730 41833 42013 42183 42212 42139 41968 41827 41745 41690 41677 41630 41513 41439 41268 41161 41133 41122 41228 41372 41578 41783 41847 41729 41556 41445 41365 41283 41300 41317 41273 41336 41232 41166 41125 41107 41205 41391 41561 41731 41808 41648 41480 41317 41184 41139 41114 41125 41167 41214 41202 41090 40910 40748 40662 40683 40869 41073 41203 41145 40930 40642 40452 40423 40449 40525 40565 40737 40855 40959 40980 40987 41028 41129 41306 41501 41736 41785 41791 41824 41948 41871 41861 41943 41984 42049 42089 42094 42145 42153 42083 42007 41979 42005 42065 41989 41896 41927 41967 41898 41862 41823 41733 41796 41878 41921 41974 42065 42174 42258 42288 42359 42446 42487 42516 42605 42670 42729 42731 42706 42691 42660 42656 42681 42734 42829 42944 43001 42992 43014 43065 43037 42985 42977 42967 42984 43071 43130 43105 43038 42944 42911 42895 42912 42931 42943 42988 42975 42977 42889 42826 42823 42804 42796 42794 42810 42781 42689 42536 42481 42531 42555 42600 42656 42746 42865 42869 42648 42496 42409 42348 42301 42271 42272 42224 42206 42040 41909 41849 41877 41951 42022 42183 42318 42336 42177 41968 41855 41792 41811 41913 41986 41992 41948 41893 41756 41688 41653 41636 41682 41750 41870 41899 41840 41723 41601 41506 41498 41516 41515 41559 41545 41556 41547 41534 41465 41442 41444 41544 41647 41640 41634 41625 41571 41431 41273 41176 41147 41126 41108 41137 41123 41124 41093 41124 41145 41216 41289 41274 41203 41170 41110 40946 40769 40642 40573 40687 40722 40855 40946 40981 41056 41148 41251 41335 41420 41523 41603 41682 41754 41867 41936 41950 41855 41804 41775 41754 41772 41777 41787 41802 41794 41800 41778 41666 41523 41403 41292 41233 41266 41313 41215 41026 40793 40676 40648 40635 40786 41034 41144 41059 40879 40809 40700 40575 40554 40616 40700 40809 40870 40767 40757 40722 40749 40876 41047 41265 41412 41502 41393 41259 41175 41101 41038 40998 41054 41129 41178 41073 40972 40919 40897 40949 41076 41256 41430 41592 41536 41411 41343 41308 41273 41284 41336 41395 41482 41514 41450 41409 41405 41438 41495 41612 41732 41863 41878 41784 41764 41763 41798 41861 41927 41977 41997 41957 41976 41990 41985 41959 41924 41995 42081 42100 41994 41993 41932 41849 41776 41791 41760 41779 41858 41892 41951 42043 42079 42086 42038 42039 42091 42176 42118 42086 42065 41978 41834 41713 41660 41648 41750 41738 41732 41797 41814 41775 41750 41764 41836 41893 41899 41862 41865 41882 41761 41626 41563 41505 41536 41488 41475 41481 41498 41471 41398 41378 41440 41507 41515 41467 41455 41474 41446 41325 41235 41162 41157 41157 41121 41131 41146 41155 41192 41170 41213 41249 41266 41180 41143 41127 41094 41060 40960 40872 40843 40827 40787 40785 40792 40837 40877 40902 40866 40893 40922 40823 40773 40749 40701 40678 40673 40587 40505 40526 40484 40466 40478 40512 40535 40618 40705 40733 40752 40707 40632 40619 40604 40586 40572 40577 40507 40442 40438 40434 40436 40420 40442 40495 40596 40643 40659 40705 40609 40587 40584 40577 40585 40641 40584 40474 40425 40491 40440 40421 40432 40461 40527 40663 40711 40737 40799 40761 40735 40812 40838 40869 40914 40909 40853 40858 40839 40866 40950 41052 41132 41181 41214 41185 41144 41018 40990 40968 40911 40845 40838 40831 40718 40689 40599 40586 40595 40606 40676 40768 40887 40937 40939 40858 40797 40790 40793 40744 40720 40731 40743 40660 40533 40477 40477 40499 40522 40593 40708 40839 40823 40650 40494 40414 40382 40317 40224 40081 40098 40212 40167 40113 40155 40313 40415 40491 40590 40731 40671 40481 40267 40157 40082 40111 40158 40198 40253 40340 40206 40108 40082 40080 40117 40147 40263 40369 40451 40256 40045 39899 39771 39712 39730 39744 39821 39879 39871 39808 39706 39641 39677 39802 39951 40110 40177 40165 40065 39960 39862 39781 39790 39808 39860 39993 40074 40103 40043 39976 39943 40033 40181 40292 40371 40359 40337 40201 40047 39913 39885 39925 39993 40075 40085 40134 40178 40178 40190 40239 40359 40478 40571 40574 40607 40623 40534 40400 40331 40290 40404 40593 40693 40767 40847 40927 40996 41033 41074 41114 41095 41007 40802 40668 40531 40361 40192 40064 39961 39895 39725 39644 39707 39837 39990 40131 40300 40433 40574 40621 40628 40652 40655 40626 40517 40441 40404 40398 40428 40452 40496 40536 40601 40634 40665 40710 40784 40765 40753 40732 40699 40665 40633 40551 40489 40493 40492 40482 40522 40512 40535 40582 40606 40609 40680 40668 40609 40602 40613 40615 40634 40630 40533 40467 40415 40391 40413 40475 40534 40612 40686 40702 40684 40615 40507 40484 40469 40473 40485 40518 40486 40379 40309 40217 40215 40238 40274 40343 40437 40528 40531 40480 40388 40322 40338 40339 40338 40364 40386 40364 40310 40194 40175 40184 40205 40285 40379 40480 40560 40550 40505 40398 40347 40345 40318 40303 40272 40273 40238 40156 40167 40120 40145 40155 40158 40212 40304 40392 40474 40527 40566 40542 40495 40536 40543 40543 40553 40472 40399 40324 40272 40246 40164 40062 40087 40081 40058 40035 40074 40191 40299 40412 40558 40634 40573 40587 40388 40246 40139 40084 40179 40255 40359 40507 40487 40506 40411 40295 40310 40339 40458 40607 40734 40747 40809 40754 40669 40555 40471 40400 40423 40498 40582 40591 40562 40502 40425 40405 40438 40553 40664 40736 40701 40657 40495 40290 40119 40010 40032 40075 40205 40247 40287 40272 40143 40067 40090 40165 40330 40444 40566 40614 40500 40480 40348 40254 40234 40301 40390 40490 40544 40590 40670 40697 40666 40693 40717 40737 40818 40866 40803 40759 40660 40547 40450 40490 40570 40603 40630 40585 40549 40611 40659 40757 40891 41007 41109 41206 41214 41162 41180 41212 41187 41170 41151 41164 41193 41221 41180 41206 41237 41291 41303 41260 41229 41289 41374 41329 41337 41369 41342 41281 41181 41096 41051 41098 41125 41124 41150 41166 41185 41175 41144 41191 41258 41234 41274 41272 41288 41270 41195 41119 41090 41058 41111 41093 41103 41081 41106 41123 41110 41113 41156 41194 41151 41101 41091 41095 41056 40904 40764 40671 40698 40647 40644 40655 40648 40694 40696 40681 40684 40734 40676 40611 40567 40551 40569 40537 40444 40330 40313 40254 40244 40240 40255 40291 40302 40294 40244 40239 40241 40147 40131 40093 40063 40004 39948 39847 39796 39739 39707 39707 39743 39794 39893 39983 39950 39919 39864 39770 39720 39698 39693 39662 39660 39618 39459 39338 39243 39244 39246 39310 39389 39490 39576 39573 39484 39231 39048 38963 38935 38975 39014 39118 39093 39104 39104 39155 39230 39306 39402 39530 39664 39723 39624 39476 39449 39498 39547 39547 39568 39659 39764 39725 39650 39672 39730 39795 39888 39978 40120 40252 40254 40103 40011 40015 39960 39987 39971 40006 40063 40088 39946 39849 39785 39776 39799 39906 40036 40193 40300 40272 40153 40050 40004 39985 40015 40080 40138 40264 40243 40148 40050 40080 40145 40294 40406 40506 40623 40548 40343 40285 40296 40395 40528 40665 40677 40689 40655 40592 40604 40655 40732 40815 40897 40983 41070 41081 41007 40914 40873 40840 40821 40871 40861 40854 40797 40782 40872 40966 41087 41245 41386 41472 41542 41571 41439 41208 40983 40773 40644 40601 40616 40667 40640 40523 40417 40230 40028 39867 39830 40002 40153 40125 39975 39769 39653 39537 39448 39443 39490 39504 39408 39326 39262 39242 39261 39362 39424 39608 39797 39895 39893 39910 39928 39933 39855 39774 39740 39775 39817 39832 39898 39922 40001 40045 40080 40092 40156 40250 40184 40215 40268 40346 40373 40364 40324 40350 40303 40310 40371 40454 40509 40568 40621 40637 40667 40658 40611 40621 40661 40665 40695 40717 40657 40597 40576 40535 40552 40626 40704 40753 40817 40837 40888 40891 40841 40821 40857 40915 40958 41018 41016 41007 40980 40840 40857 40912 40948 40936 40968 41012 41031 41027 40971 40921 40957 40995 41038 41037 41038 41019 41003 40915 40874 40886 40919 40966 40985 41015 41036 40994 40953 40849 40856 40888 40911 40945 40973 41033 41038 40997 40943 40883 40869 40839 40841 40928 40977 40953 40887 40831 40789 40775 40746 40744 40721 40770 40760 40664 40605 40574 40577 40644 40735 40773 40770 40758 40710 40585 40531 40490 40413 40338 40301 40270 40210 40140 39967 39749 39540 39403 39325 39238 39194 39257 39382 39462 39419 39364 39372 39414 39412 39448 39499 39536 39541 39473 39349 39236 39168 39109 39034 38965 38919 38908 38888 38804 38616 38462 38523 38684 38843 38980 39061 39085 39047 38904 38819 38840 38899 38967 39007 39122 39215 39249 39108 38915 38726 38624 38576 38526 38473 38365 38302 38352 38350 38332 38344 38413 38455 38448 38444 38447 38465 38536 38540 38497 38512 38574 38582 38586 38525 38482 38425 38337 38151 37958 37746 37600 37645 37843 38036 38196 38256 38245 38176 38115 38198 38350 38437 38538 38600 38655 38648 38513 38375 38278 38179 38057 37957 37890 37846 37742 37556 37402 37389 37492 37591 37651 37713 37790 37806 37799 37758 37784 37852 37919 37972 38082 38212 38322 38439 38434 38386 38349 38350 38286 38216 38117 38016 37961 38037 38071 38029 37924 37826 37862 37895 37984 38143 38157 38072 37866 37656 37540 37533 37782 38156 38460 38703 38839 38796 38773 38758 38730 38804 38925 39053 39202 39303 39363 39377 39386 39467 39546 39702 39897 40023 40083 40115 40109 40082 40089 40168 40277 40349 40409 40461 40534 40653 40775 40875 40886 40890 40953 41013 41014 40996 40999 41006 40982 40955 40909 40858 40817 40774 40791 40836 40891 40869 40837 40838 40898 40952 40936 40906 40895 40919 40937 40893 40844 40805 40798 40790 40820 40878 40970 41053 41050 40993 40977 40990 41002 40952 40908 40921 40956 41005 40936 40837 40725 40660 40591 40582 40611 40637 40657 40711 40749 40734 40645 40553 40494 40503 40503 40505 40486 40459 40370 40259 40155 40138 40158 40198 40254 40338 40437 40423 40277 40103 39983 39926 39875 39851 39861 39880 39930 39904 39737 39666 39642 39690 39765 39851 39998 40114 40153 39944 39736 39666 39602 39548 39622 39714 39747 39886 39868 39773 39718 39743 39768 39811 39919 40046 40082 40033 39918 39807 39701 39650 39623 39664 39721 39803 39774 39798 39764 39706 39699 39739 39794 39887 39942 39897 39899 39907 39822 39690 39593 39556 39620 39705 39701 39723 39721 39756 39771 39777 39818 39924 40004 40019 39965 40018 40052 40116 40137 40130 40083 40053 40004 39934 39926 39955 39957 39974 39983 39987 39970 39889 39768 39703 39641 39653 39693 39631 39541 39629 39598 39657 39705 39778 39835 39956 40067 40088 40021 39898 39874 39926 39926 39943 39928 39949 39987 39901 39803 39840 39894 39973 40033 40124 40208 40269 40124 39946 39867 39900 39978 40065 40091 40099 40103 39939 39764 39690 39630 39635 39728 39843 39909 39933 39833 39662 39564 39515 39490 39496 39552 39584 39611 39519 39367 39188 39037 39001 39030 39119 39277 39307 39181 38949 38807 38728 38703 38696 38674 38766 38943 39031 39101 39046 38976 38971 39015 39137 39277 39368 39438 39417 39357 39198 39060 38977 38958 38971 39011 39149 39147 39157 39111 39064 39068 39107 39184 39301 39413 39503 39391 39339 39215 39119 39033 39050 39121 39162 39271 39239 39287 39273 39205 39202 39240 39380 39520 39613 39596 39580 39573 39523 39455 39425 39452 39471 39556 39583 39598 39674 39680 39671 39669 39720 39829 39917 39894 39929 39982 40000 39968 39941 39965 39954 39971 39994 39970 40083 40123 40070 40038 40047 40096 40185 40278 40221 40288 40337 40385 40374 40352 40355 40394 40393 40384 40422 40422 40418 40378 40363 40314 40288 40290 40285 40276 40243 40156 40050 39894 39729 39598 39504 39472 39512 39578 39628 39580 39483 39390 39370 39433 39520 39595 39701 39813 39872 39898 39866 39847 39878 39925 39980 40060 40095 40116 40073 39912 39764 39708 39725 39765 39744 39681 39644 39643 39561 39422 39329 39282 39280 39351 39430 39461 39450 39405 39246 39068 38939 38854 38774 38714 38714 38822 38981 39056 39031 38951 38881 38861 38866 38920 38954 38978 39015 39005 38945 38895 38875 38869 38828 38799 38785 38787 38740 38524 38307 38298 38442 38573 38651 38649 38640 38612 38505 38459 38412 38441 38481 38524 38606 38686 38732 38742 38604 38441 38347 38273 38177 38072 37984 37930 38062 38150 38099 38035 37936 37892 37907 37932 38028 38057 38021 37861 37693 37628 37733 37969 38209 38399 38501 38515 38451 38272 38175 38083 38125 38212 38353 38499 38540 38574 38544 38489 38527 38601 38736 38933 39023 39067 39121 39153 39140 39109 39057 39061 39090 39113 39171 39131 39162 39212 39173 39141 39153 39242 39356 39477 39415 39435 39455 39410 39291 39160 39159 39136 39236 39214 39277 39317 39345 39362 39369 39440 39540 39624 39622 39615 39645 39706 39712 39668 39611 39592 39640 39626 39624 39656 39705 39792 39815 39814 39847 39913 39890 39877 39870 39868 39839 39789 39747 39746 39744 39683 39649 39577 39527 39560 39671 39824 39916 39989 40012 40026 40113 40167 40288 40394 40487 40478 40382 40325 40334 40330 40367 40434 40502 40603 40638 40581 40425 40292 40244 40213 40215 40228 40295 40354 40337 40174 40009 39908 39878 39921 39982 40099 40165 40262 40148 39969 39792 39657 39596 39581 39571 39601 39601 39537 39318 39158 39044 39067 39170 39295 39418 39516 39562 39433 39261 39143 39181 39309 39405 39449 39466 39486 39460 39384 39288 39221 39235 39335 39429 39531 39533 39475 39383 39260 39140 39075 39068 39122 39171 39184 39198 39243 39256 39245 39243 39266 39349 39443 39438 39415 39434 39475 39374 39243 39196 39166 39268 39277 39324 39352 39380 39430 39456 39463 39476 39537 39478 39500 39548 39597 39595 39539 39500 39493 39515 39529 39535 39572 39625 39677 39751 39786 39800 39806 39765 39708 39749 39777 39775 39747 39753 39700 39684 39658 39642 39669 39723 39800 39858 39934 39995 40009 39952 39884 39855 39923 40005 40073 40085 40124 40029 39923 39835 39803 39855 39898 39943 39982 40080 40085 39959 39820 39706 39696 39689 39674 39677 39732 39738 39645 39506 39461 39454 39481 39523 39609 39716 39839 39806 39591 39427 39352 39365 39353 39386 39435 39491 39558 39439 39299 39258 39283 39338 39414 39520 39618 39700 39548 39301 39154 39072 39026 39059 39097 39132 39238 39192 39124 39032 38997 39044 39124 39215 39333 39398 39349 39209 39004 38864 38780 38712 38738 38841 38960 38987 39023 38945 38892 38889 38937 39003 39097 39146 39062 39036 38913 38781 38660 38583 38588 38680 38812 38705 38715 38761 38721 38725 38768 38852 38978 39103 39162 39115 39083 39054 38921 38806 38784 38782 38859 38914 38938 38932 38950 38944 38938 38952 39019 39134 39223 39204 39199 39218 39107 39003 38889 38881 38953 39073 39094 39132 39176 39229 39251 39244 39265 39341 39454 39421 39397 39453 39498 39467 39459 39442 39398 39399 39325 39329 39352 39394 39405 39341 39339 39368 39402 39349 39306 39335 39361 39340 39209 39113 39075 39140 39130 39162 39206 39242 39332 39379 39372 39380 39394 39339 39301 39306 39302 39318 39264 39130 38972 38945 38828 38839 38840 38863 38923 39007 39064 39036 39037 38945 38919 38954 38982 39014 39025 38986 38880 38859 38771 38788 38846 38941 39025 39124 39241 39212 39105 38936 38859 38850 38842 38795 38796 38819 38762 38684 38559 38526 38593 38657 38752 38875 38984 39018 38937 38745 38656 38651 38685 38754 38854 38910 38936 38838 38678 38630 38697 38743 38842 38957 39072 39181 39042 38850 38737 38713 38775 38888 39002 39062 39137 39142 39028 38966 38930 38903 38920 39005 39078 39143 39119 38834 38677 38625 38611 38641 38703 38770 38874 38852 38813 38735 38605 38607 38752 38962 39167 39258 39310 39307 39223 39155 39144 39136 39188 39250 39332 39303 39336 39326 39304 39340 39401 39466 39556 39638 39614 39588 39563 39495 39462 39391 39404 39438 39521 39523 39570 39585 39574 39568 39565 39616 39724 39821 39818 39833 39837 39853 39784 39714 39709 39710 39782 39780 39809 39858 39908 39907 39912 39901 39964 40023 40002 39951 39951 39958 39950 39841 39761 39728 39779 39776 39764 39798 39838 39888 39880 39861 39858 39908 39935 39872 39881 39882 39892 39835 39741 39699 39667 39667 39686 39695 39733 39786 39815 39738 39651 39625 39681 39703 39736 39732 39703 39742 39689 39496 39249 39058 38941 38901 38886 38870 38879 38904 38800 38687 38636 38674 38754 38800 38870 38908 38973 38962 38891 38828 38869 38927 38989 39042 39081 39078 39068 38910 38779 38743 38779 38874 38975 39018 39068 39064 38988 38881 38794 38748 38722 38744 38816 38860 38894 38896 38725 38505 38314 38174 38044 37930 37835 37763 37808 37834 37836 37856 37927 37998 38016 37990 38018 38061 38087 38006 37940 37992 38059 38068 38100 38132 38102 38020 37923 37689 37418 37230 37209 37336 37528 37685 37793 37841 37724 37580 37486 37484 37565 37611 37650 37713 37859 37953 37948 37861 37791 37732 37687 37645 37585 37521 37480 37408 37369 37401 37533 37651 37637 37573 37539 37549 37678 37626 37421 37206 37137 37147 37281 37508 37735 37936 37981 37816 37609 37519 37535 37586 37639 37773 37919 38065 37970 37858 37820 37797 37840 37978 38159 38240 38270 38176 37976 37785 37744 37747 37806 37883 38021 38184 38334 38330 38324 38324 38331 38400 38516 38653 38757 38763 38696 38596 38548 38548 38569 38612 38693 38769 38857 38895 38881 38838 38799 38824 38885 38996 39108 39183 39171 39132 39069 39004 38998 38953 38970 39034 39169 39207 39202 39247 39233 39237 39269 39346 39417 39458 39426 39441 39482 39493 39397 39344 39304 39313 39385 39347 39335 39365 39422 39459 39482 39511 39550 39569 39544 39529 39534 39560 39566 39485 39401 39373 39407 39386 39394 39410 39476 39561 39666 39660 39624 39522 39462 39449 39453 39440 39448 39494 39480 39383 39296 39194 39176 39201 39259 39330 39417 39488 39381 39180 38987 38923 38896 38893 38909 38959 38973 38936 38814 38584 38526 38559 38661 38783 38917 39058 39126 39041 38860 38663 38594 38590 38606 38662 38714 38735 38817 38588 38426 38388 38422 38534 38659 38818 38940 38982 38877 38676 38588 38582 38651 38754 38835 38872 38911 38914 38922 38967 38894 38902 38975 39046 39064 39056 38931 38831 38752 38736 38809 38891 39003 39059 39124 39125 39139 39274 39335 39295 39205 39178 39192 39220 39167 39160 39157 39188 39117 39036 38961 38943 39041 39054 39114 39165 39223 39303 39299 39300 39266 39230 39175 39160 39162 39147 39162 39204 39130 39063 39102 39089 39091 39164 39241 39315 39401 39514 39492 39460 39349 39287 39320 39374 39394 39426 39455 39471 39457 39380 39286 39264 39307 39395 39468 39556 39683 39709 39606 39439 39335 39340 39339 39366 39417 39456 39505 39594 39436 39289 39248 39277 39387 39489 39613 39722 39814 39711 39522 39362 39231 39207 39219 39238 39285 39389 39381 39332 39246 39191 39203 39275 39384 39474 39549 39548 39517 39443 39305 39210 39160 39196 39219 39322 39365 39348 39391 39445 39484 39470 39489 39510 39558 39502 39439 39410 39439 39349 39210 39117 39081 39165 39235 39174 39180 39185 39253 39275 39266 39243 39251 39281 39172 39144 39071 39092 39086 38935 38861 38791 38877 38865 38905 38951 39065 39151 39217 39217 39181 39117 39006 38911 38903 38910 38926 38940 38850 38732 38708 38653 38672 38777 38877 39012 39135 39232 39132 39006 38867 38743 38745 38823 39031 39171 39296 39194 38999 38733 38616 38574 38566 38650 38749 38867 38902 38805 38552 38408 38386 38406 38400 38413 38466 38510 38445 38263 38187 38207 38305 38401 38530 38649 38778 38715 38462 38237 38167 38178 38208 38255 38328 38381 38458 38322 38191 38179 38249 38350 38473 38602 38712 38746 38499 38242 38132 38083 38119 38138 38221 38325 38413 38410 38306 38214 38204 38309 38411 38496 38621 38724 38637 38487 38297 38245 38236 38227 38266 38311 38429 38469 38512 38447 38429 38511 38580 38714 38831 38893 38883 38840 38734 38674 38645 38609 38589 38653 38742 38785 38859 38869 38796 38736 38751 38855 39017 39101 39138 39137 39142 39080 39036 39029 39038 39069 39132 39197 39213 39251 39259 39269 39283 39334 39429 39522 39531 39474 39504 39455 39374 39358 39399 39460 39482 39504 39510 39518 39620 39766 39851 39900 39917 39895 39839 39777 39748 39780 39734 39591 39514 39450 39528 39550 39540 39516 39550 39622 39651 39646 39644 39661 39637 39572 39539 39480 39440 39386 39287 39198 39226 39337 39319 39315 39339 39375 39447 39382 39335 39330 39332 39276 39258 39189 39157 39130 39011 38894 38814 38905 38884 38910 38957 39033 39143 39242 39260 39189 39130 39034 38965 38892 38881 38860 38897 38821 38739 38710 38721 38744 38787 38837 38915 38993 39105 39070 39042 38955 38862 38826 38856 38867 38867 38886 38848 38754 38758 38718 38719 38760 38830 38924 39034 39121 39081 38971 38821 38783 38801 38824 38870 38924 38919 38780 38690 38573 38592 38634 38715 38832 38958 39047 38981 38909 38743 38715 38717 38729 38728 38726 38770 38709 38617 38496 38484 38529 38630 38719 38860 38996 38987 38883 38659 38568 38544 38583 38608 38599 38632 38581 38494 38324 38292 38333 38407 38525 38623 38756 38777 38682 38506 38355 38316 38388 38464 38503 38578 38617 38520 38409 38279 38277 38354 38482 38622 38724 38835 38736 38583 38380 38269 38274 38353 38382 38431 38479 38412 38300 38142 38139 38163 38264 38436 38570 38694 38729 38616 38408 38270 38224 38240 38300 38347 38419 38485 38386 38274 38183 38157 38168 38266 38411 38530 38616 38505 38409 38250 38139 38136 38196 38223 38258 38307 38244 38146 38136 38165 38204 38262 38395 38513 38638 38657 38561 38500 38365 38323 38334 38384 38422 38464 38483 38392 38337 38356 38338 38387 38419 38505 38613 38728 38685 38621 38591 38546 38485 38503 38538 38603 38653 38590 38511 38550 38529 38574 38575 38645 38767 38903 38972 38934 38880 38815 38787 38780 38835 38882 38935 38944 38861 38806 38748 38774 38819 38947 39034 39136 39217 39138 39019 38862 38833 38831 38888 38954 39002 39059 39007 38953 38834 38824 38866 38960 39077 39172 39286 39240 39074 38856 38826 38819 38881 38885 38905 38928 38878 38805 38678 38622 38615 38573 38571 38597 38661 38598 38478 38336 38269 38225 38167 38204 38305 38490 38545 38472 38387 38410 38451 38544 38700 38849 39005 39034 38905 38672 38589 38520 38570 38617 38639 38707 38739 38645 38482 38377 38373 38434 38556 38698 38881 39032 38929 38717 38530 38484 38471 38463 38453 38514 38566 38607 38500 38385 38359 38400 38477 38568 38697 38828 38800 38560 38370 38257 38228 38269 38316 38435 38536 38657 38559 38445 38462 38532 38639 38750 38893 38993 39049 38857 38421 38000 38058 38197 38402 38508 38637 38697 38575 38447 38399 38526 38606 38694 38785 38886 38907 38776 38559 38418 38458 38588 38667 38681 38655 38651 38661 38528 38433 38432 38476 38568 38668 38793 38875 38707 38473 38287 38214 38206 38253 38333 38445 38520 38605 38433 38325 38307 38359 38492 38625 38758 38858 38824 38594 38390 38315 38316 38278 38314 38368 38417 38553 38419 38264 38177 38170 38220 38322 38489 38603 38617 38346 38169 38100 38086 38115 38204 38260 38357 38481 38310 38191 38165 38246 38352 38480 38649 38754 38807 38544 38358 38239 38240 38258 38303 38359 38411 38571 38458 38321 38207 38245 38332 38425 38573 38699 38764 38544 38285 38140 38074 38089 38150 38221 38293 38438 38304 38178 38088 38110 38199 38329 38469 38605 38673 38581 38338 38183 38115 38123 38155 38240 38299 38438 38429 38291 38185 38192 38251 38347 38501 38619 38691 38526 38249 38039 37954 37934 37950 38018 38103 38287 38248 38146 38046 38038 38115 38273 38465 38615 38696 38641 38413 38203 38121 38131 38168 38241 38346 38479 38506 38416 38274 38243 38305 38394 38517 38616 38639 38511 38262 38037 37935 37922 37942 38035 38141 38292 38313 38234 38100 38092 38169 38260 38415 38522 38562 38458 38314 38131 38055 38062 38149 38223 38321 38370 38360 38329 38232 38253 38312 38397 38497 38562 38553 38430 38305 38115 38027 38027 38062 38129 38277 38296 38325 38350 38298 38264 38308 38398 38504 38542 38482 38422 38348 38204 38105 38056 38092 38167 38285 38264 38284 38276 38193 38143 38166 38279 38390 38504 38453 38410 38348 38224 38129 38083 38098 38142 38314 38361 38399 38437 38412 38412 38432 38501 38595 38653 38577 38550 38493 38382 38275 38240 38291 38320 38417 38488 38462 38463 38349 38292 38298 38355 38471 38593 38638 38545 38458 38194 38075 38064 38103 38174 38242 38368 38311 38356 38264 38211 38252 38360 38454 38536 38600 38537 38477 38227 38050 37961 37900 37975 38086 38239 38310 38335 38186 38083 38085 38162 38282 38426 38552 38586 38403 38148 37868 37759 37665 37698 37764 37861 38016 38080 37939 37791 37749 37827 37949 38108 38295 38427 38566 38359 38068 37847 37741 37728 37765 37834 37916 38027 37953 37795 37756 37709 37708 37769 37829 37929 38054 38047 37953 37921 37885 37819 37788 37711 37704 37726 37694 37694 37685 37722 37861 37863 37876 37923 37958 37954 37959 38021 38106 38206 38222 38083 38002 37995 37786 37661 37622 37666 37789 37887 38032 38084 38085 37985 37832 37809 37872 38023 38195 38337 38436 38295 38045 37769 37686 37673 37694 37767 37833 37927 38057 37854 37723 37560 37575 37714 37895 38101 38244 38285 38125 37864 37714 37842 38009 38109 38213 38360 38427 38257 38036 38039 38080 38162 38300 38419 38531 38600 38334 38071 37892 37840 37922 38009 38079 38167 38319 38127 37967 37855 37884 37975 38120 38260 38359 38417 38207 37998 37896 37860 37821 37830 37879 37970 38135 38034 37883 37860 37917 38019 38163 38293 38376 38375 38166 37967 37875 37875 37881 37938 38037 38140 38274 38089 37909 37752 37699 37759 37948 38099 38212 38192 37738 37464 37294 37286 37407 37508 37565 37674 37607 37437 37324 37343 37458 37660 37890 38101 38225 38208 37942 37746 37623 37559 37636 37755 37825 37943 37979 37756 37615 37582 37620 37726 37881 38073 38170 38170 37964 37813 37753 37741 37763 37823 37924 38003 38111 37992 37891 37891 37930 38021 38174 38308 38348 38249 37999 37795 37728 37710 37792 37859 37945 38067 38003 37879 37854 37909 38018 38159 38287 38324 38303 38180 37996 37885 37811 37832 37874 37966 38078 38087 38097 38017 38003 38036 38116 38246 38335 38355 38253 38151 37987 37873 37834 37875 37965 38037 38184 38153 38100 38011 37937 37994 38114 38312 38451 38520 38477 38385 38202 38104 38072 38080 38171 38207 38350 38306 38268 38148 38084 38121 38238 38394 38517 38617 38578 38392 38139 38000 37951 37959 38019 38072 38129 38238 38053 37922 37871 37957 38133 38283 38456 38539 38594 38385 38141 37946 37926 37957 37987 38076 38144 38257 38183 38038 37961 37986 38120 38262 38415 38568 38670 38526 38248 38034 37972 37992 38037 38115 38165 38223 38127 37884 37737 37728 37813 37921 38077 38245 38360 38203 37916 37686 37606 37610 37629 37725 37763 37866 37819 37703 37689 37749 37864 38013 38169 38375 38496 38351 37867 37421 37358 37463 37671 37845 37899 37812 37491 37138 37107 37302 37535 37788 38007 38228 38337 38179 37950 37720 37659 37630 37667 37729 37819 37912 37836 37727 37686 37699 37881 38045 38204 38368 38419 38243 37979 37801 37822 37999 38156 38274 38306 38291 38054 37888 37992 38221 38512 38632 38599 38629 38650 38496 38248 38142 38160 38159 38204 38238 38292 38338 38267 38176 38176 38203 38257 38373 38477 38622 38664 38486 38267 38217 38206 38220 38235 38288 38333 38304 38254 38131 38169 38204 38317 38431 38540 38666 38656 38520 38279 38241 38267 38293 38273 38252 38322 38334 38242 38190 38152 38179 38268 38365 38477 38592 38636 38485 38216 38107 38075 38096 38116 38127 38119 38030 37933 37911 37831 37862 37935 38047 38190 38319 38385 38286 38124 37993 37943 37914 37933 37924 37926 37991 37949 37958 37942 37898 37771 37781 37842 37937 38027 38003 38026 38002 37902 37900 37883 37865 37863 37781 37704 37648 37791 37767 37829 37870 37960 38068 38125 38111 38121 38152 38118 38062 38041 38069 38082 38002 37886 37867 37992 38022 38069 38129 38155 38236 38256 38267 38318 38383 38396 38363 38343 38349 38353 38248 38124 38150 38195 38321 38396 38449 38455 38526 38556 38551 38592 38657 38690 38620 38562 38542 38562 38419 38311 38306 38327 38409 38508 38585 38583 38612 38604 38575 38584 38652 38722 38718 38645 38594 38552 38422 38298 38266 38315 38384 38593 38566 38588 38616 38614 38570 38591 38643 38708 38738 38624 38545 38468 38298 38177 38152 38163 38196 38298 38284 38294 38263 38158 38127 38144 38248 38400 38489 38459 38363 38252 38106 37948 37889 37929 37970 38049 38104 38121 38177 38098 38077 38076 38139 38222 38258 38222 38141 37952 37717 37569 37524 37557 37640 37751 37833 37851 37878 37754 37717 37724 37809 37930 38021 38005 37901 37793 37574 37436 37400 37487 37580 37688 37771 37774 37712 37572 37572 37619 37724 37823 37930 37925 37882 37666 37469 37350 37363 37440 37528 37619 37735 37737 37630 37519 37515 37603 37747 37900 38014 37986 37888 37602 37398 37332 37336 37431 37553 37661 37745 37723 37549 37485 37524 37608 37739 37888 37940 37907 37760 37496 37369 37358 37415 37541 37622 37708 37808 37741 37637 37589 37655 37778 37911 38031 38088 38048 37775 37495 37400 37417 37529 37636 37640 37775 37783 37640 37530 37533 37620 37741 37869 37988 38069 37953 37679 37499 37441 37481 37600 37714 37803 37929 37893 37761 37643 37617 37700 37822 37986 38122 38166 37974 37698 37519 37455 37523 37605 37734 37821 37921 37813 37634 37559 37670 37822 37988 38104 38121 38127 37667 37396 37322 37363 37432 37529 37659 37727 37821 37607 37472 37448 37534 37668 37797 37910 38022 37934 37628 37425 37354 37397 37443 37523 37628 37707 37715 37461 37353 37342 37391 37516 37642 37783 37922 37905 37672 37528 37502 37555 37580 37645 37712 37781 37741 37616 37532 37562 37634 37760 37854 37960 38062 37978 37832 37644 37617 37648 37696 37741 37808 37869 37798 37723 37688 37740 37832 37937 38021 38130 38191 38109 37963 37829 37806 37831 37867 37903 37950 37961 37885 37864 37848 37887 37912 37989 38074 38157 38183 38142 38086 37989 37956 37950 37971 38001 38043 38036 37977 37964 38003 38011 38028 38057 38130 38216 38255 38203 38209 38192 38141 38129 38068 38081 38115 38075 37960 37931 38012 38068 38094 38058 38074 38126 38161 38071 38083 38114 38216 38170 38153 38131 38184 38219 38130 38046 38025 38071 38100 38117 38117 38189 38272 38196 38096 38046 38054 38073 38112 38154 38160 38174 38043 37883 37770 37730 37690 37654 37602 37519 37460 37294 37139 37040 37043 37102 37143 37203 37196 37156 37110 37001 36947 36929 36943 37032 37120 37180 37217 37203 37077 36989 36970 37001 37043 37073 37114 37155 37166 37037 36886 36853 36839 36853 36874 36925 36938 36958 36854 36744 36696 36712 36769 36799 36821 36876 36918 36914 36809 36771 36770 36830 36874 36908 36936 36960 36946 36825 36727 36702 36730 36786 36824 36796 36783 36751 36631 36544 36518 36507 36520 36505 36458 36404 36475 36567 36616 36648 36726 36829 36920 36990 37063 37105 37136 37121 37131 37155 37212 37311 37393 37460 37522 37471 37387 37365 37430 37533 37629 37705 37769 37824 37791 37707 37641 37671 37727 37792 37855 37907 37916 37860 37645 37505 37432 37411 37386 37301 37171 37013 36790 36438 36134 35961 35921 35905 35924 35985 36036 36055 35928 35792 35681 35608 35572 35553 35581 35570 35655 35657 35592 35601 35723 35779 35752 35657 35528 35397 35189 34990 34872 34924 35118 35334 35431 35454 35388 35075 34863 34951 35133 35411 35635 35793 35885 35918 35804 35739 35720 35735 35699 35593 35598 35621 35592 35345 35182 35242 35479 35755 35922 36019 36016 35972 35758 35625 35661 35789 35933 36016 36115 36206 36264 36096 35875 35690 35603 35564 35559 35522 35481 35373 35258 35342 35596 35841 36017 36105 36030 35971 35907 35854 35814 35798 35857 35989 36150 36289 36401 36406 36295 36060 35856 35732 35684 35698 35798 35899 36055 36113 36131 36162 36203 36153 36110 36127 36185 36240 36164 36075 36143 36304 36472 36596 36636 36621 36567 36406 36216 36123 36078 36061 36116 36285 36506 36668 36686 36549 36427 36355 36393 36461 36554 36626 36666 36689 36664 36638 36664 36716 36783 36717 36635 36565 36518 36277 36058 36072 36304 36559 36738 36868 36927 36947 36726 36558 36534 36601 36657 36693 36719 36808 36942 36882 36726 36666 36604 36537 36478 36437 36373 36269 36173 36170 36307 36493 36691 36815 36838 36800 36697 36602 36476 36372 36366 36425 36587 36741 36851 36912 36936 36779 36542 36368 36283 36257 36200 36214 36373 36576 36699 36636 36580 36503 36449 36400 36380 36461 36528 36610 36601 36598 36674 36797 36868 36858 36797 36697 36671 36516 36202 36027 36099 36355 36643 36792 36842 36819 36713 36520 36395 36355 36408 36482 36588 36728 36884 37012 36911 36736 36545 36448 36434 36414 36344 36329 36473 36525 36569 36629 36711 36772 36819 36893 36978 37062 37028 36887 36728 36703 36801 37021 37253 37421 37539 37526 37369 37159 37066 37073 37061 37127 37224 37337 37414 37338 37195 37176 37244 37411 37568 37728 37785 37812 37761 37549 37438 37418 37435 37501 37609 37704 37794 37803 37668 37571 37578 37650 37745 37871 37971 37958 37883 37694 37502 37408 37368 37405 37480 37554 37675 37703 37685 37566 37519 37551 37632 37762 37881 37959 37884 37840 37694 37589 37546 37523 37562 37607 37708 37687 37749 37741 37694 37754 37825 37983 38089 38147 38092 38007 37998 37921 37901 37936 38023 38069 38125 38037 38084 38156 38038 37946 37939 38014 38118 38176 38099 37932 37862 37763 37644 37685 37746 37847 37884 37924 37945 38026 38277 38407 38419 38330 38228 38167 37994 37705 37522 37351 37254 37114 36985 36862 36824 36813 36812 36799 36837 37058 37239 37408 37564 37677 37703 37549 37549 37576 37611 37585 37475 37408 37395 37432 37500 37566 37669 37804 37911 37912 37916 37926 37882 37815 37801 37818 37830 37857 37751 37671 37685 37643 37704 37727 37755 37838 37935 38016 37992 37946 37814 37778 37811 37831 37811 37845 37867 37730 37703 37594 37657 37676 37725 37815 37904 38027 38005 37954 37853 37834 37818 37827 37809 37807 37851 37807 37701 37663 37657 37693 37752 37829 37941 38061 38158 38120 37931 37850 37814 37803 37826 37934 38039 38063 37964 37778 37675 37672 37776 37949 38176 38280 38347 38247 38090 37891 37799 37765 37822 37906 37934 37982 38015 37887 37784 37689 37664 37655 37681 37741 37832 37905 37802 37634 37486 37409 37392 37395 37384 37432 37501 37423 37343 37227 37229 37256 37358 37484 37594 37695 37612 37493 37310 37255 37197 37182 37208 37204 37267 37284 37213 37132 37133 37150 37210 37315 37418 37517 37621 37488 37330 37229 37166 37144 37131 37132 37176 37242 37143 37078 37037 37031 37049 37114 37222 37304 37389 37367 37319 37244 37117 37131 37112 37144 37173 37166 37101 37027 37059 37029 37062 37111 37194 37312 37426 37485 37473 37464 37397 37406 37394 37403 37408 37471 37488 37421 37404 37324 37373 37432 37526 37602 37707 37765 37690 37548 37435 37441 37479 37517 37515 37490 37504 37432 37421 37398 37458 37547 37630 37712 37821 37901 37837 37713 37542 37521 37493 37485 37499 37489 37538 37456 37420 37314 37333 37401 37460 37531 37619 37750 37694 37614 37494 37464 37444 37451 37470 37524 37572 37506 37422 37371 37352 37404 37464 37549 37660 37750 37762 37683 37557 37430 37423 37414 37432 37452 37500 37413 37289 37302 37217 37228 37247 37287 37355 37476 37531 37446 37441 37446 37339 37307 37338 37404 37450 37437 37359 37272 37321 37346 37366 37437 37562 37675 37735 37672 37587 37529 37477 37422 37409 37443 37425 37388 37302 37228 37272 37279 37329 37383 37459 37517 37584 37506 37459 37438 37400 37387 37369 37404 37428 37418 37346 37257 37289 37225 37264 37273 37316 37375 37468 37446 37377 37350 37291 37253 37275 37270 37248 37207 37012 36910 36943 36917 36811 36759 36789 36907 37059 37145 37148 37176 37177 37156 37172 37224 37245 37301 37244 37162 37094 37082 37073 37053 37080 37195 37365 37470 37437 37409 37486 37441 37419 37355 37290 37299 37242 37151 36991 36924 36800 36762 36798 36912 37145 37328 37374 37371 37372 37376 37365 37355 37324 37275 37245 37065 36989 37067 37144 37227 37319 37391 37512 37620 37604 37564 37513 37495 37495 37504 37450 37437 37439 37342 37376 37322 37354 37398 37452 37591 37737 37879 37842 37777 37673 37451 37382 37390 37463 37576 37660 37586 37503 37393 37370 37448 37581 37733 37848 37953 37858 37747 37710 37654 37654 37769 37881 37891 37849 37675 37484 37397 37318 37336 37369 37449 37571 37705 37719 37706 37695 37583 37549 37536 37553 37581 37635 37550 37462 37491 37511 37513 37496 37503 37562 37671 37717 37733 37766 37828 37772 37725 37684 37668 37612 37481 37400 37317 37353 37269 37193 37150 37112 37111 37153 37203 37302 37445 37475 37369 37331 37350 37388 37302 37238 37244 37285 37443 37478 37585 37613 37691 37757 37776 37819 37854 37934 37855 37869 37866 37885 37923 37811 37747 37751 37806 37897 37917 37996 37988 37971 37862 37724 37590 37468 37388 37222 37052 36978 36921 36845 36894 36992 37101 37181 37207 37214 37245 37270 37214 37158 37168 37222 37237 37272 37309 37267 37208 37085 36863 36648 36494 36491 36506 36419 36335 36349 36412 36389 36398 36465 36578 36696 36747 36726 36758 36817 36783 36700 36641 36673 36791 36868 36888 36847 36772 36703 36562 36460 36382 36302 36224 36206 36334 36543 36659 36639 36598 36592 36550 36455 36415 36421 36479 36513 36464 36471 36533 36634 36725 36753 36731 36646 36543 36390 36204 36001 35942 35997 36227 36483 36758 36942 36977 36887 36808 36778 36805 36834 36865 36906 36983 37018 36982 36956 36850 36831 36822 36744 36643 36573 36503 36258 36042 36032 36189 36428 36578 36688 36732 36723 36510 36273 36197 36228 36293 36322 36370 36437 36503 36451 36331 36309 36330 36393 36464 36455 36433 36392 36296 36204 36220 36301 36357 36341 36255 36161 36054 35953 35881 35892 36049 36204 36424 36604 36730 36843 36937 36933 36921 36929 36968 37012 37063 37058 37068 37091 37039 36960 36961 36990 37030 36998 36948 36946 37017 36919 36751 36684 36750 36867 36966 37016 37009 37028 36959 36787 36671 36569 36527 36570 36680 36807 36885 36915 36803 36748 36798 36893 37010 37152 37243 37326 37456 37436 37345 37342 37396 37430 37499 37553 37534 37535 37318 36989 36705 36652 36724 36812 36886 36932 36962 36855 36668 36618 36597 36584 36634 36761 36948 37127 37208 37111 37041 37118 37082 36995 36850 36753 36692 36675 36606 36601 36682 36753 36799 36769 36686 36611 36638 36644 36558 36525 36555 36662 36783 36845 36851 36758 36639 36346 36142 36062 36087 36171 36334 36499 36648 36767 36765 36636 36530 36495 36511 36500 36503 36530 36574 36630 36606 36554 36531 36548 36468 36380 36273 36234 36205 36003 35817 35830 36063 36306 36491 36636 36744 36796 36732 36614 36540 36568 36628 36692 36754 36811 36847 36807 36651 36525 36445 36390 36371 36332 36280 36177 36132 36087 36105 36215 36337 36456 36557 36620 36645 36688 36712 36658 36642 36679 36763 36877 36956 37014 37079 37146 37090 36977 36931 36891 36917 36910 36914 36958 37044 37001 36890 36841 36855 36836 36790 36791 36838 36907 36901 36776 36681 36732 36803 36884 36938 36938 36951 36880 36741 36518 36333 36214 36286 36388 36555 36659 36701 36648 36389 36175 36107 36165 36270 36370 36445 36513 36600 36530 36457 36359 36401 36394 36362 36264 36179 36086 35952 35803 35824 35998 36192 36329 36433 36497 36511 36407 36191 36137 36181 36244 36354 36432 36541 36616 36649 36552 36384 36247 36143 36053 36049 36064 36103 36144 36210 36151 36139 36151 36166 36167 36154 36094 36062 36066 36002 35903 35857 35934 36070 36159 36234 36239 36210 36154 35936 35728 35604 35560 35598 35756 35984 36182 36333 36328 36148 35958 35888 35892 35931 35982 36029 36113 36190 36159 36102 36094 36089 36082 36020 35915 35844 35834 35738 35508 35425 35584 35855 36064 36208 36284 36314 36272 36056 35951 35927 36012 36103 36199 36299 36429 36506 36522 36368 36202 36098 36006 35978 35975 35943 35900 35984 36074 36159 36270 36357 36465 36541 36539 36499 36501 36523 36424 36363 36391 36507 36578 36594 36568 36539 36511 36413 36202 36043 35979 35931 35919 36032 36208 36435 36617 36627 36626 36697 36789 36894 36992 37089 37181 37297 37328 37225 37133 37216 37348 37518 37632 37689 37712 37695 37564 37418 37331 37393 37476 37562 37626 37652 37682 37551 37331 37207 37165 37189 37185 37062 37005 37005 36961 36772 36603 36490 36369 36239 36176 36078 36027 36027 36053 36080 36183 36329 36479 36557 36526 36471 36432 36436 36274 36147 36143 36267 36436 36561 36579 36564 36495 36334 36075 35877 35834 35788 35693 35714 35847 36056 36194 36113 36012 35966 35973 35936 35928 35969 36003 36027 35986 35916 35906 35960 36025 36035 35976 35837 35747 35735 35561 35371 35316 35459 35670 35867 36007 36076 36087 35913 35676 35587 35611 35704 35818 35887 35967 36053 36087 35968 35829 35712 35594 35514 35484 35443 35379 35393 35478 35575 35700 35780 35800 35785 35779 35830 35876 35941 35836 35714 35704 35824 35968 36034 36044 35983 35926 35896 35844 35760 35594 35395 35276 35204 35288 35532 35793 35913 36037 36129 36096 36049 36017 36065 36267 36485 36689 36689 36655 36613 36493 36415 36415 36413 36424 36515 36491 36467 36579 36541 36567 36622 36718 36853 37011 37147 37103 37042 36936 36919 36910 36943 36954 36989 37051 36985 36943 36823 36803 36784 36829 36932 37053 37239 37306 37197 37009 36868 36867 36893 36963 37006 37057 37068 37039 36969 36792 36724 36723 36841 36973 37148 37339 37401 37224 36976 36919 36917 36988 37021 37064 37103 37169 37071 36873 36806 36833 36959 37119 37280 37468 37541 37467 37143 37002 36939 36955 36987 37038 37103 37260 37298 37189 37049 37030 37090 37170 37288 37402 37465 37419 37277 37102 36997 36956 36953 36947 36958 37066 37065 37075 37033 37009 37044 37131 37274 37394 37441 37395 37332 37317 37221 37109 37083 37130 37201 37325 37341 37355 37364 37414 37480 37516 37577 37611 37644 37577 37545 37569 37589 37571 37487 37398 37339 37406 37376 37370 37387 37488 37605 37685 37684 37649 37594 37532 37494 37503 37519 37536 37590 37537 37472 37466 37418 37425 37440 37460 37552 37730 37880 37844 37709 37590 37535 37556 37557 37585 37615 37706 37673 37602 37503 37449 37447 37468 37517 37625 37760 37872 37765 37556 37467 37426 37448 37465 37496 37494 37513 37534 37382 37296 37244 37307 37403 37526 37670 37779 37786 37644 37454 37378 37350 37359 37428 37494 37540 37641 37647 37520 37469 37510 37540 37617 37707 37736 37699 37675 37511 37351 37261 37168 37203 37298 37424 37551 37560 37534 37491 37474 37500 37584 37645 37654 37651 37649 37603 37501 37376 37245 37201 37243 37323 37449 37444 37428 37452 37436 37417 37428 37514 37599 37614 37576 37559 37554 37506 37391 37303 37308 37402 37517 37521 37522 37561 37645 37648 37639 37640 37635 37583 37521 37502 37548 37575 37511 37418 37381 37430 37490 37457 37430 37415 37499 37605 37623 37594 37601 37655 37595 37580 37574 37580 37576 37490 37395 37432 37434 37415 37423 37459 37592 37719 37800 37803 37783 37706 37646 37613 37614 37643 37663 37649 37509 37492 37443 37416 37417 37490 37585 37713 37842 37846 37780 37602 37442 37428 37447 37511 37585 37616 37484 37421 37270 37256 37259 37327 37407 37526 37655 37621 37484 37282 37199 37147 37105 37109 37158 37135 37134 37011 36893 36900 36973 37079 37230 37378 37529 37539 37349 37153 37074 37073 37077 37109 37143 37115 37189 36996 36909 36836 36831 36889 36992 37155 37289 37317 37059 36744 36617 36554 36575 36653 36744 36782 36859 36684 36563 36483 36512 36632 36785 36985 37149 37216 37016 36797 36739 36704 36728 36765 36813 36844 36876 36708 36511 36399 36405 36560 36788 37018 37211 37248 36983 36813 36719 36725 36797 36860 36926 36985 37081 36897 36736 36632 36614 36694 36804 37015 37215 37394 37255 37042 36948 36869 36835 36814 36838 36832 36853 36717 36513 36427 36415 36491 36649 36881 37136 37263 37163 36971 36923 36923 36965 37026 37094 37096 37070 37067 36856 36758 36756 36799 36927 37104 37279 37424 37329 37095 36992 36979 37018 37075 37121 37134 37208 37039 36860 36806 36874 37013 37181 37377 37475 37577 37448 37218 37115 37060 36973 36950 36931 36886 36999 36844 36734 36714 36773 36897 37081 37298 37450 37506 37238 36987 36875 36931 37065 37248 37398 37481 37512 37235 37090 36916 36930 37052 37221 37368 37496 37503 37166 36906 36783 36803 36937 37121 37241 37380 37421 37209 37136 37013 37056 37179 37306 37400 37445 37529 37235 37132 37223 37299 37354 37405 37411 37504 37579 37342 37082 36936 37001 37215 37466 37614 37726 37720 37517 37251 37138 37100 37121 37188 37314 37507 37554 37504 37470 37403 37457 37587 37697 37738 37807 37736 37552 37364 37249 37235 37327 37320 37450 37606 37596 37546 37429 37396 37446 37587 37680 37736 37710 37653 37568 37451 37346 37358 37364 37326 37513 37519 37522 37525 37460 37468 37521 37612 37694 37748 37715 37742 37667 37551 37486 37457 37456 37447 37636 37607 37624 37648 37626 37659 37718 37794 37868 37904 37843 37807 37713 37561 37442 37393 37385 37394 37548 37621 37661 37616 37480 37440 37518 37635 37729 37842 37911 37871 37818 37601 37424 37346 37359 37419 37471 37544 37634 37593 37517 37337 37214 37190 37281 37401 37518 37646 37674 37482 37288 37137 37082 37095 37139 37206 37291 37275 37070 36903 36887 36944 37012 37078 37122 37135 37075 36821 36557 36342 36237 36182 36123 35944 35806 35780 35619 35528 35579 35727 35929 36106 36251 36406 36373 36237 36216 36284 36412 36516 36620 36688 36747 36668 36433 36173 35966 35792 35574 35453 35461 35454 35378 35315 35401 35625 35909 36152 36191 36166 36199 36142 36012 35992 36072 36144 36166 36205 36289 36343 36257 36099 35881 35680 35563 35510 35465 35417 35385 35411 35469 35618 35825 36014 36146 36208 36236 36280 36274 36164 36067 36089 36214 36351 36455 36413 36320 36262 36155 35990 35839 35760 35744 35728 35796 35973 36167 36248 36305 36364 36448 36438 36379 36350 36360 36356 36288 36261 36350 36492 36599 36659 36657 36673 36596 36392 36151 36077 36057 36076 36159 36290 36482 36588 36549 36482 36458 36433 36345 36285 36286 36319 36335 36229 36159 36192 36308 36409 36489 36487 36445 36355 36150 35931 35767 35730 35862 36081 36308 36454 36592 36553 36376 36188 36061 36085 36232 36265 36279 36346 36387 36329 36256 36262 36302 36330 36294 36215 36071 35940 35709 35528 35506 35658 35889 36091 36231 36308 36272 36011 35839 35828 35927 36061 36063 36048 36096 36103 35939 35854 35874 35938 35940 35884 35854 35923 36003 35804 35589 35546 35722 36017 36233 36342 36459 36587 36570 36498 36489 36506 36564 36632 36745 36885 36994 37036 36922 36816 36798 36823 36863 36871 36848 36805 36697 36488 36364 36390 36455 36519 36534 36511 36494 36498 36409 36348 36312 36290 36307 36375 36500 36716 36929 37017 36943 36838 36755 36673 36609 36614 36670 36798 36949 36952 36850 36836 36868 36917 36972 37102 37266 37369 37231 37025 36907 36885 36866 36882 36932 36984 37066 37059 36862 36744 36715 36803 36946 37096 37283 37419 37365 37059 36874 36807 36819 36848 36914 37027 37058 37134 36832 36662 36584 36607 36732 36891 37043 37173 37190 36904 36604 36449 36408 36459 36550 36625 36682 36737 36656 36490 36396 36382 36482 36666 36854 36982 37027 36944 36718 36569 36477 36461 36464 36498 36585 36669 36687 36675 36593 36611 36681 36814 36959 37034 37033 37003 36993 36865 36776 36761 36742 36812 36942 36980 36978 36965 36932 36927 37008 37103 37187 37217 37221 37073 36910 36833 36712 36659 36597 36567 36625 36578 36678 36626 36519 36638 36725 36800 36844 36848 36728 36650 36560 36562 36609 36536 36485 36488 36513 36493 36504 36562 36623 36737 36851 36835 36855 36954 37011 36977 37005 37085 37139 37214 37164 37067 37023 37086 37085 37115 37145 37184 37230 37251 37197 37155 37199 37245 37306 37316 37331 37370 37370 37240 37139 37116 37181 37249 37338 37401 37429 37419 37391 37217 37122 37136 37160 37219 37305 37373 37473 37561 37554 37471 37465 37473 37504 37539 37583 37609 37639 37641 37540 37432 37407 37421 37474 37539 37563 37588 37594 37535 37423 37340 37329 37361 37396 37447 37486 37550 37634 37596 37488 37442 37417 37470 37491 37518 37540 37587 37566 37442 37371 37382 37426 37476 37483 37477 37503 37513 37374 37263 37221 37262 37340 37439 37493 37562 37570 37553 37353 37228 37092 37045 37035 37048 37101 37141 37188 37121 36954 36867 36853 36885 36895 36900 36944 37000 36982 36842 36780 36791 36815 36878 36885 36875 36835 36754 36559 36378 36269 36288 36353 36458 36540 36607 36647 36479 36344 36240 36216 36244 36281 36322 36378 36442 36435 36349 36321 36349 36451 36467 36445 36408 36406 36356 36150 36054 36055 36124 36229 36325 36417 36461 36455 36280 36102 36005 35965 35976 35961 35972 35983 36020 35894 35761 35659 35595 35577 35475 35413 35366 35332 35279 35178 35188 35251 35357 35437 35462 35401 35393 35341 35237 35147 35146 35235 35392 35589 35780 35971 36099 36011 35949 35918 35939 35923 35833 35815 35888 36030 36026 35997 36019 36034 35996 35908 35806 35765 35759 35654 35506 35451 35540 35650 35707 35748 35822 35876 35766 35607 35461 35428 35432 35428 35406 35465 35551 35542 35481 35465 35502 35483 35417 35353 35351 35414 35413 35384 35392 35490 35615 35706 35793 35785 35798 35800 35649 35539 35479 35457 35486 35605 35740 35851 35943 35881 35653 35535 35488 35528 35642 35741 35871 36024 36121 36099 36207 36306 36420 36490 36564 36638 36641 36584 36423 36328 36320 36357 36441 36519 36595 36618 36673 36664 36600 36614 36633 36714 36748 36772 36804 36802 36803 36691 36601 36567 36575 36601 36587 36603 36640 36743 36705 36585 36549 36545 36535 36414 36344 36332 36424 36508 36505 36530 36598 36761 36918 37023 37185 37423 37532 37531 37349 37191 37095 37033 36959 36900 36892 36870 36835 36560 36304 36164 36141 36203 36270 36367 36478 36605 36697 36667 36661 36703 36741 36749 36728 36710 36643 36518 36282 36164 36248 36384 36525 36615 36628 36567 36507 36374 36176 36032 35984 36001 36081 36161 36232 36239 36260 36108 35918 35789 35742 35718 35708 35753 35872 36001 36059 35919 35797 35704 35629 35619 35589 35610 35607 35628 35566 35525 35553 35621 35677 35689 35692 35666 35627 35403 35168 35112 35213 35387 35551 35629 35673 35590 35502 35289 35135 35008 34913 34870 34962 35152 35403 35694 35862 35822 35742 35631 35527 35475 35419 35445 35479 35557 35477 35448 35408 35439 35508 35605 35754 35941 36112 36129 36017 35846 35822 35793 35774 35789 35848 35880 35902 35732 35583 35544 35612 35764 35955 36127 36278 36390 36238 36068 35977 36013 36106 36191 36253 36258 36264 36105 35877 35713 35716 35808 35949 36097 36256 36357 36329 36060 35959 35893 35927 35927 35957 35992 35942 35881 35618 35490 35446 35497 35661 35849 36018 36192 36273 36044 35867 35718 35661 35657 35709 35770 35765 35890 35758 35676 35608 35572 35591 35761 35933 36068 36158 35983 35650 35438 35310 35319 35342 35413 35435 35462 35472 35291 35284 35304 35489 35760 36031 36204 36316 36335 36216 36072 36056 36124 36217 36355 36359 36317 36213 35974 35853 35852 35932 36096 36260 36367 36442 36424 36285 36020 35876 35871 35957 36030 36051 36187 36441 36541 36557 36580 36616 36694 36789 36778 36752 36674 36520 36278 36053 35956 36053 36097 36145 36150 36042 35894 35837 35766 35821 35997 36152 36328 36484 36483 36458 36396 36245 36139 36092 36094 36134 36188 36247 36252 36285 36359 36318 36310 36364 36447 36511 36447 36377 36307 36210 36080 36005 35944 35903 35825 35740 35733 35766 35840 35946 36046 36112 36185 36243 36260 36173 36077 36011 35861 35753 35720 35790 35845 35973 35897 35925 35976 36034 36058 36109 36191 36272 36385 36354 36304 36229 36165 36056 35992 36017 36071 36164 36229 36161 36146 36196 36257 36302 36379 36443 36507 36453 36327 36268 36279 36244 36163 36069 36004 36007 36112 36084 36191 36297 36402 36431 36442 36447 36476 36544 36490 36409 36442 36482 36416 36361 36358 36375 36454 36422 36342 36299 36324 36412 36466 36522 36574 36598 36509 36408 36369 36390 36459 36422 36348 36261 36217 36141 36114 36120 36217 36356 36531 36583 36592 36585 36513 36474 36519 36537 36594 36622 36577 36429 36350 36215 36157 36202 36284 36395 36532 36624 36574 36537 36344 36346 36331 36345 36369 36401 36440 36296 36118 35915 35795 35800 35847 35918 36035 36180 36222 36190 36068 35938 35967 36013 36074 36167 36222 36222 36049 35786 35714 35696 35737 35790 35834 35904 35927 35860 35715 35592 35555 35514 35472 35404 35327 35265 35152 34976 34882 34970 35112 35234 35324 35418 35578 35695 35603 35494 35452 35451 35504 35634 35751 35852 35940 35942 35744 35562 35486 35371 35289 35220 35190 35238 35312 35275 35167 35019 34916 34866 34923 35030 35151 35260 35345 35260 35173 35104 35077 35042 35035 34992 34901 34766 34573 34302 34238 34447 34702 34883 34980 34987 34969 34872 34733 34698 34746 34771 34781 34794 34814 34834 34806 34683 34489 34296 34185 34127 34081 33938 33799 33776 33842 33909 34041 34189 34381 34469 34529 34580 34688 34801 34751 34619 34543 34521 34518 34450 34415 34320 34197 33968 33720 33565 33468 33386 33475 33638 33861 34044 34108 34008 33869 33780 33803 33940 34097 34214 34276 34366 34313 34216 34122 34052 33957 33851 33704 33665 33700 33551 33298 33280 33486 33734 33930 34087 34124 34079 34006 33887 33883 33982 34152 34369 34592 34751 34903 35006 34940 34824 34692 34501 34373 34337 34341 34468 34654 34772 34779 34715 34667 34598 34521 34468 34471 34488 34524 34502 34607 34784 34999 35148 35206 35167 35110 35041 34856 34675 34522 34507 34622 34817 35042 35253 35421 35420 35243 35150 35143 35193 35213 35191 35163 35150 35064 34852 34632 34430 34266 34205 34144 34062 33919 33787 33682 33770 34002 34302 34565 34664 34623 34609 34611 34534 34458 34362 34352 34442 34555 34615 34625 34516 34322 34037 33813 33639 33491 33440 33559 33853 34135 34401 34424 34220 34004 34012 34094 34185 34302 34381 34388 34352 34257 34207 34200 34103 33966 33831 33817 33791 33679 33451 33481 33742 34060 34322 34459 34417 34328 34327 34235 34138 34100 34112 34150 34249 34361 34452 34480 34325 34028 33715 33545 33454 33373 33371 33557 33878 34209 34321 34312 34257 34186 34135 34089 33998 33926 33876 33907 33890 33898 33947 33969 33904 33786 33691 33610 33487 33255 33117 33216 33529 33880 34101 34173 34077 34005 33864 33703 33640 33688 33757 33815 33955 34145 34252 34255 34101 33892 33698 33547 33522 33476 33446 33525 33713 33953 34121 34264 34445 34602 34637 34630 34617 34636 34633 34541 34423 34393 34431 34483 34543 34565 34490 34368 34244 34000 33761 33608 33716 34002 34335 34655 34925 35126 35177 35044 34921 34856 34821 34799 34784 34861 34995 35085 34961 34751 34560 34450 34351 34283 34160 34040 34028 34088 34133 34282 34502 34705 34861 34892 34893 34880 34872 34759 34711 34749 34870 34994 35068 35049 34981 34878 34687 34392 34206 34070 34015 34125 34364 34660 34958 35167 35155 35054 34879 34711 34631 34710 34724 34750 34884 34996 34960 34885 34809 34717 34612 34442 34312 34203 34069 33779 33736 33916 34203 34525 34775 34970 35072 35066 35004 34823 34717 34723 34785 34936 35146 35287 35388 35379 35197 34843 34516 34320 34217 34119 33961 33966 34120 34376 34548 34670 34791 34872 34909 34973 35035 35179 35218 35191 35095 35036 35053 35089 35020 34864 34677 34502 34408 34133 33823 33707 33888 34189 34511 34775 34994 35113 35056 34864 34739 34734 34778 34786 34798 34876 34974 35009 34843 34610 34420 34289 34210 34190 34126 34041 34035 34152 34221 34338 34517 34680 34790 34765 34703 34668 34674 34590 34448 34370 34417 34529 34653 34685 34673 34540 34393 34112 33883 33816 33772 33746 33850 34050 34292 34474 34455 34364 34292 34183 34068 34022 34018 34046 34119 34169 34131 34112 34120 34089 33970 33793 33642 33577 33548 33377 33212 33296 33562 33832 34065 34234 34374 34458 34368 34142 33990 33994 34108 34266 34410 34511 34558 34478 34223 33959 33755 33663 33623 33662 33610 33489 33504 33655 33780 33864 33986 34114 34206 34172 34076 34000 34007 33977 33941 33999 34170 34372 34550 34596 34611 34534 34411 34146 33971 33862 33758 33752 33931 34154 34345 34432 34362 34218 34119 34037 34081 34214 34446 34666 34821 34970 34980 34949 34921 34920 34850 34747 34553 34525 34536 34425 34253 34310 34488 34634 34720 34733 34727 34643 34483 34385 34392 34523 34661 34786 34897 35047 35172 35239 35169 34906 34546 34219 33978 33854 33787 33739 33757 33884 33902 33932 34042 34182 34342 34459 34475 34537 34617 34742 34758 34820 35050 35355 35646 35888 36065 36217 36322 36316 36256 36151 36230 36318 36380 36430 36482 36527 36569 36433 36276 36130 36067 36036 35986 35945 35957 35951 35959 35876 35865 35956 36110 36268 36429 36563 36697 36825 36872 36812 36836 36893 36943 37033 37091 37107 37135 37129 37002 36779 36615 36500 36456 36427 36447 36496 36519 36491 36331 36067 35844 35693 35568 35416 35350 35405 35614 35761 35797 35859 35913 35955 35954 35888 35831 35814 35821 35663 35503 35440 35539 35639 35704 35751 35733 35631 35439 35165 34958 34756 34657 34667 34800 34944 35072 35167 35084 34889 34677 34507 34531 34605 34710 34798 34861 34929 34838 34779 34776 34785 34719 34570 34398 34301 34260 34082 33936 33962 34172 34393 34545 34618 34637 34585 34490 34420 34459 34562 34698 34805 34912 35030 35103 35110 35048 34707 34363 34175 34072 33966 33805 33649 33725 34007 34173 34221 34201 34196 34164 34111 34131 34235 34428 34637 34672 34646 34697 34765 34809 34814 34795 34721 34628 34527 34304 34014 33799 33808 34026 34291 34534 34652 34723 34646 34473 34327 34286 34314 34458 34622 34697 34750 34849 34774 34625 34509 34433 34315 34193 34090 34013 33900 33768 33649 33754 34012 34290 34494 34601 34585 34541 34563 34610 34646 34635 34647 34764 34935 35022 35014 34958 34817 34499 34163 33884 33746 33636 33558 33613 33847 34117 34316 34326 34277 34176 34095 34031 33976 34007 34114 34193 34219 34193 34273 34424 34619 34814 34989 35109 35053 34915 34580 34340 34371 34596 34811 35005 35143 35231 35196 35064 34933 34974 35145 35360 35577 35697 35778 35861 35871 35727 35640 35599 35658 35752 35814 35857 35817 35829 35870 35871 35915 35965 36080 36177 36264 36261 36293 36322 36214 36074 35950 35881 36013 36271 36398 36411 36425 36492 36485 36422 36396 36427 36480 36516 36583 36614 36594 36512 36350 36252 36253 36278 36190 36095 35960 35968 36055 36132 36207 36291 36375 36456 36450 36460 36495 36493 36480 36426 36402 36396 36375 36265 36200 36140 36229 36375 36464 36439 36446 36456 36481 36457 36460 36447 36445 36485 36398 36279 36293 36376 36424 36528 36609 36676 36753 36778 36642 36541 36487 36527 36535 36551 36587 36664 36737 36590 36467 36247 36117 36059 36049 36119 36260 36424 36531 36464 36299 36247 36216 36224 36240 36257 36319 36359 36415 36207 36036 35886 35876 35919 36029 36204 36369 36502 36347 36187 36035 35990 35973 35981 36085 36135 36200 36211 36031 35890 35806 35883 36027 36184 36339 36479 36577 36501 36338 36186 36137 36189 36353 36417 36505 36514 36541 36386 36289 36257 36298 36374 36467 36497 36528 36563 36521 36341 36204 36137 36183 36225 36302 36242 36228 36183 36179 36173 36214 36265 36324 36400 36376 36349 36359 36321 36239 36197 36196 36225 36357 36336 36271 36335 36429 36518 36546 36591 36623 36630 36467 36350 36289 36318 36482 36553 36531 36541 36588 36621 36700 36722 36767 36854 36917 36914 36901 36960 37046 37126 37184 37126 37024 36973 36818 36663 36567 36529 36530 36502 36409 36398 36460 36542 36490 36460 36484 36495 36594 36615 36640 36647 36584 36453 36350 36445 36463 36450 36366 36349 36423 36487 36567 36480 36462 36456 36554 36582 36547 36526 36520 36442 36317 36262 36383 36413 36439 36341 36299 36270 36318 36326 36316 36349 36386 36561 36614 36645 36648 36696 36608 36543 36507 36536 36521 36632 36653 36560 36479 36341 36130 35938 35813 35738 35669 35642 35590 35486 35276 34873 34448 34184 34195 34359 34591 34850 35050 35129 34955 34769 34728 34860 35010 35115 35150 35171 35168 34970 34722 34512 34375 34261 34146 34019 33900 33842 33803 33767 33828 33919 33982 33998 33970 33947 33939 33976 33943 33971 34115 34436 34782 35057 35256 35402 35419 35311 35085 34853 34758 34707 34740 34834 34937 35032 34995 34805 34600 34495 34519 34612 34676 34685 34729 34807 34811 34822 34819 34780 34685 34519 34314 34168 34048 33840 33764 33944 34236 34510 34693 34779 34809 34800 34709 34675 34748 34884 35045 35140 35240 35389 35473 35405 35271 35078 34948 34865 34800 34705 34575 34516 34501 34591 34730 34857 34998 35085 34986 34869 34779 34586 35240 35314 35306 35322 35217 34958 34795 34746 34698 34649 34690 34842 35069 35182 35161 35094 34977 34876 34841 34814 34806 34840 34901 34961 35059 35250 35420 35507 35451 35318 35115 34906 34565 34242 34235 34520 34859 35141 35299 35388 35307 35011 34753 34605 34602 34735 34838 34939 35076 35196 35131 34997 34851 34663 34543 34403 34356 34272 34168 34070 34124 34367 34658 34862 35003 34979 34889 34783 34681 34631 34562 34517 34545 34630 34699 34747 34799 34699 34462 34265 34230 34239 34145 34018 34027 34197 34396 34465 34563 34710 34841 34890 34788 34734 34677 34648 34535 34473 34527 34656 34754 34818 34827 34792 34700 34431 34208 34110 34108 34202 34403 34604 34792 34967 34988 34872 34720 34649 34609 34596 34560 34520 34583 34739 34812 34825 34823 34835 34744 34637 34496 34461 34449 34271 34150 34247 34455 34654 34821 34987 35153 35225 35118 34958 34831 34877 35075 35358 35624 35854 36128 36352 36401 36456 36504 36578 36597 36566 36442 36293 36181 36118 36036 36006 35955 35773 35605 35507 35417 35434 35412 35299 35236 35329 35543 35759 35875 35967 35971 35864 35609 35427 35317 35272 35348 35559 35789 35936 36005 35848 35595 35424 35426 35458 35485 35446 35473 35607 35684 35591 35512 35456 35375 35263 35147 35034 34944 34768 34501 34422 34616 34868 35102 35203 35224 35132 35024 34816 34631 34510 34521 34640 34854 35012 35099 35087 34997 34666 34330 34140 34047 33982 33973 34109 34345 34590 34700 34671 34611 34554 34448 34366 34323 34307 34306 34338 34277 34289 34375 34487 34571 34504 34352 34265 34230 34034 33756 33613 33741 34030 34344 34569 34719 34740 34608 34291 34095 34087 34184 34252 34343 34554 34734 34858 34825 34627 34322 34142 34016 33970 33898 33803 33837 34073 34260 34394 34475 34531 34532 34433 34367 34375 34468 34534 34487 34466 34566 34706 34826 34885 34865 34805 34695 34523 34300 34109 34044 34138 34398 34649 34883 35062 35168 35006 34705 34471 34478 34605 34653 34696 34778 34915 35025 34991 34919 34819 34629 34431 34358 34387 34363 34341 34410 34546 34719 34923 35053 35104 35037 34936 34908 34892 34832 34790 34819 34963 35126 35214 35206 35136 35068 34940 34651 34406 34309 34296 34378 34577 34807 35025 35138 35100 34948 34795 34699 34706 34728 34738 34766 34867 35020 35043 34998 34950 34887 34830 34731 34603 34531 34515 34366 34144 34151 34410 34723 34992 35159 35254 35214 35070 34884 34900 35012 35190 35353 35495 35617 35696 35681 35586 35440 35338 35303 35250 35108 34968 34871 34922 35103 35235 35258 35325 35401 35470 35467 35426 35386 35456 35594 35606 35551 35569 35665 35776 35814 35792 35711 35588 35394 35114 34849 34676 34639 34820 35104 35306 35371 35343 35169 34854 34673 34688 34824 34987 35099 35177 35284 35392 35315 35129 34945 34800 34672 34557 34475 34405 34343 34331 34346 34439 34589 34740 34867 34909 34890 34766 34656 34615 34599 34574 34573 34713 34953 35128 35178 35119 35039 34890 34519 34161 33971 34010 34079 34156 34294 34490 34662 34702 34569 34395 34258 34175 34144 34190 34320 34428 34501 34574 34542 34434 34356 34348 34335 34234 34156 34054 34041 33991 33827 33786 33912 34128 34321 34472 34586 34671 34725 34590 34344 34218 34258 34313 34388 34511 34635 34696 34713 34575 34366 34282 34254 34191 34092 34047 34049 34045 34084 34095 34127 34239 34389 34534 34669 34714 34627 34549 34540 34571 34619 34648 34712 34861 35009 35080 35090 35068 35067 35047 34808 34519 34377 34385 34482 34556 34657 34798 34901 35013 34967 34866 34755 34677 34696 34796 34948 35091 35172 35289 35324 35247 35135 35061 35068 35053 34981 34879 34794 34776 34736 34662 34656 34777 34934 35085 35156 35223 35244 35187 35108 35068 35038 35048 35110 35208 35347 35498 35580 35583 35528 35403 35149 34871 34720 34697 34657 34591 34636 34792 34986 35156 35156 35126 35109 35057 35013 35001 35051 35104 35161 35252 35280 35211 35115 35054 34999 34983 34929 34832 34766 34735 34591 34319 34188 34288 34504 34695 34800 34856 34857 34795 34661 34496 34425 34518 34606 34663 34744 34844 34919 34971 34936 34745 34450 34200 34096 34062 34006 33925 34035 34290 34609 34698 34654 34568 34489 34421 34390 34440 34520 34608 34688 34759 34762 34747 34736 34717 34713 34643 34546 34408 34297 34152 33916 33816 33960 34244 34510 34682 34775 34841 34850 34712 34520 34383 34407 34491 34565 34711 34868 34956 34969 34946 34795 34555 34331 34183 34148 34121 34006 33996 34122 34331 34410 34415 34473 34594 34683 34698 34651 34581 34539 34511 34464 34403 34441 34576 34675 34696 34674 34697 34618 34533 34374 34161 33976 33818 33794 33915 34151 34384 34578 34719 34841 34793 34705 34626 34620 34635 34664 34731 34787 34863 34940 34827 34651 34503 34450 34406 34311 34196 34178 34218 34196 34092 34029 34090 34235 34400 34548 34701 34785 34806 34807 34737 34585 34432 34361 34402 34581 34758 34885 34937 34945 34933 34934 34915 34896 34904 35000 35009 34983 34989 35051 35110 35168 35122 35165 35237 35338 35416 35493 35646 35780 35853 35998 36115 36075 35989 35938 35997 36020 36010 35986 35896 35852 35819 35737 35744 35740 35838 35994 36115 36127 36078 36019 35967 35793 35704 35677 35679 35711 35759 35830 35915 35976 36038 36076 36016 36006 35923 35918 35949 35982 35961 36062 36144 36269 36230 36176 36171 36132 36087 36033 35970 36004 36053 36041 35953 35860 35865 35997 36117 36176 36225 36240 36225 36266 36349 36341 36343 36406 36503 36584 36678 36720 36798 36858 36918 36774 36656 36570 36504 36449 36413 36447 36473 36531 36546 36488 36337 36175 36055 36027 36021 35933 35823 35810 35909 36004 35938 35823 35795 35764 35726 35593 35519 35526 35558 35614 35593 35514 35514 35561 35602 35617 35579 35477 35320 35174 35008 34719 34512 34607 34850 35089 35278 35401 35462 35494 35400 35079 34760 34698 34793 34848 34955 35115 35279 35371 35401 35345 35134 34861 34626 34435 34362 34318 34321 34393 34607 34803 34866 34879 34933 35020 34989 34876 34780 34778 34811 34877 34857 34798 34804 34864 34925 34933 34886 34725 34549 34493 34460 34276 34096 34121 34295 34538 34754 34939 35093 35179 35158 34937 34685 34627 34712 34827 34957 35104 35204 35235 35175 35087 34881 34615 34397 34306 34311 34284 34235 34302 34467 34707 34798 34800 34884 34983 35024 34956 34861 34868 34949 35016 35069 35044 35017 35050 35096 35124 35124 35028 34872 34716 34637 34463 34237 34199 34399 34671 34899 35022 35112 35181 35174 34994 34743 34575 34660 34815 34952 35118 35257 35322 35286 35224 35071 34803 34593 34501 34495 34555 34589 34618 34741 34943 35024 35030 35079 35206 35325 35419 35407 35330 35276 35204 35186 35122 35146 35241 35381 35457 35475 35393 35280 35109 34933 34698 34426 34319 34510 34825 35134 35326 35414 35471 35450 35244 34986 34862 34903 34974 35024 35126 35259 35345 35385 35353 35211 35043 34912 34799 34703 34655 34592 34582 34681 34877 34971 34998 35049 35136 35213 35167 35039 34983 34996 35050 35034 34988 35069 35195 35282 35315 35323 35308 35229 35103 34845 34547 34406 34433 34573 34794 35014 35140 35165 35191 35146 34930 34759 34722 34823 34993 35129 35200 35252 35354 35418 35287 35093 35010 34964 34865 34652 34491 34498 34592 34670 34701 34709 34788 34908 35036 35108 35051 34920 34828 34888 34974 34944 34902 34944 35116 35277 35367 35371 35334 35232 35052 34744 34527 34456 34418 34424 34535 34702 34943 35174 35359 35445 35300 35029 34843 34885 35110 35313 35412 35516 35650 35776 35766 35633 35501 35393 35322 35354 35497 35583 35483 35327 35151 34978 35061 35281 35518 35758 35890 35786 35719 35655 35617 35714 35813 35939 36041 36143 36235 36298 36407 36442 36466 36487 36417 36375 36370 36496 36536 36433 36313 36309 36457 36593 36693 36654 36629 36549 36570 36583 36552 36547 36558 36571 36622 36659 36536 36423 36384 36399 36531 36660 36810 36892 36934 36814 36525 36439 36349 36344 36417 36473 36483 36539 36544 36443 36283 36157 36233 36374 36504 36665 36779 36879 36961 37001 36942 36770 36682 36715 36733 36797 36777 36746 36742 36754 36745 36666 36577 36587 36673 36738 36799 36806 36854 36907 36960 36874 36823 36853 36984 37105 37144 37145 37146 37183 37241 37249 37138 36972 36839 36757 36667 36595 36523 36537 36568 36521 36239 35976 35872 35862 35968 36168 36326 36492 36551 36432 36130 35875 36918 36942 36992 36987 36929 36915 36897 36952 36891 36797 36789 36831 36879 36879 36791 36719 36737 36749 36752 36734 36737 36754 36785 36814 36743 36665 36544 36558 36591 36659 36708 36765 36860 36917 36874 36688 36589 36489 36469 36488 36533 36580 36589 36555 36376 36143 35988 36031 36216 36437 36614 36769 36911 37018 37012 36833 36733 36710 36743 36828 36905 37026 37041 37004 36905 36786 36709 36703 36734 36803 36914 36907 36877 36882 36886 36853 36797 36777 36743 36767 36729 36627 36600 36654 36750 36890 36908 36863 36873 36842 36908 36915 36851 36802 36781 36771 36718 36743 36718 36790 36859 36908 36971 37054 37142 37252 37217 37155 37043 36953 36901 36901 36975 37005 37063 37079 36966 36746 36634 36638 36694 36787 36886 36970 36989 37002 36969 36785 36622 36560 36572 36601 36629 36610 36655 36654 36687 36690 36678 36676 36733 36797 36846 36844 36833 36799 36777 36715 36596 36565 36674 36691 36762 36771 36789 36822 36913 36962 36918 36837 36768 36801 36750 36725 36712 36748 36865 36954 36916 36780 36693 36733 36815 36908 37003 37080 37152 37222 37214 37140 37011 36931 36895 36906 36962 37043 37097 37264 37220 37012 36805 36746 36768 36811 36849 36891 36968 37092 37108 36976 36781 36683 36665 36733 36773 36874 37070 37043 36956 36813 36719 36689 36695 36737 36815 36922 36890 36900 36775 36590 36496 36515 36567 36736 36860 36914 36858 36829 36844 36789 36702 36667 36706 36825 36909 37090 37085 37087 37053 36899 36805 36780 36822 36814 36732 36630 36503 36333 36132 35821 35509 35333 35269 35232 35210 35182 35137 35116 35085 34884 34641 34463 34488 34640 34835 35003 35139 35277 35343 35189 35113 35143 35213 35344 35492 35641 35756 35790 35728 35424 35131 34944 34839 34775 34748 34680 34587 34594 34672 34667 34653 34728 34827 34912 34892 34831 34782 34818 35003 35106 35086 35088 35172 35198 35218 35198 35174 35132 35067 34981 34793 34585 34538 34728 34987 35175 35300 35395 35424 35384 35206 35074 35086 35277 35415 35511 35629 35782 35831 35845 35716 35546 35379 35266 35121 35006 34965 34898 34858 34905 34920 34886 34899 35019 35204 35395 35546 35575 35483 35438 35411 35313 35207 35169 35244 35361 35459 35524 35527 35527 35527 35427 35189 34926 34778 34753 34769 34864 34992 35142 35268 35329 35250 35134 34984 34828 34699 34668 34679 34751 34826 34876 34828 34752 34749 34768 34797 34819 34742 34616 34507 34500 34394 34182 34120 34290 34536 34756 34869 34906 34859 34775 34671 34520 34503 34519 34604 34755 34974 35209 35328 35354 35272 35140 34916 34691 34590 34549 34454 34359 34375 34504 34690 34813 34770 34694 34613 34557 34540 34588 34747 34885 35040 35124 35084 34960 34853 34783 34786 34764 34673 34532 34446 34407 34191 33949 33931 34096 34353 34537 34637 34680 34685 34591 34451 34316 34290 34378 34527 34726 34939 35121 35186 35146 35098 34876 34585 34358 34229 34156 34126 34166 34316 34538 34758 34822 34759 34722 34680 34646 34609 34604 34610 34581 34669 34784 34816 34799 34806 34800 34735 34647 34520 34421 34366 34278 34092 34074 34260 34501 34742 34922 35054 35063 34975 34890 34746 34649 34601 34649 34848 35007 35050 35008 34960 34881 34758 34474 34261 34127 34037 34069 34259 34559 34837 35015 35116 35026 34753 34556 34554 34619 34743 34800 34932 35069 35146 35100 34925 34736 34601 34472 34362 34295 34288 34290 34318 34444 34564 34603 34679 34819 34954 35049 35169 35490 35738 35906 35943 35843 35751 35815 35969 36091 36188 36197 36141 36000 35796 35462 35126 34866 34785 34881 35022 35022 34957 34851 34812 34630 34427 34362 34444 34617 34811 35043 35290 35479 35663 35766 35766 35718 35662 35631 35590 35574 35558 35551 35583 35635 35568 35505 35444 35401 35387 35395 35424 35433 35458 35483 35494 35421 35378 35388 35352 35363 35265 35119 34964 34921 34798 34527 34370 34412 34653 34901 35095 35219 35309 35321 35213 35012 34857 34796 34775 34758 34785 34832 34939 35001 35011 34841 34646 34487 34366 34347 34346 34258 34187 34280 34471 34516 34530 34598 34728 34787 34752 34734 34799 35001 35244 35310 35292 35285 35338 35337 35292 35257 35161 35040 34893 34823 34660 34465 34418 34602 34824 35072 35234 35324 35404 35324 35069 34868 34803 34890 35017 35068 35105 35172 35221 35212 35048 34852 34640 34458 34370 34400 34461 34470 34537 34709 34753 34774 34789 34796 34786 34740 34679 34729 34840 34958 35011 34964 34962 35020 35067 35084 35080 35039 34911 34785 34759 34689 34581 34511 34616 34770 34911 35028 35137 35202 35162 34887 34629 34552 34576 34638 34779 35023 35254 35379 35405 35280 34992 34675 34450 34382 34447 34500 34515 34613 34789 34947 34931 34883 34872 34889 34848 34849 34893 34934 34951 35025 35100 35166 35208 35217 35165 35104 35007 34868 34724 34671 34592 34410 34392 34598 34866 35114 35287 35401 35452 35402 35216 35076 35039 35129 35230 35396 35596 35761 35843 35810 35702 35481 35180 34930 34808 34822 34804 34734 34719 34865 35081 35218 35184 35165 35196 35205 35173 35084 35078 35082 35104 35170 35184 35221 35272 35292 35288 35259 35109 34945 34861 34850 34684 34404 34374 34590 34910 35156 35340 35420 35379 35240 35089 34933 34921 34968 34985 35073 35215 35326 35377 35383 35348 35128 34779 34492 34475 34526 34534 34552 34723 34954 35167 35287 35231 35146 35056 35049 35125 35173 35192 35223 35274 35360 35273 35162 35055 34982 34892 34796 34694 34652 34564 34432 34307 34358 34564 34831 35048 35221 35268 35249 35215 35243 35346 35327 35272 35284 35341 35427 35444 35397 35298 35173 35115 34862 34639 34510 34466 34528 34709 34922 35114 35261 35354 35259 35076 34979 35032 35274 35454 35492 35497 35540 35530 35486 35247 34968 34760 34605 34513 34535 34550 34444 34437 34583 34759 34856 34993 35128 35237 35245 35182 35097 35148 35214 35225 35137 35095 35106 35118 35094 35061 34951 34825 34723 34724 34607 34320 34194 34347 34647 34911 35110 35242 35331 35335 35200 34919 34726 34785 34847 34928 35012 35125 35257 35368 35430 35332 35044 34704 34469 34432 34437 34448 34489 34679 34946 35141 35144 35114 35108 35040 34936 34849 34868 35004 35134 35237 35282 35202 35111 35048 35012 35010 34951 34848 34719 34675 34619 34423 34392 34554 34790 34991 35119 35222 35282 35213 35107 34968 34898 34910 34934 35059 35259 35425 35534 35506 35442 35327 35032 34760 34570 34582 34551 34455 34450 34657 34924 35178 35257 35229 35242 35267 35271 35262 35282 35318 35309 35309 35326 35217 35074 34962 35007 35034 35008 34896 34743 34712 34715 34599 34418 34431 34610 34842 35012 35134 35253 35281 35272 35325 35231 35184 35167 35198 35286 35362 35399 35382 35361 35383 35368 35136 34833 34578 34562 34628 34681 34765 34926 35084 35211 35217 35144 35100 35055 35011 35055 35156 35309 35407 35406 35414 35314 35183 35103 35128 35162 35214 35163 35049 34862 34719 34582 34383 34412 34589 34836 35025 35125 35141 35121 35039 34937 34750 34639 34734 34886 35061 35188 35286 35353 35373 35368 35376 35242 34961 34698 34552 34537 34565 34580 34647 34776 34911 35054 35055 34978 34916 34851 34716 34636 34672 34810 34970 35110 35269 35275 35206 35155 35146 35144 35129 35022 34923 34872 34825 34826 34641 34427 34441 34640 34850 35034 35155 35246 35250 35172 35121 35037 35010 35001 35028 35112 35240 35321 35364 35330 35332 35283 35185 34954 34770 34682 34589 34570 34654 34829 34973 35110 35222 35236 35036 34782 34727 34810 35040 35232 35378 35540 35665 35730 35739 35558 35312 35049 34865 34779 34748 34667 34579 34572 34738 34942 35010 34986 34968 34982 34971 34896 35043 35235 35397 35468 35536 35613 35534 35423 35339 35303 35244 35160 35051 34970 34900 34767 34616 34501 34565 34739 34959 35126 35226 35223 35113 35049 35040 35115 35103 34997 34989 35060 35147 35151 35130 35061 34938 34805 34733 34768 34630 34408 34304 34487 34745 34968 35116 35237 35317 35284 35123 34904 34818 34809 34810 34878 34985 35101 35172 35209 35221 35165 34851 34535 34435 34498 34561 34606 34761 34969 35215 35376 35459 35330 34992 34759 34724 34855 34985 35067 35112 35226 35355 35486 35474 35271 34984 34798 34700 34658 34552 34449 34517 34780 35082 35269 35283 35197 35103 35005 34979 35021 35093 35150 35165 35249 35335 35285 35165 35076 34987 34883 34823 34778 34799 34754 34638 34628 34682 34834 35027 35194 35301 35316 35230 35142 35163 35227 35300 35249 35166 35204 35264 35312 35248 35133 34979 34846 34729 34680 34463 34333 34522 34915 35238 35498 35639 35828 35970 35996 36021 36093 36226 36406 36591 36868 37099 37327 37564 37764 37985 38183 38264 38294 38321 38433 38523 38562 38581 38640 38641 38643 38538 38259 37893 37637 37495 37379 37320 37175 37062 36959 36872 36773 36600 36456 36351 36248 36161 36075 35940 35819 35727 35743 35738 35743 35787 35903 36001 36067 36117 36155 36218 36260 36270 36119 35898 35721 35634 35501 35397 35294 35177 35113 35068 34906 34579 34385 34436 34647 34871 35043 35133 35130 35084 35091 35042 34905 34843 34784 34832 34932 34981 34951 34894 34802 34661 34359 34049 33932 33911 33908 33914 34026 34218 34352 34495 34534 34335 34091 33962 33889 33929 34039 34145 34242 34348 34482 34491 34327 34119 33983 33947 34035 34185 34318 34070 33805 33601 33328 33174 33224 33466 33702 33957 34289 34384 34406 34547 34796 34987 35134 35273 35415 35545 35666 35718 35681 35566 35508 35503 35450 35389 35381 35291 35104 35034 35085 35178 35362 35593 35844 35970 36012 36090 36183 36252 36330 36386 36450 36587 36709 36696 36461 36187 35998 35955 36022 36158 36417 36612 36756 36835 36777 36659 36558 36520 36469 36424 36356 36201 36224 36152 36038 35986 36094 36239 36378 36532 36655 36741 36814 36778 36699 36499 36354 36328 36291 36281 36254 36200 36068 36061 36123 36269 36396 36500 36556 36623 36783 36930 37093 37094 37086 37105 37100 37102 36946 36847 36731 36706 36671 36760 36871 37034 37191 37335 37333 37171 37029 36895 36806 36774 36765 36829 36853 36993 37178 37081 36956 36856 36836 36898 37029 37151 37340 37390 37315 37247 37060 36935 36872 36871 36881 37049 37103 37062 37001 36998 37005 37002 36992 37021 37082 37113 37119 37081 37054 37055 37047 37050 36851 36919 36963 36973 37043 37128 37213 37257 37357 37463 37505 37457 37375 37311 37277 37267 37286 37368 37446 37595 37735 37664 37481 37377 37334 37342 37387 37478 37541 37593 37645 37669 37585 37446 37341 37285 37347 37419 37662 37831 37813 37741 37734 37636 37518 37455 37541 37630 37743 37736 37722 37682 37662 37555 37461 37454 37499 37451 37363 37266 37242 37287 37302 37338 37393 37462 37421 37417 37413 37400 37380 37452 37520 37587 37488 37208 36917 36783 36794 36918 37059 37190 37314 37417 37358 37161 36982 36916 36929 36997 37069 37136 37100 37036 36934 36817 36775 36770 36860 36955 37073 37083 37060 37047 37062 37043 36973 36933 36915 36979 36910 36850 36828 36873 36982 37082 37137 37091 37054 36986 36940 36900 36852 36835 36832 36887 36885 36762 36591 36458 36468 36533 36607 36710 36892 37052 37068 36786 36473 36283 36276 36359 36506 36551 36603 36579 36532 36437 36348 36337 36381 36495 36621 36783 36907 36871 36772 36530 36210 36053 36020 36037 36113 36340 36425 36462 36438 36485 36504 36529 36555 36636 36745 36822 36853 36916 36903 36931 36915 36897 36857 36860 36793 36739 36664 36661 36736 36844 36928 36897 36897 36905 36979 37057 37043 37038 37009 37056 37055 36957 36871 36656 36518 36497 36612 36754 36890 36984 37067 37032 36959 36939 36941 36928 36927 36931 36969 37022 37069 36855 36664 36532 36513 36577 36686 36819 36963 37102 37092 36947 36790 36735 36750 36824 36899 36982 36983 36919 36761 36569 36528 36587 36698 36805 36971 37116 37285 37361 37307 37070 36897 36827 36915 36985 37115 37164 37201 37141 37090 36988 36899 36852 36893 37012 37088 37174 37185 37099 37021 36894 36814 36792 36845 36890 36874 36773 36698 36708 36739 36716 36685 36717 36844 36948 37057 37072 37065 37047 37059 37000 36897 36851 36786 36782 36792 36816 36829 36929 37083 37101 37054 37048 37069 37055 37012 36984 37010 37065 37071 37022 36836 36737 36681 36717 36817 36943 37074 37197 37286 37188 37066 36912 36812 36781 36789 36828 36827 36846 36784 36661 36545 36556 36645 36781 36948 37075 37171 37245 37162 36982 36812 36733 36743 36795 36807 36801 36786 36753 36747 36667 36643 36682 36777 36913 37010 37068 37123 37109 37035 36863 36750 36683 36783 36859 36876 36797 36761 36757 36824 36900 36895 36914 36910 36836 36712 36591 36511 36505 36540 36471 36432 36228 36113 36050 36093 36202 36395 36632 36787 36773 36660 36537 36557 36628 36669 36716 36824 36870 37028 36853 36662 36540 36523 36576 36671 36849 37043 37169 37207 37282 37291 37239 37212 37241 37330 37388 37484 37492 37294 36972 36848 36800 36880 37064 37259 37365 37463 37558 37422 37236 37145 37069 37027 37064 37175 37184 37126 37050 36966 36903 36902 36968 37068 37173 37171 