47985 47982 47989 47990 47984 47986 47988 46069 44910 47993 47995 45118 39878 41170 42897 44816 35085 35128 35130 35100 35001 35020 35013 34865 35406 33151 32991 33025 33031 33065 33057 33017 33026 32987 32985 32991 32985 32991 32995 32997 33007 33035 33080 33108 33156 33210 33312 33487 33583 33654 33764 33833 33899 34109 34236 34323 34419 34550 34666 34797 34975 35071 35200 35280 35354 35426 35525 35592 35653 35718 35785 35865 36000 36084 36158 36203 36138 35745 35122 34943 35352 35563 35512 35405 35506 35549 35512 35506 35461 35448 35411 35383 35319 35269 35226 35156 35128 35090 35051 35042 35008 34976 34908 34788 34724 34702 34642 34608 34512 34431 34377 34291 34230 34193 34125 34059 33990 33898 33818 33754 33703 33612 33589 33516 33422 33404 33293 33206 33222 33195 33163 33199 33208 33250 33283 33285 33307 33227 32753 31826 30637 29874 30712 33602 37435 41151 43881 45468 45932 45961 45962 46058 46194 46183 46172 46162 46158 46121 46063 45982 45791 45604 45432 45288 45230 45239 45226 45077 44818 44484 44010 43442 41566 39603 37329 35814 34695 33874 33286 33004 32844 32750 32934 33095 33398 33561 33757 33984 34151 34282 34505 34708 34787 34836 35200 36071 37534 37685 36451 35576 35106 34945 34792 34526 34285 34097 33876 33741 33655 33608 33629 33711 33823 33937 33966 33985 33997 33969 33978 33996 34002 34045 34074 34124 34160 34152 34202 34294 34337 34390 34470 34543 34764 34988 35233 35487 35660 35503 35521 35414 35310 35284 35246 35134 35254 35175 35375 35316 35147 35049 34981 34905 34886 34902 34915 34945 34946 34967 34960 34985 35057 35145 35262 35431 35686 36172 36977 37703 36682 35766 35513 35328 35233 35140 35000 34873 34759 34720 34683 34668 34653 34628 34630 34645 34640 34668 34675 34694 34717 34741 34790 34848 34967 35125 35276 35388 35435 35541 35632 35737 35816 35902 35994 36012 36050 35995 35968 35935 35916 35888 35876 35825 35770 35733 35638 35556 35528 35451 35387 35315 35298 35249 35193 35103 34935 34783 34626 34606 34707 34765 34718 34594 34465 34446 34409 34396 34451 34572 34653 34692 34632 34508 34339 34199 34111 34138 34126 34054 34011 33906 33821 33830 33821 33791 33891 33896 34009 34084 34052 34130 34175 34206 34256 34317 34361 34381 34387 34391 34377 34404 34435 34460 34489 34500 34497 34508 34575 34595 34585 34545 34539 34544 34575 34659 34759 34879 34997 35100 35141 35161 35136 35108 35085 35055 35053 35056 35045 35027 35018 34987 35003 35057 35046 34994 34952 34950 34968 34946 34972 35016 35061 35084 35148 35159 35143 35126 35122 35117 35125 35133 35095 35111 35129 35187 35254 35340 35393 35435 35446 35482 35488 35528 35550 35546 35554 35528 35533 35531 35493 35476 35466 35515 35541 35583 35596 35635 35717 35841 35939 35985 35985 35966 35987 35997 35980 35964 35951 36018 36098 36191 36218 36261 36271 36248 36287 36292 36295 36280 36266 36267 36249 36233 36183 36151 36161 36185 36175 36069 35951 35803 35687 35621 35608 35554 35579 35485 35353 35268 34984 34831 34782 34788 34828 34828 34667 34482 34351 34303 34149 33875 33621 33384 33346 33403 33487 33599 33909 34214 34436 34488 34454 34303 34042 33822 33648 33481 33326 33205 33008 32845 32783 32969 33125 33415 33723 33924 34113 34169 34035 33725 33397 33192 33079 33071 33241 33434 33452 33026 32597 32138 32005 32256 32365 32507 32773 32961 32939 32808 32897 33004 33177 33433 33647 33719 33687 33600 33363 33089 32968 32832 32761 32809 33027 33110 33161 33073 32939 32923 32873 32777 32646 32415 32162 32160 32190 32122 32346 32720 33207 33572 33751 33340 32543 31989 31881 32196 32703 33000 33044 32906 32737 33951 39890 44629 45385 44132 36810 32474 31464 31355 33731 36882 38642 36858 34605 34425 33968 33805 34643 36274 38127 39076 38828 37753 35830 33980 32975 33925 35485 36522 37146 37954 37625 36580 36014 37071 38499 39716 40379 40077 39466 38009 35687 33561 34139 35211 35882 36265 36594 36737 36892 36839 37986 39455 40433 40709 40088 39114 37661 35752 33858 34368 35186 35645 36402 36962 36685 36359 36416 37134 37882 38556 38902 38838 38589 37846 35941 33736 32291 32677 33379 34102 34780 35394 35855 36340 36430 37245 38304 38900 39022 38773 38269 36829 35115 33142 33422 33966 34778 35726 36630 37239 37318 37420 38835 40096 40540 40774 40976 40587 39146 36845 34347 34706 35511 36363 37292 37947 38139 37788 37927 39586 40566 40837 40563 40190 39438 37731 35163 32719 33292 33827 34432 35470 35996 36015 35859 36172 37696 39131 39936 39885 39039 37976 36419 34641 32653 32343 32552 33047 34357 35484 35871 36459 36955 38490 40401 41537 41730 41085 40085 38324 36257 33262 32002 33149 33727 34420 35534 36330 36788 37037 37690 39365 40370 40786 40798 40584 40226 38771 36626 33482 33156 34142 34721 35239 36381 37075 37577 37741 38378 40305 41725 42050 41765 41527 41452 40382 38341 36839 37269 37753 37873 38138 38808 39043 38923 39110 40982 42073 42326 42214 41842 42064 41859 39738 36776 37452 37801 37429 37697 38488 38730 38702 37973 38401 40088 41095 41898 42457 43545 43517 41859 39061 38114 38536 38464 38674 39976 40822 40688 40088 40809 42512 43368 43526 43270 43377 43191 41045 37070 36325 37629 38495 38742 39470 40168 40259 39834 40593 42013 42642 42623 42186 42300 41886 39755 36621 37141 38542 38983 39296 39941 39332 38025 38381 40438 41778 42068 41976 41993 42044 42008 40467 37752 37933 38123 37748 37699 38220 38412 38293 38974 40629 41952 42596 43002 42559 41946 41158 39365 36377 36910 37439 37737 37828 39222 39945 40084 40599 43225 44645 44770 44391 44396 44680 43585 40773 37817 37818 37890 37363 37574 38444 39161 39373 40973 42933 42863 42545 42058 41644 41087 39257 35220 33120 34545 35909 36397 37384 38453 38970 38853 40577 42714 43112 43329 43168 42778 42252 40852 36623 33901 34561 35032 34829 35517 36326 36482 36872 38867 41321 42445 42878 42719 42405 41904 40040 36843 34258 34189 34388 34613 35043 35674 35825 36507 37553 39260 40123 40697 40756 40541 39850 37926 35163 32933 33107 33561 33876 34369 34871 35375 36199 37161 39209 40315 40676 40592 40259 39624 38217 35079 33615 34519 34764 34660 34923 35079 35385 35824 36030 37402 38409 38750 38552 39007 38553 36546 34112 32914 33213 33570 33835 34322 34782 34949 34868 36195 38295 39743 40400 40238 39641 38265 36277 34321 34130 34264 34646 35314 35904 36232 36422 36700 38011 39285 39840 39620 39056 38102 36230 34757 33291 32863 33065 32996 32509 32213 32099 32129 32379 33338 34566 35623 36634 37324 37263 35895 34414 32846 33206 33886 34173 34501 34521 34354 34244 34438 35333 36478 37241 37461 37361 37090 36077 34439 32703 33041 33668 34040 34306 34569 34837 35168 35407 36009 37161 37859 38246 38210 38096 37320 35866 33968 33043 33314 33612 33889 34390 35022 35689 36250 36959 38286 39184 39541 39973 39856 39698 38817 36647 34981 34632 34272 34207 34594 35232 35705 36372 36790 37819 38647 39214 39497 39346 39067 38249 36771 34176 33718 33828 33982 34181 34354 34672 35172 35743 37149 38057 38709 38879 38950 38745 37667 35888 33490 33645 34327 34664 35048 35474 35878 36551 37220 39312 40360 40407 40210 40538 40711 38785 35584 34532 35141 35686 35987 36115 36017 35961 35937 36493 37518 37712 37605 37257 37308 36948 35729 33454 33179 34242 35039 35255 35554 36110 36626 36273 36893 38142 38373 38445 38304 38338 38213 37232 35561 34409 35166 35672 35828 36348 36772 37344 37431 37471 38089 38159 38186 38244 38384 37794 37003 35522 35493 36191 36748 36831 37236 37317 37256 37498 38620 40046 40709 41116 41258 41387 41424 40650 38540 37777 38190 38434 38736 39098 39492 39482 39867 40263 41133 41453 41661 41591 41708 41600 40640 39103 37726 37817 37776 37857 38404 38939 39150 39313 39304 40776 41420 41467 41225 40900 40519 39619 38383 36372 36506 36947 37402 37851 38498 39100 39116 39438 41056 42409 42966 42888 42429 41914 41203 40034 37787 37021 37523 37987 37644 37395 37142 36814 37101 37984 39311 39868 40196 40124 39799 39368 38583 37411 36064 36866 38078 38873 39254 39004 37940 37846 37726 38012 39235 40282 40890 40528 39985 38182 38735 39013 39599 40662 41635 41982 42280 42220 41171 41235 40758 39307 39623 40737 42155 43354 43970 43388 42589 42859 43471 43917 44485 45015 45347 46037 46792 47193 47242 47258 47249 47221 47187 47142 47046 46898 46901 46906 46900 46858 46866 46902 46940 46960 47094 47188 47208 47238 47222 47091 46942 46836 46515 46688 47014 47016 46972 46965 47003 46821 46613 46708 46780 46748 46667 46591 46633 46811 41554 41794 41804 41631 41387 41220 41233 41331 41445 41434 41400 41459 41538 41590 41608 41534 41451 41429 41487 41394 41396 41400 41439 41514 41617 41729 41732 41477 41202 41157 41192 41246 41297 41371 41509 41631 41742 41654 41449 41296 41236 41253 41349 41452 41431 41380 41435 41525 41587 41561 41474 41432 41450 41416 41439 41467 41499 41602 41722 41835 41938 41816 41584 41472 41499 41569 41667 41746 41815 41938 41993 42143 42024 41960 41873 41872 41912 42018 42093 42073 41955 42018 42115 42145 42119 42077 42092 42150 42227 42254 42262 42295 42371 42445 42526 42500 42310 42102 42103 42169 42236 42317 42365 42408 42523 42574 42660 42520 42428 42352 42365 42424 42536 42588 42525 42464 42506 42520 42446 42405 42362 42384 42485 42515 42612 42583 42564 42608 42607 42544 42544 42493 42342 42225 42285 42367 42399 42413 42399 42461 42489 42477 42323 42227 42235 42332 42426 42526 42625 42675 42516 42401 42341 42293 42261 42257 42353 42454 42590 42553 42550 42602 42560 42502 42468 42440 42206 42063 41988 42049 42114 42196 42241 42279 42316 42269 42214 42109 42116 42221 42355 42464 42552 42680 42370 42063 41976 42013 42056 42129 42181 42300 42429 42529 42524 42352 42195 42136 42167 42245 42368 42472 42371 42214 42270 42350 42381 42312 42216 42234 42370 42399 42371 42368 42388 42507 42640 42732 42750 42733 42574 42391 42416 42514 42607 42653 42687 42768 42843 42797 42646 42475 42404 42434 42506 42573 42665 42700 42601 42502 42469 42401 42391 42370 42366 42436 42541 42577 42505 42442 42377 42266 42203 42254 42348 42385 42328 42253 42308 42377 42428 42454 42390 42347 42304 42292 42158 42135 42182 42247 42291 42387 42475 42337 42013 41875 41837 41825 41846 41880 41985 42124 42224 42199 41954 41642 41498 41422 41488 41642 41745 41654 41593 41624 41654 41528 41389 41279 41356 41464 41582 41557 41549 41560 41634 41664 41625 41550 41337 41150 41152 41238 41331 41398 41463 41587 41664 41605 41474 41271 41194 41250 41311 41400 41556 41644 41521 41270 41136 41040 41004 40977 41060 41218 41318 41451 40354 40376 40391 40365 40630 41082 41258 41262 41095 41098 41205 41267 41287 41170 41135 41171 40423 38084 37981 38306 38654 39046 39760 40509 40652 40128 40871 41117 41203 41292 41296 41079 40774 40177 38953 37872 38303 38689 38958 39278 39836 40064 39880 39991 41490 41441 41181 40730 40537 40428 39977 39098 37644 37830 38419 38720 38936 39704 40213 40402 40460 41350 41747 41841 41766 41296 40790 40461 39976 38853 37796 38034 38410 38552 39250 40144 40661 40726 39857 40190 40536 40539 39842 39479 39350 38655 37898 36708 37059 37656 38332 39478 39768 40295 39893 39510 41025 41594 41652 41547 41203 41099 40737 39593 38018 38387 38937 39468 40146 40648 41288 41227 40884 41629 41759 41812 41888 41790 41672 41452 40470 38524 38629 39289 39803 39762 40797 40863 40844 40002 40572 41285 41408 41537 41630 41619 41229 40442 38529 35725 35612 36407 37274 37712 37999 38926 38884 38851 39779 41033 41062 41066 41080 41163 40913 40102 38474 37406 37641 38152 38392 38521 39164 39543 39618 39181 40374 41217 41266 41214 41012 40730 40360 39699 38417 37729 38165 38416 38278 38606 39195 39241 39082 38931 40037 40782 40722 40411 39970 39616 39098 38908 37219 37464 38185 38935 39156 39824 40689 41386 41189 41035 41117 41272 41395 41500 41540 41652 41799 41748 39912 40086 40768 41065 40860 40909 41043 40928 41153 41579 41517 41502 41479 41527 41548 41601 41705 41772 40206 40099 40406 40600 40630 41002 41559 41702 41636 41599 41697 41782 41731 41652 41609 41656 41731 41792 41732 41853 41875 41844 41766 41740 41778 41865 41919 41891 41789 41811 41909 41955 41866 41695 41622 41688 41810 41733 41705 41764 41842 41906 41892 41848 41562 41467 41559 41713 41830 41942 41973 42044 42018 41890 41709 41630 41679 41791 41901 42042 42161 42208 41807 41435 41364 41442 41527 41582 41608 41708 41847 41955 41726 41382 41182 41162 41255 41384 41554 41647 41587 41490 41349 41209 41103 41045 41039 41138 41294 41485 41368 41148 40756 40519 40424 40527 40643 40600 40441 40446 40509 40562 40546 40336 40247 40269 40438 40426 40452 40472 40572 40665 40688 40578 40392 40075 40025 40164 40213 40310 40376 40510 40604 40553 40202 39951 39930 40053 40176 40371 40582 40693 40462 40145 40028 40038 40086 40140 40263 40479 40719 40886 40674 40384 40205 40168 40248 40406 40578 40628 40549 40650 40666 40560 40422 40333 40377 40566 40786 40844 40909 40974 41009 40885 40840 40910 41003 40933 40981 41213 41306 41385 41430 41403 41395 41440 41381 41337 41393 41534 41640 41746 41866 41709 41384 41267 41372 41476 41602 41641 41730 41868 41969 41853 41599 41472 41513 41608 41763 41929 42053 41834 41758 41783 41759 41743 41743 41788 41929 42076 42185 42173 42186 42105 42009 41987 42039 42046 41905 41823 41915 42031 42097 42028 41906 41900 41964 42095 42002 41968 42019 42122 42233 42222 42180 41920 41716 41707 41850 41972 42089 42163 42233 42261 42220 42047 41866 41813 41898 41974 42098 42250 42339 42035 41666 41549 41503 41557 41596 41695 41833 41982 42106 41797 41359 41137 41083 41174 41307 41453 41418 41257 41236 41243 41124 41058 41014 41074 41212 41336 41396 41342 41323 41226 41065 40966 40983 41039 40969 40650 40592 40727 40872 40926 40842 40756 40828 41003 41070 40961 40841 40864 40974 41037 40979 40956 40910 40751 40657 40787 40934 41101 41211 41207 41184 41118 41241 41077 41118 41225 41377 41473 41623 41737 41602 41328 41160 41278 41405 41552 41654 41796 41931 41928 41867 41644 41587 41640 41738 41900 42041 42143 42056 41833 41738 41758 41799 41881 41916 42023 42190 42398 42554 42397 42202 42075 42084 42174 42305 42428 42416 42218 42144 42188 42209 42180 42140 42180 42361 42496 42548 42505 42492 42483 42465 42511 42609 42706 42836 42872 42864 42966 43038 43155 43232 43341 43442 43610 43697 43878 44050 44169 44219 44252 44247 44146 44043 44022 43973 43999 44015 44044 44099 44101 43972 43806 43680 43653 43749 43810 43869 43948 43860 43551 43193 43098 43099 43136 43143 43190 43272 43306 43348 43029 42715 42525 42477 42534 42671 42764 42702 42677 42735 42615 42466 42337 42277 42285 42390 42513 42489 42418 42265 42049 41875 41793 41874 41929 41856 41748 41800 41892 41847 41688 41542 41526 41630 41782 41718 41578 41456 41425 41276 41140 41110 41022 40937 40884 40980 41085 41197 41171 41024 40921 40895 40898 40789 40727 40806 40912 41050 41127 40968 40595 40331 40356 40502 40660 40783 40890 41067 41124 40997 40764 40638 40646 40838 40967 41092 41261 41275 41049 40783 40764 40811 40918 41024 41130 41300 41433 41514 41259 41059 40983 41071 41229 41412 41544 41430 41327 41349 41340 41304 41322 41309 41443 41626 41704 41708 41719 41630 41604 41621 41733 41851 41782 41741 41797 41943 42052 42038 41976 41910 41942 42003 42087 42104 42122 42222 42295 42254 42260 42211 42076 41969 42074 42234 42296 42323 42339 42309 42246 42303 42256 42290 42365 42460 42570 42683 42645 42372 42035 42060 42132 42188 42236 42285 42406 42517 42497 42190 41976 41953 42071 42219 42353 42486 42536 42234 41890 41807 41819 41867 41950 41994 42109 42251 42351 42059 41820 41730 41762 41898 42087 42191 42154 41943 41853 41794 41692 41650 41695 41844 42033 42069 42034 41990 41863 41659 41649 41658 41758 41864 41828 41674 41710 41779 41699 41580 41520 41566 41631 41685 41645 41636 41589 41433 41258 41231 41276 41179 41047 41061 41166 41239 41314 41172 41018 41079 41094 41166 41108 41110 41154 41266 41266 41206 41083 40852 40776 40889 41003 41137 41247 41375 41369 41234 41163 40951 40999 41109 41240 41365 41542 41574 41264 40895 40856 40997 41185 41322 41393 41495 41641 41550 41301 41142 41167 41324 41532 41716 41883 41931 41767 41573 41585 41593 41701 41802 41883 42061 42147 42279 42083 41997 41977 42064 42195 42335 42464 42375 42223 42214 42255 42267 42280 42273 42342 42485 42590 42645 42600 42471 42430 42454 42544 42674 42756 42615 42517 42653 42723 42694 42665 42615 42707 42797 42911 42866 42859 42879 42849 42791 42824 42899 42893 42705 42653 42780 42852 42856 42695 42621 42702 42834 42938 42881 42845 42895 42979 42951 42913 42920 42889 42706 42668 42822 42885 42962 42886 42770 42797 42931 42956 42807 42735 42769 42913 42971 42883 42803 42665 42491 42471 42634 42726 42843 42882 42770 42684 42648 42593 42504 42512 42602 42759 42910 42966 42917 42813 42509 42288 42334 42517 42688 42842 42827 42755 42555 42308 41968 41901 41900 41946 41985 42048 41895 41560 41203 40945 40900 40987 41109 41178 41201 41135 40853 40572 40406 40511 40684 40851 40960 41056 41176 41112 40813 40578 40604 40717 40902 41091 41238 41289 41208 40931 40785 40712 40758 40866 41052 41239 41455 41520 41387 41167 41118 41208 41380 41545 41665 41732 41766 41812 41651 41538 41552 41634 41733 41877 42011 42132 42177 41992 41764 41702 41775 41881 41955 42053 42154 42279 42381 42366 42191 42167 42205 42327 42451 42577 42691 42732 42475 42289 42372 42410 42458 42509 42611 42740 42831 42847 42600 42469 42501 42559 42660 42777 42868 42794 42587 42408 42334 42310 42341 42376 42479 42624 42743 42869 42694 42535 42443 42474 42549 42687 42826 42919 42704 42447 42277 42211 42127 42059 42135 42373 42564 42653 42440 42048 41810 41829 41902 42035 42157 42127 41945 41893 41854 41716 41608 41538 41587 41769 41963 42056 41936 41732 41451 41282 41333 41439 41470 41304 41258 41344 41367 41200 40974 40907 41027 41236 41250 41109 40984 40997 40928 40877 40867 40840 40709 40707 40846 40970 41037 40972 40775 40741 40854 40957 40925 40910 40983 41080 41143 41075 40926 40602 40494 40644 40818 40963 41055 41102 41056 40960 40885 40761 40718 40806 40971 41175 41369 41512 41312 40955 40790 40965 41118 41274 41391 41462 41620 41597 41474 41297 41312 41433 41597 41788 41976 42068 41911 41572 41529 41594 41678 41814 41889 41979 42140 42283 42179 42024 41974 42085 42232 42409 42603 42685 42550 42308 42287 42280 42307 42353 42395 42519 42729 42841 42807 42650 42559 42594 42661 42782 42911 42850 42580 42602 42718 42667 42636 42583 42582 42717 42863 42967 42870 42860 42847 42852 42874 42963 43123 43184 42949 42872 42988 43101 43051 42983 42908 42932 43054 43184 43122 43131 43166 43141 43053 43046 43108 43210 43111 43011 43058 43159 43230 43142 43014 42929 42975 43054 43133 43089 43081 43103 43082 42963 42918 43002 43009 42932 42882 42973 43067 43154 43075 42890 42815 42778 42925 42866 42851 42852 42911 42865 42714 42632 42418 42262 42197 42316 42429 42500 42554 42369 42176 41997 42007 41922 41840 41843 41897 41999 42093 41944 41593 41411 41387 41468 41598 41742 41888 42013 41997 41732 41413 41237 41187 41265 41385 41535 41691 41790 41511 41155 41016 40988 41074 41221 41390 41541 41632 41486 41064 40761 40667 40716 40845 40978 41098 41135 41179 41029 41033 41144 41332 41568 41791 41941 42073 42170 42188 42064 42009 42063 42074 42141 42196 42165 42099 42028 41896 41788 41691 41729 41780 41896 42068 42217 42302 42196 42010 41889 41843 41932 42058 42154 42114 42068 42138 42152 42079 42037 42007 42123 42266 42395 42388 42398 42392 42360 42296 42304 42417 42495 42443 42398 42505 42598 42568 42523 42437 42491 42591 42706 42675 42684 42708 42696 42647 42642 42681 42648 42551 42563 42679 42777 42857 42786 42697 42709 42752 42874 42812 42849 42949 43020 43065 43011 42952 42748 42637 42766 42862 42966 43036 43062 42963 42873 42858 42759 42773 42856 42951 43070 43184 43173 42966 42629 42514 42604 42734 42821 42895 42897 42999 42983 42889 42688 42678 42757 42868 42997 43148 43274 43127 42715 42556 42585 42690 42802 42905 42988 43081 43125 43021 42769 42633 42655 42775 42902 43032 43149 43175 42794 42554 42457 42504 42625 42727 42840 42927 43005 42924 42668 42522 42535 42643 42781 42923 43050 43066 42925 42698 42583 42579 42628 42700 42796 42929 43065 43155 42995 42766 42649 42674 42803 42910 43043 43144 43024 42803 42631 42546 42578 42628 42704 42805 42901 42954 42987 42792 42610 42551 42613 42692 42851 42969 42908 42781 42703 42617 42550 42563 42562 42623 42760 42911 43082 42911 42639 42436 42398 42455 42598 42747 42802 42664 42442 42220 42114 42099 42139 42141 42182 42325 42566 42713 42463 42071 41843 41879 42037 42221 42382 42399 42195 42058 41924 41884 41896 41922 42001 42130 42302 42483 42429 42073 41747 41695 41784 41944 42149 42279 42148 41969 41827 41791 41763 41791 41836 41988 42180 42320 42385 42181 41915 41818 41829 41966 42174 42320 42262 42176 42218 42171 42055 42021 42015 42128 42300 42463 42497 42406 42191 42059 42060 42136 42313 42488 42488 42259 42224 42149 42040 41993 42035 42107 42247 42377 42523 42358 42200 42063 42103 42224 42364 42550 42703 42738 42644 42581 42547 42536 42579 42626 42711 42794 42890 42738 42726 42628 42588 42634 42752 42950 43037 42970 42956 42930 42828 42738 42719 42774 42929 43075 43101 43028 42984 42862 42780 42797 42878 43012 43071 42818 42755 42852 42826 42710 42667 42695 42898 43175 43175 43130 43172 43181 43109 43086 43112 43202 43054 42904 42954 43088 43144 43085 43017 43052 43137 43210 43314 43263 43256 43210 43144 43104 43137 43217 43243 43079 43037 43179 43321 43284 43222 43212 43239 43342 43444 43262 43265 43313 43320 43292 43300 43372 43444 43339 43203 43126 43234 43145 43078 42989 43025 43132 43284 43006 42960 42963 42905 42849 42874 42978 43086 43053 42990 42941 43018 42989 42882 42817 42852 42906 43100 43057 43071 43064 43039 43012 43005 43019 43062 42958 42886 43054 43197 43271 43194 43098 43103 43205 43342 43269 43236 43268 43309 43256 43270 43378 43491 43356 43213 43273 43400 43467 43410 43337 43362 43414 43613 43562 43551 43583 43611 43553 43525 43597 43681 43511 43420 43485 43567 43654 43628 43515 43495 43507 43679 43587 43602 43645 43772 43754 43707 43725 43738 43579 43478 43576 43668 43786 43800 43714 43663 43703 43780 43714 43712 43746 43834 43839 43712 43693 43643 43471 43413 43508 43628 43721 43702 43557 43493 43499 43561 43481 43480 43502 43552 43522 43444 43340 43198 42999 42995 43131 43243 43314 43319 43162 43056 42993 42953 42897 42865 42930 43008 43088 43054 42888 42622 42396 42407 42560 42653 42755 42793 42737 42578 42436 42219 42176 42204 42293 42344 42471 42456 42152 41686 41519 41621 41776 41942 42003 42044 42048 41888 41719 41406 41245 41259 41398 41577 41783 41901 41610 41073 40836 40920 41103 41288 41445 41566 41728 41703 41467 41166 41017 41044 41231 41419 41597 41746 41639 41187 40784 40786 41052 41244 41429 41565 41751 41843 41696 41361 41174 41243 41487 41753 41975 42139 42091 41891 41674 41672 41942 42318 42667 43031 43300 43516 43428 43385 43334 43454 43611 43710 43873 43949 43961 43800 43554 43400 43302 43332 43381 43475 43545 43609 43552 43476 43281 43238 43312 43440 43508 43605 43674 43535 43191 43027 43088 43194 43279 43342 43409 43499 43578 43499 43288 43218 43259 43337 43381 43487 43570 43444 43055 42826 42841 42898 42971 43004 43077 43165 43195 43035 42693 42481 42412 42466 42564 42695 42767 42555 42215 42054 41987 41998 42066 42114 42195 42361 42568 42508 42164 41897 41769 41782 41871 42020 42040 41886 41850 41820 41728 41668 41626 41682 41848 41976 42079 41887 41526 41212 41101 41128 41276 41398 41263 41120 41157 41074 40956 40851 40808 40922 41071 41199 41154 41048 40833 40639 40627 40730 40871 40849 40786 40835 40974 40985 40919 40807 40807 40939 41058 41158 41117 41120 41074 40954 40933 41024 41127 41071 40992 41096 41269 41262 41159 41052 41119 41274 41381 41384 41403 41463 41476 41401 41421 41522 41578 41447 41424 41579 41723 41790 41793 41761 41854 41951 42042 41984 42065 42173 42258 42232 42250 42296 42118 42073 42217 42421 42554 42596 42535 42552 42613 42680 42581 42573 42644 42783 42860 42848 42850 42631 42397 42292 42372 42569 42718 42761 42735 42766 42781 42637 42497 42482 42607 42817 42965 42987 42917 42617 42480 42634 42838 42971 43050 43032 42990 43009 42945 42813 42801 42856 43024 43133 43242 43186 42936 42624 42608 42782 42905 43012 43076 43074 43042 42981 42895 42785 42823 42930 43003 43089 43126 43034 42547 42246 42312 42478 42542 42647 42714 42711 42669 42561 42437 42345 42370 42495 42639 42754 42884 42760 42387 42025 41952 42114 42259 42404 42467 42536 42445 42256 42075 41979 42013 42105 42226 42328 42393 42260 41898 41538 41543 41700 41778 41876 41930 41988 41916 41802 41673 41568 41592 41665 41763 41862 41937 41841 41443 41220 41289 41459 41614 41714 41821 41940 41910 41843 41671 41614 41670 41784 41869 41981 42148 42047 41662 41515 41593 41727 41873 41996 42091 42180 42152 42051 41882 41923 42023 42190 42340 42426 42485 42354 42043 41845 41933 42111 42254 42348 42387 42470 42474 42306 42089 42082 42210 42394 42569 42706 42809 42729 42331 42119 42235 42408 42560 42648 42679 42809 42780 42645 42394 42398 42489 42640 42757 42835 42884 42553 42189 42073 42154 42340 42531 42642 42706 42780 42633 42431 42243 42242 42336 42477 42603 42739 42782 42400 42120 42156 42313 42435 42598 42634 42720 42816 42662 42415 42228 42219 42367 42531 42676 42786 42759 42397 42097 42133 42264 42388 42442 42519 42651 42687 42520 42054 41874 41893 42027 42156 42279 42386 42225 41755 41528 41586 41671 41812 41882 42002 42171 42224 41965 41600 41384 41401 41539 41648 41828 41886 41657 41314 41185 41186 41253 41322 41408 41589 41676 41587 41041 40675 40620 40763 40883 41071 41247 41191 40974 40632 40599 40607 40756 40803 40906 41090 41211 41212 40887 40634 40573 40670 40809 41014 41218 41211 40886 40637 40516 40519 40590 40709 40839 41043 41230 41230 40846 40586 40583 40759 40993 41188 41332 41492 41352 40829 40709 40701 40804 41039 41270 41434 41570 41690 41542 41079 41046 41163 41375 41564 41853 42071 42104 41938 41747 41697 41830 41960 42085 42175 42263 42303 42218 42062 42009 42058 42175 42289 42399 42493 42390 42031 41941 42023 42119 42247 42336 42432 42556 42564 42539 42313 42226 42290 42385 42499 42638 42716 42708 42257 42073 42110 42195 42276 42352 42401 42558 42598 42394 42153 42064 42121 42298 42421 42554 42660 42573 42091 41872 41952 42060 42189 42270 42372 42528 42499 42221 41873 41785 41870 41982 42093 42185 42279 42165 41806 41525 41539 41696 41842 41934 42087 42259 42262 42007 41743 41659 41753 41889 41972 42111 42138 41878 41516 41476 41503 41531 41637 41792 41943 42135 42172 41766 41451 41365 41455 41579 41749 41885 41975 41625 41120 41006 41128 41228 41382 41462 41615 41774 41799 41505 41219 41114 41204 41348 41521 41683 41816 41492 41067 41009 41132 41224 41358 41477 41659 41818 41771 41528 41293 41250 41372 41488 41653 41832 41874 41428 41089 41069 41156 41278 41434 41523 41634 41738 41686 41550 41367 41339 41453 41587 41777 41977 42058 41715 41496 41460 41588 41748 41901 42027 42173 42261 42178 41929 41829 41867 42010 42132 42309 42447 42339 41817 41612 41750 41884 42057 42159 42256 42393 42372 42327 42070 42019 42101 42288 42441 42592 42714 42586 42215 42012 42116 42300 42451 42567 42634 42652 42643 42619 42479 42474 42595 42765 42890 43012 43070 42842 42469 42362 42528 42672 42847 42932 42977 42938 42878 42817 42697 42706 42813 42946 43108 43220 43191 42943 42616 42550 42739 42890 43030 43108 43110 43040 43026 43038 42969 42996 43073 43206 43326 43395 43360 43171 42919 42885 43055 43191 43327 43401 43368 43295 43215 43196 43052 43093 43160 43274 43323 43239 43139 42922 42712 42697 42833 42968 43062 43082 42910 42820 42803 42881 42805 42775 42812 42896 42923 42827 42752 42524 42267 42274 42442 42558 42704 42680 42530 42507 42554 42529 42368 42322 42406 42563 42503 42384 42349 42195 42041 41995 42117 42249 42341 42206 42059 42048 42152 42309 42176 42103 42117 42106 41978 41969 42023 42081 41925 41916 42094 42218 42235 42172 42096 42144 42249 42387 42281 42286 42317 42229 42119 42137 42213 42117 41971 42087 42270 42330 42257 42149 42163 42290 42413 42410 42386 42370 42325 42231 42224 42322 42443 42337 42047 42055 42196 42193 42139 42086 42215 42411 42610 42557 42381 42185 42109 42178 42277 42429 42657 42748 42439 42369 42448 42441 42464 42495 42569 42724 42972 42932 42463 42222 42164 42309 42571 42730 42879 43003 42708 42394 42245 42125 42154 42361 42523 42629 42786 42905 42718 42520 42445 42513 42697 42863 43048 43165 43226 43009 42682 42656 42782 42870 42953 43049 43169 43287 43082 42739 42538 42513 42628 42794 42908 42989 42982 42527 42172 42154 42271 42406 42513 42622 42737 42753 42562 42214 42060 42093 42234 42394 42533 42674 42591 42015 41774 41841 41969 42114 42234 42367 42524 42482 42199 41872 41799 41881 42002 42147 42275 42317 41946 41575 41538 41748 41928 42066 42142 42246 42266 42093 41744 41561 41581 41729 41872 42027 42146 42017 41511 41141 41220 41405 41580 41741 41849 41981 41996 41833 41587 41486 41529 41675 41828 41966 42111 42008 41621 41426 41511 41737 41882 41998 42125 42236 42164 41954 41690 41671 41803 41933 42037 42185 42266 42093 41693 41493 41635 41820 41987 42112 42222 42182 42106 41946 41749 41769 41887 42056 42198 42366 42418 42331 41956 41784 41966 42145 42308 42386 42463 42424 42452 42364 42245 42310 42428 42584 42715 42796 42712 42452 42291 42349 42543 42691 42753 42819 42794 42742 42795 42799 42766 42799 42875 42977 43040 43031 42973 42534 42464 42572 42720 42833 42959 42980 42882 42815 42769 42654 42619 42658 42793 42921 43049 43031 42970 42641 42552 42706 42879 43008 43100 43124 43085 43107 43127 43104 43084 43104 43203 43304 43261 43195 43124 42925 42670 42736 42901 42994 43096 43022 42891 42876 42908 42941 42839 42812 42861 42894 42796 42753 42730 42532 42454 42551 42715 42813 42894 42740 42629 42629 42699 42777 42606 42637 42700 42656 42474 42426 42452 42443 42223 42172 42273 42396 42334 42144 42030 42103 42194 42307 42198 42144 42070 41875 41709 41735 41858 41913 41811 41789 41872 41898 41766 41649 41633 41733 41855 42070 41962 41907 41761 41571 41519 41602 41752 41860 41647 41540 41601 41575 41443 41345 41389 41551 41751 41907 41812 41599 41254 41141 41260 41395 41599 41749 41507 41295 41211 41158 41150 41236 41358 41514 41719 41896 41983 41757 41528 41481 41580 41786 41988 42205 42337 42076 41800 41766 41804 41910 42022 42126 42288 42427 42561 42354 42207 42202 42282 42442 42598 42741 42819 42553 42281 42268 42388 42483 42611 42712 42825 42948 42866 42658 42555 42571 42672 42785 42932 43057 43120 43094 43073 43208 43420 43645 43856 44049 44207 44203 44037 43976 43942 43968 44090 44180 44249 44286 44188 43988 43752 43609 43602 43663 43738 43869 43988 43969 43806 43716 43551 43639 43730 43857 43956 43960 43867 43727 43414 43311 43489 43617 43747 43793 43662 43556 43533 43622 43586 43582 43593 43653 43659 43607 43559 43581 43450 43409 43534 43648 43739 43689 43551 43506 43571 43673 43677 43633 43640 43645 43549 43502 43564 43615 43512 43374 43393 43499 43466 43325 43249 43303 43416 43449 43374 43201 43154 42988 42909 42906 43018 43121 42974 42829 42831 42799 42648 42522 42511 42607 42758 42878 42889 42774 42516 42253 42154 42180 42350 42485 42464 42319 42230 41999 41860 41802 41859 42004 42161 42228 42248 41989 41684 41517 41515 41616 41783 41907 41920 41726 41489 41263 41195 41216 41363 41551 41708 41858 41803 41483 41283 41262 41322 41486 41660 41827 41738 41473 41391 41430 41467 41575 41691 41820 41981 42125 42102 41708 41560 41555 41683 41782 41976 42106 42048 41788 41584 41608 41742 41863 42039 42205 42333 42220 42107 41893 41892 41977 42125 42239 42390 42383 42278 42126 42086 42131 42240 42348 42462 42590 42687 42716 42392 42301 42292 42406 42585 42724 42877 42768 42491 42285 42284 42353 42463 42545 42638 42773 42804 42700 42389 42318 42396 42539 42717 42854 42953 42836 42485 42276 42263 42348 42466 42557 42664 42801 42847 42773 42493 42413 42459 42588 42739 42833 42971 42943 42607 42367 42331 42479 42600 42674 42757 42846 42787 42696 42437 42350 42395 42469 42603 42726 42780 42598 42206 41813 41814 42004 42158 42236 42313 42329 42206 42156 42208 42012 41959 41996 42102 42223 42184 42074 42049 41821 41688 41798 41928 42076 42224 42227 42160 42171 42254 42266 42172 42107 42157 42259 42215 42173 42221 42289 42133 42107 42222 42323 42412 42350 42263 42287 42361 42510 42424 42351 42397 42377 42285 42263 42337 42420 42332 42216 42239 42331 42302 42174 42061 42113 42217 42339 42262 42181 42179 42038 41925 41927 42060 42193 42033 41974 42015 42114 42058 41965 41934 42038 42228 42322 42342 42310 42246 42086 42026 42090 42245 42392 42406 42274 42287 42365 42329 42327 42335 42441 42564 42702 42886 42798 42720 42600 42538 42592 42689 42807 42847 42815 42746 42677 42639 42644 42675 42733 42836 42982 43114 42955 42749 42605 42633 42721 42868 43003 43098 42822 42676 42598 42486 42421 42475 42534 42743 42985 43197 43047 42863 42726 42756 42836 42956 43121 43213 42986 42867 42804 42736 42783 42866 42974 43109 43166 43291 43053 42799 42649 42661 42755 42901 42996 42830 42634 42562 42396 42270 42270 42318 42490 42722 42936 42811 42456 42118 42035 42096 42230 42436 42517 42269 42120 42007 41938 41937 42001 42111 42281 42447 42469 42177 41765 41578 41610 41785 41968 42111 41993 41719 41586 41503 41461 41498 41575 41705 41913 42057 41951 41646 41384 41333 41513 41696 41887 42073 42051 41774 41537 41475 41504 41592 41700 41867 42069 42271 42230 41845 41585 41585 41694 41892 42080 42241 42247 41891 41660 41657 41747 41868 41988 42123 42287 42441 42367 42040 41903 41942 42100 42278 42478 42637 42671 42269 42027 42063 42156 42269 42390 42519 42690 42834 42725 42462 42381 42454 42609 42721 42842 42981 43006 42820 42428 42386 42535 42721 42884 42993 43103 43158 43099 43012 42837 42941 43090 43236 43339 43456 43452 43293 42976 42847 43017 43149 43247 43351 43384 43342 43274 43212 43134 43119 43172 43310 43438 43493 43452 43383 43123 42872 43014 43183 43321 43448 43467 43376 43350 43391 43365 43231 43200 43254 43374 43421 43352 43338 43305 43017 42961 43111 43265 43357 43274 43152 43118 43185 43257 43154 43092 43074 43090 42981 42927 42921 42954 42803 42783 42884 42989 43092 43010 42884 42859 42938 42981 42760 42549 42489 42514 42459 42378 42463 42587 42449 42263 42291 42445 42434 42288 42189 42253 42412 42584 42415 42207 42101 41988 41937 41950 42046 42198 42139 41881 41885 42003 42010 41932 41878 41957 42130 42286 42181 41947 41751 41581 41536 41545 41647 41844 41891 41701 41677 41696 41637 41558 41553 41641 41814 41942 42060 41873 41575 41288 41204 41303 41446 41614 41723 41478 41295 41211 41195 41189 41226 41323 41560 41802 41997 41743 41406 41205 41219 41326 41514 41746 41876 41611 41517 41450 41480 41544 41600 41717 41868 42027 42106 41993 41714 41553 41598 41733 41887 42050 42141 41922 41625 41542 41615 41719 41820 41912 42059 42236 42380 42199 41847 41667 41742 41906 42084 42264 42410 42350 42125 42044 42117 42202 42313 42424 42562 42727 42798 42450 42188 42154 42243 42421 42563 42673 42813 42507 42102 42073 42199 42344 42433 42532 42619 42703 42698 42480 42175 42116 42233 42422 42596 42772 42895 42712 42537 42504 42596 42698 42779 42937 43065 43172 43174 42973 42717 42709 42819 43001 43122 43228 43242 43053 42680 42626 42747 42877 42973 43021 43097 43053 43022 42928 42747 42849 42944 43064 43168 43214 43140 43043 42760 42638 42761 42918 43047 43117 43108 43042 43072 43136 43076 43029 43030 43076 43168 43122 43119 43168 43083 42886 42942 43070 43208 43253 43156 43126 43202 43263 43333 43340 43350 43296 43106 42919 42886 42966 43187 43316 43436 43634 43732 43707 43712 43737 43793 43854 43897 43947 44031 43897 43658 43539 43581 43597 43595 43502 43366 43327 43240 43086 43016 43028 43105 43235 43296 43159 42970 42694 42528 42497 42581 42741 42619 42489 42409 42246 42028 41840 41829 41958 42112 42204 42319 42126 41749 41400 41276 41329 41466 41611 41609 41422 41208 40948 40764 40758 40830 40979 41145 41309 41408 41131 40749 40517 40515 40662 40818 40992 41103 40911 40607 40363 40303 40383 40539 40697 40894 41044 41003 40655 40299 40159 40202 40309 40502 40775 40874 40557 39992 39806 39886 40063 40264 40434 40571 40588 40362 40202 40104 40115 40238 40395 40552 40748 40751 40534 40297 40294 40464 40630 40763 40870 40994 40935 40832 40771 40716 40769 40860 41033 41185 41271 41209 40963 40840 40888 41030 41192 41354 41458 41413 41371 41409 41482 41499 41576 41677 41782 41832 41807 41812 41729 41700 41716 41836 41963 42055 42040 42037 42115 42211 42278 42273 42330 42406 42475 42475 42524 42615 42656 42511 42434 42547 42669 42717 42686 42679 42754 42832 42917 42897 42912 42938 42867 42879 42962 43101 43139 43010 42998 43041 43009 42902 42867 42933 43012 43145 43151 43126 43054 42903 42808 42807 42909 43078 43179 43109 43041 42956 42817 42727 42712 42817 42923 43067 43124 43108 42766 42441 42310 42344 42441 42609 42722 42719 42466 42109 41912 41886 41974 42091 42225 42350 42496 42348 42075 41799 41706 41801 41915 42071 42214 42300 41940 41576 41406 41454 41568 41704 41844 41972 42001 41800 41545 41313 41289 41331 41412 41545 41673 41511 41212 40984 40868 40982 41147 41295 41397 41371 41201 41068 41010 40929 40927 41005 41116 41223 41178 41060 40904 40660 40612 40748 40901 41056 41138 41023 40958 41021 41084 41115 41172 41183 41270 41307 41257 41275 41394 41388 41240 41329 41456 41568 41511 41444 41482 41615 41765 41867 41816 41905 41969 41949 41987 42090 42246 42377 42158 42053 42073 42135 42214 42321 42446 42617 42771 42844 42864 42869 42809 42796 42877 42991 43145 43282 43347 43218 43104 43054 43079 43104 43173 43296 43411 43513 43482 43229 43080 43078 43176 43292 43442 43579 43642 43454 43088 43030 43123 43207 43291 43408 43527 43582 43436 43318 43162 43174 43230 43333 43460 43610 43628 43416 43097 43042 43168 43271 43388 43492 43593 43540 43434 43353 43279 43330 43390 43484 43590 43670 43622 43494 43200 43112 43192 43348 43457 43552 43527 43382 43287 43257 43192 43207 43234 43293 43336 43219 43107 42932 42912 42969 43005 43048 43120 43122 43011 42930 42917 42907 42921 42935 42982 43058 43010 42936 42867 42850 42841 42883 42971 43023 43070 42959 42828 42772 42697 42640 42557 42489 42457 42323 42196 42162 42192 42208 42055 41954 41986 42062 41933 41841 41822 41951 42078 42241 42198 42205 42039 41854 41813 41880 41971 42090 42003 41920 41930 41876 41762 41697 41762 41907 42084 42249 42255 42094 41853 41723 41695 41807 41980 42095 41969 41871 41846 41760 41735 41776 41847 42000 42172 42312 42226 42032 41855 41816 41927 42074 42258 42390 42362 42196 42131 42068 42096 42210 42311 42465 42665 42690 42436 42206 42115 42198 42349 42485 42671 42760 42578 42303 42189 42202 42298 42446 42582 42737 42898 42913 42712 42503 42463 42580 42721 42879 43027 43159 43028 42681 42528 42644 42773 42905 43030 43110 43232 43174 42999 42784 42732 42810 42945 43057 43210 43214 42971 42594 42510 42670 42796 42929 43029 43089 43019 42954 42982 42965 43017 43108 43194 43261 43312 43200 43093 42956 42924 43036 43206 43334 43389 43304 43204 43194 43290 43265 43198 43171 43234 43217 43063 42953 42941 42797 42666 42701 42814 42942 42922 42764 42673 42782 42937 42962 42750 42656 42661 42520 42435 42501 42607 42554 42415 42456 42577 42557 42391 42267 42258 42400 42571 42692 42524 42316 41994 41759 41650 41774 41953 41994 41843 41776 41778 41610 41470 41423 41483 41672 41826 41922 41768 41435 41099 40987 41004 41175 41369 41515 41393 41261 41103 40996 40942 40989 41096 41287 41485 41654 41370 40943 40689 40637 40714 40885 41089 41126 40902 40629 40542 40529 40581 40682 40833 41037 41229 41150 40638 40292 40233 40336 40499 40745 40955 41004 40653 40499 40503 40592 40687 40820 40979 41171 41323 41170 40755 40561 40615 40769 40954 41153 41336 41287 40764 40480 40584 40774 40973 41096 41246 41390 41299 41049 40718 40642 40730 40914 41105 41324 41434 41244 40795 40722 40930 41140 41318 41448 41564 41567 41446 41467 41314 41321 41405 41550 41668 41740 41662 41586 41503 41276 41249 41429 41594 41687 41573 41413 41377 41501 41815 41676 41528 41560 41653 41587 41593 41691 41825 41835 41573 41659 41888 41907 41848 41836 41938 42038 42187 42270 42262 42133 41901 41809 41855 42014 42149 42255 42306 42407 42480 42530 42599 42750 42941 43147 43184 43299 43271 43152 43071 43045 43124 43242 43286 43266 43074 42916 42800 42689 42629 42701 42828 43048 43338 43303 42920 42633 42487 42546 42616 42754 42809 42639 42349 42103 41984 41921 41979 42049 42184 42306 42437 42196 41660 41333 41276 41368 41498 41631 41768 41703 41306 41019 40968 41027 41153 41273 41387 41538 41489 41237 40717 40552 40587 40707 40886 41028 41125 40837 40282 39925 40013 40201 40381 40514 40630 40581 40370 40344 40255 40238 40290 40369 40467 40488 40297 40057 39783 39699 39845 40049 40264 40426 40419 40242 40253 40357 40320 40247 40251 40298 40386 40275 40227 40242 40109 40028 40167 40394 40573 40590 40503 40474 40617 40748 40653 40628 40637 40687 40598 40605 40741 40926 40829 40797 40871 41006 41041 40962 40960 41075 41223 41393 41339 41446 41468 41369 41338 41440 41601 41722 41560 41551 41717 41794 41780 41773 41834 42029 42159 42279 42171 42070 41933 41918 42033 42204 42370 42417 42078 41991 41976 41984 42012 42074 42218 42370 42543 42674 42437 42130 41991 42035 42130 42306 42516 42613 42421 42117 41969 42003 42095 42222 42384 42559 42716 42837 42554 42256 42166 42236 42385 42539 42737 42811 42466 41980 41907 41947 42023 42130 42265 42433 42548 42431 42173 42056 42041 42141 42235 42387 42524 42442 41960 41664 41633 41728 41830 41872 41995 42117 42086 41893 41723 41620 41684 41778 41926 42062 42138 41941 41523 41251 41313 41501 41675 41786 41880 41754 41596 41533 41618 41546 41513 41512 41571 41505 41429 41389 41247 41187 41199 41331 41425 41450 41249 41125 41180 41310 41521 41469 41425 41368 41160 41004 41071 41242 41332 41303 41348 41462 41434 41313 41208 41283 41462 41634 41846 41800 41721 41478 41311 41340 41482 41689 41834 41770 41720 41692 41610 41583 41634 41757 41927 42127 42292 42103 41756 41511 41526 41685 41881 42108 42229 42039 41787 41682 41664 41784 41906 42044 42243 42402 42482 42218 41950 41879 41984 42151 42310 42515 42634 42284 41967 41990 42093 42255 42389 42532 42690 42841 42730 42391 42239 42295 42437 42624 42796 42964 42929 42306 42112 42197 42395 42555 42701 42823 42920 42851 42675 42479 42450 42533 42669 42875 42988 43023 42859 42464 42301 42464 42638 42743 42859 42931 42865 42861 42923 42848 42765 42778 42931 43059 43060 43003 42957 42790 42787 42922 43091 43156 43174 43028 42957 42995 43144 43173 43151 43124 43174 43062 42952 42982 43023 42833 42742 42839 42934 42901 42684 42596 42661 42836 42920 42899 42816 42746 42573 42426 42409 42548 42698 42586 42414 42430 42381 42220 42139 42175 42354 42565 42621 42612 42375 41948 41639 41596 41687 41875 42078 41967 41844 41521 41228 41108 41138 41315 41541 41733 41786 41671 41097 40693 40581 40695 40896 41113 41293 41242 40914 40548 40391 40463 40573 40707 40920 41133 41217 40926 40409 40164 40192 40367 40533 40739 40912 40589 39987 39808 39895 40053 40206 40385 40602 40657 40450 40232 39978 39976 40052 40218 40390 40562 40449 40279 39869 39625 39805 40026 40255 40419 40416 40323 40406 40505 40405 40359 40456 40618 40756 40684 40669 40727 40688 40671 40720 40868 41025 40994 40900 40925 41073 41273 41322 41329 41290 41234 41156 41161 41301 41478 41352 41206 41289 41436 41383 41284 41256 41362 41557 41711 41920 41909 41758 41523 41451 41585 41758 41949 42075 41904 41845 41808 41743 41739 41793 41944 42154 42337 42437 42158 41844 41640 41690 41830 42035 42240 42358 42004 41652 41512 41544 41654 41739 41897 42061 42178 42003 41704 41526 41479 41562 41707 41883 42047 42066 41607 41292 41306 41478 41652 41787 41913 42067 41980 41755 41493 41428 41470 41535 41679 41804 41804 41487 41098 40982 41102 41231 41343 41471 41547 41404 41262 41142 40919 40912 40940 41060 41160 41050 40896 40800 40636 40619 40767 40928 41021 41010 40839 40818 40912 40999 40943 40858 40848 40842 40690 40631 40727 40824 40743 40640 40705 40883 40823 40695 40701 40862 41079 41189 41099 40978 40764 40579 40548 40700 40902 41006 41027 41052 41078 40880 40729 40756 40901 41025 41109 41130 41086 40969 40825 40777 40815 40877 40949 41065 41131 41286 41436 41503 41612 41745 41878 41987 42021 42063 41975 41921 41907 41926 42017 42136 42194 42148 41896 41732 41677 41712 41846 42014 42219 42393 42521 42403 42165 42001 42048 42207 42358 42513 42628 42503 42120 41903 41911 42008 42158 42327 42484 42644 42473 42202 41984 41980 42076 42239 42382 42557 42553 42154 41845 41812 41943 42060 42148 42287 42342 42237 42031 41975 41921 41928 42001 42098 42257 42227 42145 41930 41813 41887 42065 42213 42315 42290 42167 42184 42279 42346 42266 42190 42207 42238 42142 42116 42167 42097 42034 42085 42211 42281 42172 42040 42061 42221 42304 42333 42253 42170 41977 41804 41812 41979 42184 42305 42229 42199 42235 42087 41963 41951 42065 42263 42421 42667 42618 42291 41930 41771 41815 41987 42195 42354 42383 42061 41695 41518 41534 41633 41787 41959 42146 42296 42250 41820 41500 41433 41547 41678 41851 42011 41980 41553 41237 41326 41509 41672 41821 41928 42045 41969 41986 41717 41629 41707 41825 41925 42096 42108 41830 41361 41214 41367 41556 41782 41951 42000 41917 41981 42043 41821 41585 41530 41672 41846 41834 41827 41925 41626 41621 41823 42041 42227 42244 42142 42133 42216 42404 42385 42284 42256 42233 42173 42166 42289 42443 42483 42400 42381 42486 42454 42372 42326 42384 42539 42751 42969 42854 42560 42322 42272 42343 42469 42648 42772 42833 42715 42479 42278 42264 42294 42363 42515 42726 42832 42894 42458 42199 42137 42213 42355 42512 42669 42758 42376 41946 41785 41836 41975 42077 42244 42395 42347 42013 41807 41685 41653 41702 41801 41928 42021 41844 41643 41378 41310 41415 41561 41708 41815 41770 41619 41598 41574 41601 41571 41533 41541 41523 41388 41398 41500 41530 41497 41368 41362 41435 41337 41229 41300 41463 41637 41735 41653 41566 41327 41037 41013 41082 41238 41420 41458 41336 41196 40925 40763 40733 40872 41091 41367 41517 41743 41338 40774 40548 40631 40881 41134 41344 41585 41466 41034 40784 40789 40858 40962 41139 41350 41565 41528 41285 41030 40982 41026 41141 41246 41430 41614 41461 41066 40888 40925 41112 41285 41410 41543 41549 41515 41456 41504 41519 41508 41542 41671 41675 41554 41528 41564 41538 41498 41625 41792 41889 41766 41675 41690 41814 41890 41957 41961 41917 41696 41490 41450 41472 41539 41595 41697 41834 42022 42093 42222 42362 42570 42746 42902 43072 43129 43035 42959 42970 42960 43007 42998 42874 42724 42479 42240 42177 42245 42377 42586 42766 42848 42847 42554 42257 42116 42185 42352 42489 42623 42618 42254 41900 41780 41797 41858 41983 42204 42397 42363 42015 41624 41477 41514 41666 41852 42027 42168 41902 41396 41095 41134 41321 41510 41699 41902 41946 41746 41563 41466 41442 41461 41538 41622 41671 41489 41286 41091 40995 40992 41096 41198 41273 41169 41021 41047 41128 41226 41235 41200 41177 41060 40773 40686 40763 40880 40875 40932 41031 40985 40739 40593 40673 40905 41142 41336 41339 41305 41086 40911 40885 41018 41213 41370 41307 41343 41407 41244 41130 41135 41312 41537 41602 41700 41660 41387 41163 41146 41258 41463 41688 41744 41481 41482 41378 41333 41344 41452 41679 41922 42097 42230 41903 41543 41380 41431 41616 41817 41999 42177 42007 41672 41546 41526 41562 41701 41892 42097 42298 42208 41876 41632 41618 41715 41855 41978 42111 42155 41913 41493 41443 41554 41621 41728 41885 42055 42000 41771 41635 41589 41654 41729 41851 41959 41956 41800 41695 41460 41495 41609 41657 41799 41937 41953 41920 41918 41921 41837 41879 41991 42150 42187 42084 42088 42114 41930 41917 42058 42174 42197 42121 42088 42145 42258 42301 42297 42257 42256 42100 41950 41932 42095 42222 42150 42145 42195 42193 42037 41922 41993 42157 42396 42558 42671 42638 42381 42094 41998 42023 42138 42282 42325 42211 42127 41921 41751 41723 41853 42082 42318 42419 42517 42187 41807 41608 41611 41744 41912 42096 42223 41995 41542 41255 41192 41233 41334 41521 41755 41933 41756 41399 41126 41067 41090 41168 41243 41353 41427 41192 40840 40794 40898 41009 41111 41249 41423 41318 41149 41055 41056 41101 41168 41209 41292 41255 41082 40937 40812 40705 40822 41073 41256 41345 41199 41074 41080 41213 41345 41308 41283 41309 41138 40941 40921 41010 41056 41073 41162 41305 41264 41056 40962 41066 41279 41449 41553 41521 41437 41191 40952 40939 41093 41300 41368 41342 41382 41384 41228 41136 41239 41445 41686 41839 41984 41927 41679 41409 41354 41528 41702 41871 41912 41871 41747 41630 41557 41612 41736 41939 42151 42220 42265 41936 41634 41522 41613 41763 41940 42101 42168 41829 41548 41507 41544 41643 41824 42012 42213 42199 41979 41602 41448 41489 41626 41854 42046 42273 42128 41730 41528 41558 41648 41775 41907 42070 42169 42072 41876 41840 41851 41889 41965 42055 42138 42041 41892 41787 41651 41637 41720 41817 41915 41807 41687 41729 41784 41939 41918 41897 41854 41715 41492 41498 41616 41751 41839 41852 41955 42093 42010 41862 41831 41980 42154 42412 42445 42366 42034 41695 41558 41599 41812 41998 42014 41899 41757 41487 41254 41215 41384 41620 41821 42014 41993 41477 41031 40894 40944 41077 41266 41499 41566 41315 40950 40750 40755 40852 41085 41356 41588 41739 41406 40915 40676 40681 40771 40925 41127 41301 41078 40628 40426 40498 40668 40831 40992 41189 41312 41127 40902 40774 40712 40724 40824 41016 41208 41158 40936 40758 40757 40893 41079 41200 41339 41462 41389 41313 41286 41242 41214 41255 41298 41354 41277 41190 41166 41115 41175 41331 41493 41576 41450 41309 41364 41601 41740 41730 41691 41723 41647 41460 41457 41580 41688 41723 41768 41874 41964 41832 41733 41832 42029 42203 42294 42179 42029 41773 41623 41668 41834 42025 42174 42078 41915 41870 41750 41675 41742 41911 42168 42423 42605 42681 42388 42022 41900 42005 42133 42305 42497 42574 42327 41960 41845 41908 42005 42117 42329 42550 42733 42584 42205 41963 41906 42003 42117 42255 42422 42347 41958 41564 41565 41726 41913 42007 42164 42340 42296 42235 42195 42107 42044 42025 42043 42067 41964 41843 41825 41805 41581 41576 41733 41934 41950 41864 41779 41852 42042 42165 42055 41893 41721 41401 41227 41269 41488 41616 41627 41662 41736 41639 41375 41283 41385 41601 41861 42060 42017 41706 41187 40951 40957 41131 41361 41582 41652 41400 40994 40749 40752 40876 40974 41181 41415 41697 41658 41148 40719 40654 40768 40935 41106 41261 41351 41128 40938 40821 40834 40946 41093 41256 41361 41339 40993 40766 40740 40911 41075 41164 41298 41411 41293 41175 41118 41212 41464 41633 41858 41992 41861 41613 41326 41281 41354 41432 41515 41679 41768 41695 41644 41602 41539 41654 41812 41960 42084 42031 41921 41984 42159 42370 42325 42267 42274 42161 41998 42001 42110 42275 42210 42086 42148 42223 42135 42013 42036 42177 42369 42602 42672 42524 42222 42004 41987 42084 42248 42444 42594 42546 42394 42189 42092 42068 42140 42295 42499 42719 42887 42605 42249 42089 42117 42223 42332 42488 42608 42530 42114 41756 41769 41917 42079 42186 42316 42452 42250 42054 41887 41817 41825 41848 41906 41973 41866 41661 41478 41350 41430 41535 41667 41734 41734 41591 41532 41581 41678 41694 41591 41523 41479 41240 41059 41104 41280 41440 41416 41410 41504 41460 41236 41113 41214 41439 41669 41795 41717 41450 40991 40738 40745 40908 41150 41299 41316 41239 41015 40804 40662 40727 40869 41149 41405 41607 41542 41073 40718 40609 40684 40877 41081 41257 41262 40975 40711 40659 40720 40841 41031 41287 41503 41544 41099 40688 40578 40652 40751 40930 41128 41270 41012 40543 40375 40472 40673 40825 40974 41170 41342 41249 41061 40813 40794 40850 40950 41060 41222 41097 40834 40518 40606 40815 40948 41050 41208 41172 41051 40977 40991 41002 40991 41043 41142 41174 41030 40935 40892 40857 40965 41120 41224 41276 41149 41067 41140 41354 41526 41562 41542 41539 41452 41303 41281 41398 41526 41543 41563 41634 41710 41516 41393 41414 41560 41796 41989 42041 41967 41648 41422 41373 41452 41598 41768 41870 41874 41870 41772 41639 41580 41665 41843 42083 42291 42369 41967 41564 41423 41471 41584 41791 41971 42018 41759 41463 41320 41283 41327 41446 41567 41760 41837 41575 41157 40944 40982 41084 41202 41361 41502 41331 40905 40689 40663 40679 40791 40956 41178 41394 41296 41093 40939 40924 40936 41010 41076 41182 41125 40890 40704 40674 40808 41001 41083 41172 41216 41076 41020 41002 41077 41026 40965 40932 40936 40738 40541 40517 40547 40669 40800 40963 41048 41063 40903 40851 40968 41140 41284 41282 41248 41189 40893 40679 40606 40781 41011 41146 41228 41335 41310 41128 41022 41113 41336 41586 41880 41939 41671 41264 41028 41031 41173 41336 41478 41559 41368 41046 40930 40858 40923 41089 41293 41536 41714 41856 41467 41040 40889 40960 41134 41296 41445 41560 41379 41085 40968 40912 40893 41017 41284 41555 41689 41498 41160 40939 40914 40957 41059 41171 41284 41188 40966 40678 40528 40714 40985 41196 41366 41386 41262 41219 41229 41322 41384 41411 41466 41534 41483 41334 41284 41241 41213 41272 41414 41550 41506 41373 41334 41428 41549 41648 41639 41639 41581 41350 41164 41159 41260 41347 41399 41351 41450 41412 41246 41164 41297 41530 41760 41895 41987 41898 41528 41243 41165 41261 41429 41603 41689 41661 41490 41266 41161 41133 41220 41410 41632 41815 41819 41540 41183 40997 41036 41155 41282 41359 41414 41403 41139 41031 41113 41226 41324 41525 41668 41792 41617 41391 41267 41257 41297 41356 41493 41598 41468 41102 40874 40875 40988 41111 41207 41287 41316 41206 41203 41265 41374 41394 41373 41393 41419 41220 41027 40964 41045 41078 41201 41366 41469 41415 41213 41151 41280 41515 41643 41589 41623 41606 41333 41119 41055 41137 41317 41407 41409 41519 41416 41240 41161 41285 41493 41679 41825 41868 41720 41335 41103 41047 41087 41273 41447 41552 41541 41393 41282 41205 41263 41403 41621 41866 42061 42106 41684 41355 41255 41351 41475 41633 41749 41901 41704 41232 41123 41244 41371 41518 41656 41840 41945 41675 41389 41154 41103 41172 41309 41446 41571 41513 41292 40997 40887 41054 41242 41362 41517 41661 41551 41499 41491 41430 41389 41422 41437 41485 41352 41227 41164 41180 41145 41064 41063 41128 41223 41238 41247 41258 41384 41533 41738 41908 42056 41972 41810 41728 41776 41846 42036 42227 42398 42485 42302 42196 42045 41974 41949 41941 42020 42046 41919 41767 41754 41790 41787 41708 41758 41885 41889 41780 41708 41788 41968 42095 42201 42128 41987 41639 41419 41387 41522 41679 41756 41771 41748 41610 41310 41179 41245 41447 41716 41951 42079 41978 41605 41271 41135 41170 41259 41434 41537 41381 41102 40876 40788 40879 41072 41320 41535 41564 41521 41005 40520 40326 40428 40597 40772 40981 41034 40736 40394 40236 40281 40469 40714 40990 41279 41617 41461 40801 40552 40506 40643 40765 40920 41119 41111 40601 40290 40302 40483 40661 40836 40995 41169 40999 40643 40386 40322 40401 40582 40717 40845 40816 40411 40040 40040 40225 40377 40536 40729 40917 40857 40583 40452 40393 40427 40509 40636 40764 40762 40586 40388 40193 40391 40661 40872 41026 41158 41049 40947 40894 40857 40862 40888 40998 41128 41022 40892 40786 40627 40623 40823 41005 41119 41153 41019 40981 41056 41124 41084 41084 41170 41232 41182 41109 41119 41173 41100 41184 41377 41512 41535 41445 41400 41498 41601 41774 41748 41719 41717 41570 41488 41572 41690 41751 41687 41728 41864 41806 41670 41607 41710 41894 42016 42104 42010 41923 41641 41480 41469 41667 41852 41872 41797 41874 41912 41745 41615 41654 41814 42059 42170 42132 42012 41638 41351 41311 41425 41636 41787 41818 41643 41433 41161 40996 40976 41111 41371 41646 41856 41953 41243 40804 40619 40648 40833 41031 41240 41472 41475 40806 40293 40313 40464 40662 40855 41053 41263 41181 40880 40561 40315 40309 40415 40575 40725 40828 40592 40126 39842 39905 40093 40284 40404 40553 40507 40404 40430 40478 40250 40197 40268 40393 40424 40231 40155 40232 40289 40156 40142 40293 40462 40398 40224 40221 40355 40607 40769 40587 40439 40320 40116 40044 40142 40255 40432 40444 40447 40587 40519 40342 40295 40414 40633 40863 41059 41021 40731 40413 40322 40402 40535 40694 40848 40914 40736 40478 40347 40308 40376 40527 40756 40972 41164 41099 40724 40484 40484 40619 40780 40910 41066 41162 40981 40580 40513 40689 40885 41012 41186 41404 41444 41311 41188 41147 41153 41236 41297 41331 41337 41198 41023 40915 40999 41210 41381 41458 41524 41453 41365 41389 41432 41492 41536 41515 41570 41585 41398 41353 41370 41399 41380 41544 41748 41857 41769 41693 41693 41857 41976 42053 41976 41948 41855 41757 41741 41812 41964 42001 41876 41896 42015 41883 41743 41727 41853 42074 42233 42340 42302 41972 41619 41503 41550 41654 41733 41821 41812 41690 41429 41202 41169 41329 41607 41861 41970 42122 41939 41559 41295 41281 41381 41515 41658 41752 41673 41289 41074 40995 40995 41118 41306 41553 41773 41664 41273 40911 40830 40877 41009 41130 41284 41372 41025 40560 40507 40637 40740 40853 40990 41194 41253 41080 40837 40659 40698 40773 40886 41047 41131 40984 40814 40600 40557 40737 40849 40973 41080 41034 40903 40936 40908 40914 40901 40879 40916 40873 40691 40660 40751 40767 40763 40850 40956 40913 40754 40714 40822 41015 41094 41194 41187 41226 41075 40859 40727 40794 40953 41106 41156 41267 41423 41258 41174 41189 41359 41571 41684 41840 41851 41661 41421 41299 41310 41411 41595 41737 41742 41666 41502 41457 41402 41421 41605 41829 42044 42129 41970 41628 41407 41379 41379 41532 41721 41868 41867 41545 41455 41531 41601 41691 41839 42020 42184 42072 41863 41610 41517 41527 41567 41620 41769 41824 41442 41167 41165 41223 41257 41343 41562 41864 41886 41654 41555 41562 41667 41777 41904 41973 41961 41766 41424 41189 41193 41300 41395 41527 41656 41590 41566 41508 41625 41705 41693 41687 41718 41546 41309 41269 41378 41480 41610 41781 41834 41769 41573 41502 41580 41641 41864 41847 41798 41731 41448 41217 41224 41348 41414 41400 41431 41575 41461 41244 41175 41281 41423 41525 41575 41507 41279 40871 40621 40615 40769 40985 41040 41145 41238 41128 40914 40833 40976 41253 41485 41595 41727 41534 41184 40921 40848 40926 41095 41277 41333 41286 41032 40834 40674 40756 40940 41201 41426 41463 41381 40983 40725 40662 40747 40889 41065 41220 41170 40853 40659 40702 40787 40945 41145 41374 41563 41474 41211 40983 40938 40982 41089 41219 41291 41259 40996 40860 40934 41224 41559 41849 42069 42281 42203 42041 42005 42023 42163 42328 42363 42405 42237 41934 41692 41513 41466 41507 41675 41903 42038 41991 41955 42038 42218 42274 42265 42238 42229 42050 41985 42002 42080 42020 41937 41994 42029 41898 41722 41751 41894 41995 42110 42153 42132 42001 41754 41636 41709 41899 42082 42145 42138 42189 42062 41841 41863 41990 42183 42411 42544 42612 42392 42073 41964 42041 42199 42357 42489 42526 42349 42090 41951 41927 42012 42098 42208 42370 42452 42221 41858 41583 41505 41594 41737 41875 41992 41771 41272 41024 40964 40994 41097 41274 41488 41645 41376 41030 40675 40495 40399 40410 40552 40763 40701 40202 39885 39836 39885 40051 40254 40506 40644 40494 40285 40239 40244 40243 40261 40298 40292 40064 39848 39749 39541 39583 39711 39809 39780 39627 39556 39709 39898 40071 40126 40124 40111 39905 39650 39563 39650 39837 39897 39888 39953 39896 39722 39609 39712 39991 40268 40399 40498 40459 40206 40032 40011 40139 40228 40380 40414 40351 40140 40020 39985 40080 40323 40585 40831 41117 41182 40907 40641 40569 40680 40820 40969 41121 41232 41007 40664 40618 40748 40869 40958 41122 41278 41273 41146 41034 41042 41062 41093 41171 41261 41201 40999 40885 40828 40821 40876 40947 40939 41017 40969 40989 41141 41294 41365 41358 41390 41395 41215 41070 41096 41199 41215 41222 41213 41148 40931 40819 40951 41180 41462 41662 41746 41699 41489 41135 40944 40973 41094 41334 41513 41506 41444 41273 41025 40944 41064 41277 41515 41756 41812 41605 41123 40810 40725 40745 40875 41072 41198 41080 40772 40631 40561 40607 40852 41070 41282 41388 41099 40562 40279 40221 40258 40387 40583 40793 40694 40259 40037 40078 40145 40274 40515 40747 40924 40711 40465 40221 40162 40185 40236 40336 40515 40520 40222 39851 39868 40061 40176 40275 40506 40512 40353 40214 40192 40154 40053 40027 40113 40108 39952 39921 39873 39818 39980 40152 40223 40356 40277 40253 40383 40522 40571 40516 40507 40493 40311 40193 40305 40480 40537 40547 40554 40568 40393 40298 40390 40631 40892 40957 41026 40919 40735 40409 40294 40428 40724 40970 40953 40956 41024 40917 40778 40810 40961 41205 41418 41595 41525 41274 41010 40940 41040 41213 41424 41614 41604 41463 41302 41211 41165 41279 41474 41696 41866 41937 41572 41178 40998 41039 41152 41351 41599 41761 41460 41119 41047 41121 41250 41419 41616 41837 41976 41777 41469 41297 41315 41391 41534 41662 41839 41682 41255 41060 41190 41334 41441 41573 41738 41687 41512 41449 41364 41340 41379 41469 41550 41487 41388 41318 41263 41398 41566 41729 41764 41815 41671 41604 41640 41759 41774 41757 41679 41589 41345 41241 41350 41552 41563 41530 41599 41668 41538 41390 41454 41652 41886 41927 41916 41836 41606 41309 41208 41295 41497 41714 41730 41751 41806 41613 41420 41379 41509 41735 41975 42062 42127 41732 41332 41176 41216 41351 41559 41752 41751 41509 41227 41129 41151 41264 41461 41689 41886 41859 41482 41041 40909 40918 41020 41146 41335 41490 41230 40914 40831 40969 41037 41139 41319 41480 41450 41157 40915 40849 40896 40979 41073 41174 41254 41124 40885 40542 40763 40998 41149 41224 41220 41113 41143 41243 41388 41342 41323 41379 41415 41247 41127 41186 41339 41291 41210 41316 41486 41411 41274 41243 41362 41598 41726 41643 41548 41224 40966 40937 40997 41225 41456 41425 41496 41499 41279 41058 41020 41157 41399 41652 41824 41877 41586 41289 41169 41212 41310 41458 41623 41629 41387 41227 41206 41231 41361 41494 41665 41800 42011 41659 41239 41072 41156 41277 41418 41610 41678 41272 40947 40952 41043 41160 41315 41522 41710 41694 41266 40882 40786 40894 41046 41159 41337 41458 41171 40568 40535 40731 40886 41018 41219 41390 41284 41085 40876 40772 40769 40804 40875 40928 40860 40708 40623 40486 40539 40556 40465 40471 40512 40513 40670 40775 40819 40813 40780 40844 40814 40637 40615 40676 40768 40767 40747 40870 40974 40840 40767 40865 41021 41165 41325 41271 41218 40960 40677 40567 40717 40908 41006 41071 41111 41073 40838 40667 40757 40942 41159 41314 41412 41358 41092 40829 40797 40925 41098 41272 41407 41360 41174 40990 40863 40821 41009 41254 41525 41734 41727 41332 40995 40853 40868 41062 41221 41351 41428 41086 40787 40720 40774 40834 40981 41210 41444 41513 41220 41080 40991 41026 41099 41174 41268 41340 41169 40940 40826 40974 41206 41354 41460 41565 41474 41399 41389 41491 41514 41543 41573 41644 41664 41537 41548 41490 41394 41422 41552 41648 41630 41509 41511 41668 41852 41945 41825 41776 41649 41427 41356 41428 41663 41854 41716 41503 41578 41574 41433 41417 41517 41750 41971 42074 42042 41733 41318 41169 41263 41448 41624 41725 41532 41505 41353 41278 41268 41373 41510 41734 41877 42022 41692 41291 41079 41023 41085 41148 41258 41376 41238 41077 41170 41422 41649 41904 42092 42286 42365 42108 41892 41872 41946 41973 42028 42112 42080 41648 41235 41092 41139 41256 41381 41470 41617 41551 41473 41486 41564 41652 41685 41680 41723 41632 41469 41379 41395 41449 41522 41650 41753 41726 41533 41480 41547 41736 41760 41637 41557 41446 41183 41116 41232 41368 41396 41326 41353 41433 41221 41015 41064 41289 41549 41801 41877 41803 41485 41197 41109 41196 41400 41573 41633 41623 41491 41305 41203 41232 41400 41656 41860 42043 41953 41520 41195 41112 41180 41333 41517 41645 41610 41212 40828 40724 40800 41010 41206 41388 41520 41425 41117 40901 40861 41011 41157 41308 41456 41500 41174 40919 40865 40967 41125 41330 41529 41652 41437 41154 40999 41006 41082 41205 41333 41469 41352 40990 40808 40902 41086 41260 41407 41581 41712 41525 41360 41223 41230 41255 41284 41354 41406 41246 41128 41141 41189 41213 41307 41414 41515 41371 41165 41223 41399 41576 41623 41531 41420 41145 40920 40945 41136 41353 41402 41373 41431 41431 41310 41203 41260 41458 41669 41861 41860 41695 41314 41178 41219 41390 41566 41741 41772 41671 41419 41296 41295 41383 41550 41755 41953 42128 41906 41470 41232 41252 41371 41558 41760 41902 41763 41389 41169 41208 41341 41467 41637 41860 42012 41820 41566 41374 41400 41487 41572 41721 41834 41677 41321 41083 41139 41358 41563 41720 41837 41675 41512 41484 41547 41604 41657 41710 41812 41714 41559 41582 41662 41617 41623 41666 41770 41806 41691 41570 41725 41960 42209 42220 41982 41789 41431 41247 41329 41409 41655 41837 41806 41769 41473 41203 41136 41230 41308 41373 41356 41333 41078 40758 40726 40824 40924 41015 41404 41658 41392 41127 41057 41156 41256 41315 41326 41386 41408 41199 41052 41038 41083 41053 40972 40820 40615 40231 40037 40024 40030 40079 40090 40096 40088 39872 39631 39554 39539 39572 39562 39554 39529 39364 39106 38979 38969 38988 38996 38968 38932 38818 38583 38446 38414 38415 38426 38393 38366 38261 37995 37818 37787 37795 37776 37754 37703 37635 37423 37249 37189 37195 37201 37188 37171 37129 36970 36795 36727 36727 36737 36741 36731 36710 36608 36441 36373 36408 36456 36488 36500 36490 36430 36270 36177 36214 36290 36325 36331 36312 36233 35970 35791 35820 35931 36016 36054 36027 35984 35782 35608 35646 35719 35727 35594 35467 35372 35222 35265 35449 35640 35684 35604 35498 35418 35282 35252 35442 35723 35941 36009 35906 35827 35656 35296 35136 35153 35257 35406 35535 35625 35672 35578 35562 35592 35668 35696 35783 35831 35838 35696 35564 35575 35681 35790 35868 35915 35934 35820 35607 35549 35583 35599 35571 35538 35517 35474 35350 35351 35450 35508 35531 35519 35523 35557 35443 35424 35525 35691 35809 35851 35865 35828 35645 35514 35542 35657 35739 35789 35785 35807 35660 35524 35506 35563 35640 35756 35835 35869 35819 35668 35604 35674 35738 35793 35827 35834 35800 35640 35534 35531 35528 35524 35518 35567 35634 35545 35437 35408 35441 35516 35626 35671 35726 35624 35507 35486 35611 35754 35842 35873 35917 35928 35850 35872 35970 36065 36144 36179 36188 36160 36009 35920 35943 36014 36074 36120 36093 36023 35865 35757 35758 35867 36000 36099 36165 36187 36170 35969 35799 35800 35843 35927 36050 36134 36138 35976 35859 35787 35734 35822 35960 36113 36316 36344 36338 36432 36547 36624 36685 36800 36963 36990 36820 36764 36782 36746 36717 36616 36428 36171 35734 35485 35475 35571 35647 35716 35760 35788 35645 35442 35479 35721 35901 36000 36081 36081 35975 35651 35464 35484 35577 35620 35654 35680 35757 35737 35704 35703 35706 35697 35655 35515 35389 35242 35124 35159 35303 35459 35609 35699 35819 35895 35807 35698 35772 35910 35984 35955 35895 35799 35699 35532 35516 35611 35722 35867 35941 35984 35914 35518 35149 34995 35001 35193 35413 35751 36206 36531 36560 36513 36683 36757 36688 36765 37111 37540 37780 37933 38035 38114 38274 38463 38615 38659 38570 38480 38408 38422 38404 38453 38592 38693 38771 38776 38896 39164 39442 39585 39618 39751 39884 39914 39816 39753 39722 39727 39671 39699 39876 40096 40024 39921 39917 40030 40270 40416 40467 40445 40362 40223 40197 40262 40311 40358 40366 40262 40149 40051 40049 40114 40207 40396 40596 40824 41031 41006 40601 40381 40377 40503 40641 40733 40729 40655 40320 39867 39566 39548 39486 39720 40090 40346 40432 40159 39906 39689 39688 39776 39851 39960 39985 39720 39310 39127 39156 39187 39263 39327 39455 39536 39224 38905 38808 38858 38989 39111 39118 39043 38915 38525 38254 38139 38045 37925 37852 37843 37822 37651 37442 37293 37227 37233 37255 37219 37307 37459 37228 36844 36596 36514 36485 36271 36068 35919 35757 35374 35100 35046 35041 35065 35125 35267 35356 35283 34994 34818 34827 35112 35318 35382 35369 35247 34923 34449 34124 34055 34056 34155 34255 34336 34364 34149 33911 33991 34220 34418 34556 34612 34627 34594 34487 34523 34571 34691 34764 34737 34630 34451 34314 34159 34097 34036 33874 33949 34282 34666 34946 35151 35267 35234 35290 35570 35998 36440 36831 36983 36737 36535 36641 36807 36956 37130 37231 37318 37162 36858 36677 36728 36878 37023 37175 37480 37795 37885 37776 37532 37507 37621 37848 38045 38204 38238 38106 37859 37861 37960 38036 38189 38352 38596 38673 38618 38332 38171 38245 38391 38517 38612 38659 38552 38498 38475 38453 38448 38552 38768 39005 39178 39261 38927 38643 38582 38667 38788 38946 39090 39072 38937 38766 38717 38708 38723 38862 39062 39294 39469 39494 39027 38698 38624 38658 38746 38923 39050 39105 38889 38602 38523 38525 38609 38788 39018 39244 39339 39236 38787 38421 38340 38467 38620 38836 39028 39019 38725 38393 38253 38237 38337 38534 38754 38940 39052 38870 38327 37962 37951 38092 38272 38480 38646 38573 38386 38110 38039 38068 38179 38367 38663 38917 39043 38801 38253 37939 37957 38146 38322 38572 38769 38785 38461 38121 38039 38155 38277 38427 38626 38836 38966 38954 38441 38083 38059 38230 38423 38632 38858 38995 38837 38548 38414 38497 38620 38778 38946 39164 39329 39488 39228 38940 38820 38882 39034 39230 39444 39580 39429 39170 39026 39146 39260 39356 39520 39688 39866 40008 39731 39395 39231 39308 39472 39615 39783 39956 40016 39762 39557 39543 39668 39797 39895 40032 40213 40359 40449 40090 39746 39695 39816 39990 40128 40263 40370 40306 39802 39580 39660 39884 40014 40122 40251 40402 40448 40238 39808 39593 39650 39795 39911 40049 40212 40290 39909 39466 39449 39643 39812 39876 39964 40137 40274 40184 39958 39592 39472 39515 39627 39708 39795 39887 39749 39406 39135 39201 39417 39643 39754 39827 39930 39815 39598 39239 39122 39127 39195 39247 39337 39410 39192 38874 38798 39059 39442 39847 40205 40480 40638 40518 40231 40026 39973 40083 40185 40225 40181 40181 39957 39633 39288 39131 39237 39494 39724 39878 40052 40039 39891 39783 39617 39565 39577 39676 39750 39822 39743 39541 39329 39189 39325 39550 39699 39770 39863 39836 39681 39634 39644 39590 39627 39693 39793 39884 39843 39720 39671 39629 39561 39659 39822 39968 40028 39960 39795 39819 39872 39958 39967 39978 40071 40217 40229 40107 40052 40068 40050 40034 40094 40250 40362 40276 40150 40157 40286 40411 40417 40396 40371 40376 40273 40167 40214 40366 40444 40327 40392 40570 40687 40594 40502 40487 40618 40716 40817 40790 40753 40717 40591 40478 40545 40662 40770 40687 40661 40819 40925 40734 40588 40594 40753 40945 41029 41025 40953 40837 40619 40501 40532 40718 40898 40932 40761 40810 40892 40810 40654 40649 40811 41028 41207 41288 41196 40949 40578 40399 40408 40546 40725 40837 40686 40562 40442 40298 40144 40113 40285 40542 40750 40833 40809 40393 39894 39682 39728 39866 40106 40331 40373 40179 39893 39702 39638 39618 39744 39956 40215 40367 40453 39976 39470 39249 39256 39384 39589 39738 39783 39541 39153 38957 38920 38990 39204 39449 39643 39749 39590 39118 38739 38635 38713 38852 38997 39151 39245 39004 38706 38610 38619 38760 39002 39313 39605 39742 39436 38895 38576 38546 38628 38758 38925 39124 39199 38806 38497 38470 38618 38774 38961 39210 39480 39656 39430 38985 38778 38804 38903 38997 39118 39306 39284 38817 38656 38781 38933 39085 39257 39482 39686 39664 39355 39050 38940 39026 39190 39326 39508 39684 39553 39168 39076 39227 39477 39580 39730 39902 40067 39953 39814 39576 39506 39626 39767 39892 40049 40033 39837 39535 39488 39702 39884 39991 40109 40236 40208 40140 40105 40015 40026 40091 40192 40256 40335 40152 39942 39733 39817 40037 40145 40222 40289 40234 40167 40283 40479 40527 40542 40550 40625 40651 40560 40469 40460 40430 40513 40673 40821 40889 40927 40803 40740 40837 41034 41009 40928 40862 40891 40687 40522 40532 40652 40651 40694 40834 40984 41053 40888 40715 40698 40874 41115 41202 41118 41056 40908 40625 40467 40554 40715 40810 40753 40820 40946 40865 40640 40509 40603 40793 41021 41124 40988 40793 40400 40162 40139 40327 40562 40696 40601 40567 40538 40355 40120 40028 40135 40362 40573 40722 40577 40064 39554 39391 39489 39689 39952 40097 40051 39832 39540 39386 39350 39433 39620 39915 40179 40374 40303 39732 39363 39315 39462 39614 39833 40026 40088 39772 39372 39294 39436 39625 39784 39984 40186 40365 40236 40071 39778 39656 39754 39905 40103 40210 40174 39918 39777 39642 39579 39448 39664 40016 40240 40167 39981 39928 40067 39893 39804 39876 40012 40111 39885 39720 39620 39645 39807 39914 39956 40050 39911 39763 39840 39993 40185 40451 40631 40502 40393 40194 39973 39931 39994 39968 39932 39852 39828 39767 39525 39375 39381 39370 39319 39317 39318 39257 39176 39063 38986 38942 38951 39025 39030 38975 38847 38529 38158 37959 37897 37939 38017 38088 38183 38276 38234 38305 38490 38681 38832 39028 39227 39494 39603 39366 39098 38982 38990 38837 38564 38260 38024 37674 37409 37374 37541 37783 38015 38296 38758 39015 38845 38668 38748 39034 39372 39540 39554 39511 39404 39100 38697 38446 38495 38724 38884 38917 38992 39093 38988 38860 38862 39073 39406 39716 39945 39972 39704 39366 39195 39240 39305 39411 39505 39595 39509 39161 38870 38882 39008 39097 39122 39247 39529 39601 39337 39129 38975 39013 39089 39209 39314 39416 39359 39220 39130 39160 39298 39454 39581 39666 39717 39605 39547 39601 39686 39788 39889 39991 40062 39968 39677 39466 39436 39547 39645 39703 39830 40072 40112 40067 40004 40045 40212 40429 40633 40728 40681 40400 40117 39994 39925 39898 39959 40098 40240 40137 39975 39893 39873 39910 40006 40192 40439 40668 40633 40315 40114 40071 40121 40060 39995 40044 40141 39962 39674 39499 39311 39252 39340 39660 40069 40350 40251 40282 40470 40778 41095 41327 41415 41475 41431 41224 41077 41149 41329 41502 41658 41767 41861 41661 41167 40915 40762 40796 40897 41022 41161 41191 41069 40831 40667 40553 40585 40643 40747 40883 41046 40955 40777 40689 40701 40797 40886 41007 41101 41121 40875 40738 40763 40801 40839 40877 40920 40958 40857 40622 40516 40573 40682 40793 40891 40992 41074 40929 40702 40619 40625 40701 40667 40558 40372 40284 39952 39705 39626 39689 39783 39769 39816 39879 39865 39617 39429 39351 39353 39296 39192 39092 39019 38825 38469 38240 38131 38068 38005 37890 37848 37867 37575 37092 36837 36771 36874 37119 37445 37669 37994 37958 37555 37256 36981 36699 36409 36181 36131 36144 36080 36131 36280 36417 36452 36322 36153 35999 35684 35259 34980 34970 35150 35430 35724 35994 36172 36050 35634 35220 34918 34692 34522 34479 34674 34965 35161 35236 35320 35377 35420 35394 35366 35300 35164 34790 34426 34211 34131 34140 34269 34373 34428 34394 34188 33980 33834 33651 33501 33430 33486 33601 33657 33798 33993 34336 34659 34893 35174 35497 35506 35420 35624 36078 36611 37054 37328 37323 37395 37497 37404 37172 37023 37085 37204 37268 37442 37613 37565 37381 37291 37482 37799 38028 38251 38357 38461 38368 38197 38024 37967 38091 38344 38473 38553 38715 38629 38477 38458 38612 38912 39178 39351 39359 39151 38875 38676 38574 38520 38590 38752 38896 38878 38686 38599 38521 38568 38740 39028 39329 39549 39595 39157 38792 38655 38651 38595 38598 38731 38884 38691 38342 38257 38342 38428 38528 38760 39025 39226 39016 38512 38164 38152 38235 38287 38295 38339 38329 37993 37683 37688 37888 38119 38244 38384 38570 38558 38311 38105 37998 38052 38152 38188 38165 38154 37918 37692 37532 37571 37777 38044 38183 38249 38196 37923 37880 38006 38079 38041 38040 38095 38123 37846 37567 37564 37725 37884 37967 38008 38150 38324 38223 38053 38118 38405 38728 38971 38922 38770 38579 38332 38224 38262 38444 38692 38845 38953 38887 38558 38293 38379 38635 38890 39104 39449 39816 39973 39770 39127 38792 38804 39028 39273 39432 39475 39576 39536 39210 38792 38833 39153 39500 39749 39867 40028 40085 40112 39977 39654 39557 39634 39816 40040 40146 40051 39948 39909 39694 39610 39622 39808 40101 40158 40007 40040 40174 40390 40306 40135 40197 40348 40410 40276 40149 40152 40293 40252 40038 40026 40081 40237 40210 40143 40192 40430 40678 40707 40369 40263 40070 39877 39891 39975 40002 40047 40115 40121 40070 39809 39526 39424 39406 39482 39629 39784 39828 39752 39397 39001 38868 38806 38757 38649 38546 38432 38218 37737 37381 37334 37494 37792 38061 38172 38256 38164 37794 37563 37614 37665 37700 37672 37713 37687 37384 36838 36510 36397 36372 36362 36329 36280 36223 35970 35723 35659 35749 35870 35971 36055 36101 36185 36042 35829 35840 35944 36046 36084 36081 36015 35818 35343 34902 34732 34763 34840 34962 35096 35232 35342 35326 35362 35495 35596 35624 35659 35629 35683 35679 35602 35600 35631 35635 35610 35552 35347 35130 34814 34521 34369 34319 34287 34326 34371 34412 34408 34465 34669 34906 35084 35172 35218 35252 35226 35240 35143 35160 35291 35436 35549 35550 35544 35484 35356 34972 34636 34444 34374 34417 34550 34727 34911 35053 35084 35255 35570 35868 36076 36164 36142 36134 36059 35909 35796 35818 35881 35845 35713 35618 35564 35453 35177 34992 34951 35016 35084 35133 35210 35309 35320 35304 35429 35621 35815 35928 35960 35900 35878 35755 35615 35598 35704 35850 36020 36128 36212 36221 36144 36139 36309 36618 36923 37211 37463 37693 37826 37825 37882 38060 38267 38467 38624 38768 38873 38901 38816 38805 38886 39011 39157 39275 39339 39420 39414 39305 39259 39321 39454 39552 39641 39700 39782 39715 39584 39518 39589 39706 39810 39877 39915 39962 39856 39726 39678 39746 39852 39930 39978 40011 40042 39919 39765 39748 39825 39933 40009 40064 40088 40100 39912 39776 39771 39879 39979 40057 40078 40117 40085 39866 39746 39781 39876 40023 40084 40114 40153 40135 39914 39756 39787 39889 39984 40050 40060 40082 40018 39796 39650 39661 39790 39889 39944 39986 40010 39982 39753 39607 39627 39742 39851 39912 39930 39969 39935 39705 39567 39591 39705 39803 39868 39890 39926 39897 39661 39536 39558 39679 39806 39863 39887 39926 39912 39675 39532 39571 39667 39788 39843 39885 39916 39932 39697 39597 39639 39756 39895 39976 40011 40065 40069 39885 39759 39801 39921 40065 40138 40203 40242 40276 40134 40003 40030 40143 40261 40351 40409 40444 40486 40379 40261 40256 40357 40483 40579 40641 40674 40741 40636 40528 40484 40570 40667 40782 40848 40876 40924 40867 40717 40684 40757 40857 40966 41035 41077 41107 41091 40929 40840 40872 40971 41081 41132 41177 41201 41181 41029 40916 40928 41010 41099 41160 41191 41214 41220 41049 40907 40890 40981 41095 41159 41204 41221 41235 41079 40932 40923 40987 41094 41151 41180 41202 41229 41046 40866 40825 40901 41008 41084 41105 41137 41149 40980 40759 40696 40788 40907 40999 41028 41035 41076 40923 40678 40593 40646 40747 40828 40854 40866 40893 40800 40520 40387 40431 40537 40621 40665 40665 40671 40632 40344 40170 40170 40273 40396 40423 40441 40469 40469 40214 40008 40000 40089 40222 40256 40289 40307 40319 40132 39890 39835 39913 40040 40105 40135 40146 40171 40027 39763 39684 39743 39878 39977 40025 40056 40096 40049 39777 39645 39693 39828 39939 40005 40024 40055 40074 39821 39620 39622 39737 39832 39896 39940 39969 40048 39907 39752 39747 39883 40029 40152 40233 40293 40356 40335 40140 40055 40097 40228 40328 40387 40424 40438 40420 40175 40026 40051 40182 40295 40442 40583 40660 40562 40173 39638 39230 38978 39035 39162 39285 39350 39391 39400 39324 39276 39298 39387 39453 39433 39352 39286 39219 38958 38797 38841 39002 39190 39375 39519 39651 39745 39636 39457 39259 39151 39133 39149 39197 39226 39301 39335 39244 39216 39286 39434 39584 39691 39749 39756 39735 39523 39302 39131 39081 39122 39201 39290 39396 39539 39501 39319 39123 39065 39090 39112 39123 39050 39045 39057 38864 38751 38783 38924 39141 39291 39455 39570 39632 39560 39345 39270 39270 39342 39392 39433 39386 39383 39412 39234 39160 39210 39315 39470 39541 39543 39544 39554 39388 39098 38897 38808 38819 38913 38992 39103 39241 39395 39235 39147 39026 38969 38963 38958 38891 38811 38766 38549 38365 38326 38473 38652 38840 39047 39209 39385 39539 39432 39372 39436 39596 39761 39905 40033 40119 40229 40206 40018 39969 40052 40187 40322 40402 40465 40518 40523 40290 40091 40070 40181 40290 40406 40460 40520 40566 40419 40194 40138 40235 40401 40554 40701 40795 40837 40761 40382 39937 39577 39288 39125 39115 39163 39235 39341 39262 39087 38993 39038 39158 39285 39363 39434 39455 39442 39142 38869 38665 38643 38728 38857 38966 39084 39189 39162 38986 38929 38980 39030 39043 38980 38920 38932 38911 38747 38654 38719 38900 39125 39334 39471 39555 39644 39559 39345 39148 39008 38964 38997 39057 39103 39198 39316 39317 39252 39293 39352 39403 39421 39352 39296 39227 39112 38860 38696 38688 38788 38894 39026 39091 39145 39245 39359 39516 39767 39944 40054 40064 40104 40205 40348 40440 40378 40349 40466 40668 40952 41185 41345 41471 41521 41455 41182 40931 40686 40590 40753 41027 41166 41254 41316 41194 40935 40753 40670 40678 40714 40732 40703 40651 40578 40298 39975 39810 39801 39929 40026 40132 40186 40233 40260 40032 39799 39671 39614 39577 39566 39589 39618 39689 39778 39626 39435 39358 39408 39554 39688 39801 39853 39901 39904 39621 39281 39083 39089 39216 39304 39381 39437 39507 39556 39386 39193 39146 39178 39231 39282 39328 39340 39381 39384 39201 39011 38936 39014 39132 39257 39376 39428 39486 39554 39400 39256 39235 39346 39535 39678 39820 39893 39865 39769 39501 39228 39086 39121 39227 39312 39374 39377 39392 39419 39292 39078 38979 39013 39131 39196 39250 39238 39283 39316 39238 39053 38969 39032 39147 39249 39326 39389 39439 39506 39455 39300 39253 39302 39432 39535 39641 39691 39734 39812 39807 39641 39579 39615 39743 39861 39944 39998 40020 40074 40103 39932 39796 39807 39879 39956 40035 40039 40052 40052 40081 39942 39827 39768 39826 39921 39979 39995 40018 40056 40074 39995 39851 39795 39853 39958 40038 40107 40139 40192 40241 40208 40085 40023 40064 40173 40278 40369 40401 40421 40460 40427 40252 40126 40121 40202 40267 40315 40332 40360 40383 40427 40295 40151 40132 40216 40315 40376 40448 40478 40508 40478 40226 39950 39813 39853 39906 39950 39925 39867 39802 39790 39659 39446 39346 39396 39532 39655 39787 39912 40009 40113 40114 39978 39944 40071 40228 40383 40500 40580 40562 40513 40281 39881 39614 39527 39572 39696 39793 39851 39860 39808 39690 39381 39180 39152 39192 39177 39116 39099 39135 39206 39164 38915 38739 38695 38799 38904 38986 39079 39152 39244 39263 39011 38813 38736 38665 38653 38666 38672 38716 38773 38859 38726 38646 38651 38773 38901 39022 39103 39137 39113 39094 38914 38697 38589 38590 38683 38751 38786 38799 38804 38816 38746 38541 38413 38421 38492 38591 38655 38710 38756 38830 38867 38728 38612 38617 38709 38857 38962 39050 39104 39165 39240 39162 38950 38842 38852 38938 39037 39104 39159 39212 39266 39313 39198 39084 39085 39147 39120 39091 39069 39060 39050 39091 39017 38865 38760 38767 38828 38897 38946 38984 39025 39119 39185 39146 39111 39174 39285 39466 39519 39483 39473 39489 39538 39537 39427 39357 39398 39520 39642 39755 39813 39862 39888 39905 39794 39651 39568 39577 39708 39873 40062 40250 40431 40595 40744 40778 40783 40875 41012 41171 41302 41386 41455 41507 41586 41573 41435 41326 41335 41409 41491 41557 41583 41617 41674 41722 41645 41455 41360 41384 41481 41554 41598 41614 41635 41666 41689 41515 41345 41288 41332 41428 41492 41519 41526 41545 41581 41503 41254 41102 41088 41171 41247 41280 41302 41330 41335 41369 41157 40910 40817 40840 40938 41007 41022 41043 41045 41064 41041 40794 40572 40534 40595 40697 40746 40761 40759 40775 40805 40715 40428 40277 40284 40390 40484 40523 40533 40553 40576 40630 40438 40180 40099 40149 40260 40366 40411 40439 40453 40518 40511 40281 40082 40042 40125 40247 40331 40365 40378 40428 40482 40444 40215 40052 40071 40179 40285 40335 40370 40388 40428 40480 40409 40192 40073 40097 40203 40295 40360 40391 40413 40452 40506 40393 40204 40128 40180 40293 40377 40430 40473 40528 40570 40616 40502 40332 40291 40360 40480 40580 40635 40682 40738 40808 40849 40689 40574 40551 40636 40754 40867 40932 40952 41009 41076 41122 40969 40850 40854 40936 41059 41159 41212 41253 41294 41352 41387 41250 41119 41103 41191 41283 41356 41412 41427 41478 41522 41547 41399 41262 41223 41306 41389 41459 41506 41517 41553 41608 41642 41478 41342 41322 41394 41483 41539 41592 41616 41649 41702 41732 41590 41440 41407 41474 41563 41632 41687 41701 41731 41769 41826 41674 41499 41452 41489 41593 41676 41710 41743 41756 41805 41842 41701 41501 41424 41447 41562 41616 41654 41680 41680 41708 41753 41652 41416 41270 41294 41363 41456 41477 41472 41490 41516 41530 41490 41242 41044 41028 41099 41182 41224 41226 41213 41234 41282 41261 41030 40809 40763 40834 40938 40984 40995 41014 41046 41087 41092 40908 40684 40596 40675 40789 40849 40866 40887 40902 40943 40981 40832 40611 40497 40531 40644 40728 40765 40772 40780 40817 40858 40771 40512 40403 40421 40535 40621 40659 40690 40713 40761 40804 40789 40556 40404 40399 40491 40598 40655 40669 40690 40726 40774 40803 40653 40449 40401 40468 40573 40691 40848 40938 41042 41187 41347 41337 41056 40927 40860 40899 40942 40990 41014 41054 41107 41154 41164 40999 40895 40915 41010 41133 41206 41276 41313 41362 41433 41479 41363 41193 41167 41213 41312 41397 41451 41466 41524 41635 41745 41753 41622 41606 41650 41756 41850 41929 41993 42026 42074 42110 42168 42041 41909 41895 41970 42065 42113 42154 42168 42203 42239 42311 42229 42039 41907 41889 41917 41935 41944 41904 41941 42000 42089 42089 41915 41759 41687 41717 41766 41782 41796 41802 41811 41845 41862 41705 41517 41441 41462 41546 41602 41607 41623 41693 41761 41815 41791 41608 41453 41475 41569 41647 41692 41711 41732 41769 41796 41789 41591 41371 41298 41344 41437 41504 41526 41522 41516 41538 41586 41482 41179 41039 41014 41106 41202 41232 41272 41280 41317 41379 41399 41146 40946 40878 40939 41029 41086 41125 41102 41146 41189 41257 41126 40863 40729 40736 40829 40912 40947 40970 40980 41013 41078
