8915 47650 47645 47650 47655 47655 47656 47659 47654 47657 47658 47653 47390 47645 47635 47627 47614 47606 47587 47560 47506 47470 47455 47450 47459 47472 47467 47490 47498 47502 47530 47559 47572 47582 47581 47578 47578 47581 47566 47544 47454 47193 46327 45053 44744 44673 44660 44770 44861 44929 45057 45261 45505 45798 46161 46546 46787 46900 47011 47143 47195 47224 47246 47266 47295 47319 47347 47359 47370 47386 47417 47458 47492 47520 47550 47566 47592 47597 47602 47601 47591 47586 47565 47551 47534 47516 47503 47494 47486 47479 47488 47500 47523 47533 47529 47497 47453 47424 47460 47495 47490 47443 47391 47385 47415 47451 47455 47433 47410 47393 47396 47437 47454 47449 47432 47433 47460 47479 47504 47498 47479 47485 47489 47503 47515 47508 47512 47530 47530 47523 47511 47525 47539 47557 47573 47571 47545 47509 47490 47465 47441 47416 47404 47400 47394 47406 47394 47398 47412 47432 47437 47412 47387 47378 47371 47373 47372 47373 47362 47360 47367 47369 47364 47351 47335 47330 47319 47315 47308 47313 47325 47322 47331 47328 47316 47311 47317 47330 47349 47372 47375 47383 47378 47373 47365 47364 47364 47376 47385 47386 47397 47155 47158 47164 47170 47176 47181 47186 47185 47189 47190 47196 47186 47169 47168 47159 47133 47106 47072 47063 47034 47004 46980 46944 46893 46862 46818 46769 46715 46692 46663 46635 46613 46594 46573 46540 46507 46483 46457 46443 46442 46431 46437 46426 46375 46351 46380 46405 46414 46424 46441 46533 46622 46644 46610 46577 46539 46533 46627 46739 46778 46757 46751 46772 46838 46922 46973 46993 46978 46896 46853 46885 46911 46928 46932 46929 46886 46831 46824 46850 46867 46898 46909 46913 46893 46891 46882 46866 46862 46874 46885 46884 46896 46912 46912 46925 46942 46965 46985 47009 47052 47101 47147 47195 47224 47257 47279 47293 47302 47303 47295 47287 47273 47238 47205 47188 47165 47146 47125 47122 47123 47127 47134 47143 47153 47162 47168 47171 47182 47181 47192 47200 47206 47203 47215 47210 47210 47210 47213 47229 47238 47241 47251 47256 47262 47262 47257 47267 47274 47273 47276 47279 47272 46875 46849 46738 46689 46619 46598 46591 46581 46640 46686 46723 46796 46817 46885 46940 46995 47101 47108 47112 47115 47121 47118 47129 47131 47126 47126 47131 47117 47131 47123 47114 47118 47121 47126 47121 47131 47127 47124 28711 28702 28700 28692 28705 28722 28707 28734 28754 28771 28798 28817 28850 28884 28919 28926 28905 28861 28810 28725 28634 28580 28564 28506 28500 28504 28519 28535 28568 28607 28634 28678 28735 28804 28838 28890 28937 28993 29038 29065 29088 29083 29107 29119 29123 29142 29159 29197 29182 29211 29202 29151 29130 29113 29092 29057 29032 28989 28982 28949 28984 28982 29027 29034 29047 29039 29015 29034 29059 29074 29072 29078 29109 29116 29123 29160 29176 29202 29235 29273 29287 29288 29273 29241 29228 29213 29228 29203 29206 29220 29189 29193 29177 29192 29191 29189 29166 29121 29077 29024 29001 28984 28978 28972 28956 28950 28934 28906 28889 28866 28850 28825 28764 28725 28667 28626 28596 28585 28581 28567 28535 28548 28557 28588 28585 28587 28575 28549 28555 28613 28642 28645 28618 28610 28636 28696 28763 28836 28921 28991 29002 28968 28896 28851 28822 28825 28828 28823 28815 28827 28811 28849 28865 28899 28906 28887 28817 28761 28727 28742 28744 28775 28778 28755 28721 28698 28675 28658 28683 28707 28718 28674 28628 28561 28492 28434 28444 28441 28461 28543 28512 28466 28462 28448 28458 28475 28464 28458 28379 28356 28362 28402 28438 28494 28537 28505 28503 28508 28554 28596 28672 28737 28809 28846 28866 28843 28841 28812 28854 28887 28939 28972 28959 28927 28962 29060 29142 29190 29250 29315 29395 29431 29449 29465 29453 29421 29431 29454 29495 29479 29430 29422 29379 29381 29338 29366 29427 29465 29482 29429 29397 29343 29281 29295 29333 29408 29442 29436 29438 29423 29429 29444 29469 29480 29505 29548 29586 29614 29612 29558 29563 29591 29675 29691 29710 29719 29671 29581 29578 29562 29582 29592 29600 29580 29568 29564 29550 29538 29565 29539 29465 29405 29308 29235 29175 29183 29182 29180 29204 29184 29211 29222 29249 29279 29308 29318 29297 29311 29236 29201 29206 29236 29253 29296 29326 29357 29350 29366 29374 29392 29362 29372 29409 29412 29425 29381 29403 29345 29343 29358 29392 29445 29531 29611 29613 29597 29585 29579 29600 29652 29738 29818 29846 29863 29838 29839 29839 29857 29891 29975 30003 30068 30073 30099 30071 30037 30079 30114 30111 30089 30061 29983 29988 30015 30045 30093 30123 30204 30203 30154 30105 30112 30118 30160 30215 30248 30176 30083 30029 30061 30098 30129 30210 30301 30384 30400 30300 30316 30391 30447 30536 30626 30592 30546 30484 30412 30480 30513 30553 30610 30674 30692 30693 30640 30632 30614 30585 30599 30617 30589 30567 30446 30385 30432 30503 30520 30551 30546 30558 30531 30482 30481 30444 30443 30488 30553 30573 30568 30550 30424 30382 30382 30420 30457 30474 30441 30407 30398 30399 30365 30359 30326 30296 30262 30195 30126 30037 30018 29987 29941 29976 30014 30095 30185 30204 30205 30170 30195 30237 30268 30256 30268 30276 30265 30278 30304 30354 30375 30404 30445 30487 30523 30577 30596 30620 30649 30706 30721 30767 30780 30740 30784 30833 30898 30968 30994 30989 30921 30838 30819 30844 30853 30840 30835 30746 30663 30650 30558 30542 30589 30605 30636 30671 30685 30770 30822 30830 30690 30611 30634 30677 30729 30700 30667 30689 30752 30812 30866 30919 30961 30986 31019 31041 31055 31017 30987 31001 31030 31071 31089 30987 30928 30870 30907 30953 30994 31049 31082 31098 31068 31071 31078 31086 31189 31245 31269 31270 31142 31101 31091 31147 31235 31333 31393 31438 31409 31342 31338 31431 31494 31575 31599 31576 31522 31445 31417 31382 31357 31350 31361 31346 31331 31264 31207 31166 31070 31035 31061 31076 31020 30947 30851 30854 30817 30813 30800 30770 30723 30660 30581 30514 30510 30612 30659 30808 30805 30873 31055 31231 31143 30946 30810 30843 31201 31536 31706 31603 31364 31133 31071 31083 31422 31283 31376 31413 31126 30741 30591 30595 30533 30349 30183 29999 29785 29718 29671 29524 29411 29348 29328 29253 29207 29198 29165 29139 29038 28937 28763 28450 28258 28169 28086 28086 28105 28114 28151 28255 28379 28483 28406 28514 28754 28982 29157 29312 29500 29471 29467 29528 29597 29596 29595 29488 29443 29184 28977 28829 28774 28912 29193 29271 29155 28771 28614 28525 28499 28622 28801 28739 28787 28724 28649 28583 28517 28470 28648 28792 28926 28939 28809 28713 28615 28600 28815 28834 28811 28783 28721 28736 28665 28676 28711 28860 28937 28893 28753 28578 28493 28431 28487 28638 28774 28818 28775 28721 28705 28711 28650 28680 28821 28947 28986 28924 28821 28749 28710 28802 28957 28908 28874 28643 28608 28636 28636 28622 28648 28766 28974 29091 28909 28790 28600 28477 28415 28420 28474 28494 28480 28467 28478 28402 28406 28479 28719 28829 28947 28872 28789 28739 28724 28779 28967 28956 28999 29166 29244 29264 29311 29336 29421 29404 29370 29324 29222 29110 29120 29165 29095 29197 29236 29265 29260 29245 29195 29234 29209 29313 29445 29481 29582 29697 29704 29658 29695 29769 29844 30059 30084 30212 30353 30237 30487 30594 30718 30867 30682 30498 30331 30223 26434 29752 29746 29641 29762 29842 29816 29737 29706 29665 29627 29510 29368 29175 29064 29058 28965 28585 28648 28625 28542 28438 28571 28573 28512 28454 28442 28459 28440 28339 28170 27919 27813 27732 27532 27395 27475 27477 27388 27471 27580 27533 27429 27344 27300 27269 27237 27233 27301 27324 27162 27092 27077 27143 27100 27070 26979 27081 27149 27171 27111 27157 27198 27179 27053 26919 26829 26760 26716 26651 26695 26759 26785 26707 26795 26791 26736 26704 26720 26791 26856 26908 26917 26936 26925 26950 26856 26824 26892 26872 26809 26971 27097 27186 27262 27326 27374 27403 27371 27247 27261 27273 27292 27242 27213 27260 27239 27186 27241 27264 27282 27308 27321 27350 27375 27411 27460 27478 27543 27585 27539 27489 27476 27478 27478 27421 27589 27695 27774 27821 27821 27874 27879 27828 27851 27891 27923 27939 27927 27896 27929 27928 27854 27867 28036 28101 28113 28124 28105 28093 28152 28164 28180 28238 28187 28156 28042 27976 27989 27952 27928 28027 28128 28208 28286 28337 28322 28271 28258 28369 28529 28675 28812 28965 28805 28580 28577 28595 28669 28666 28726 28749 28820 28907 28952 28879 28834 28869 28927 28949 28955 28947 28818 28582 28565 28542 28560 28604 28835 29029 29160 29249 29195 29074 29044 29064 29033 29103 29186 29167 28969 28849 28845 28825 28861 28977 29189 29397 29616 29751 29717 29568 29437 29458 29445 29504 29448 29405 29151 29011 28975 28978 28999 29065 29281 29402 29497 29568 29465 29365 29316 29369 29455 29571 29576 29506 29252 29045 28990 28944 28963 29055 29385 29604 29691 29671 29511 29399 29392 29400 29486 29521 29473 29333 29111 28996 28971 28965 28995 29100 29124 29220 29328 29388 29350 29298 29286 29247 29271 29204 29133 28916 28741 28653 28633 28651 28723 28924 29083 29245 29371 29351 29254 29175 29162 29131 29241 29272 29233 29004 28850 28805 28780 28806 28865 29068 29227 29435 29544 29493 29379 29325 29306 29226 29256 29264 29241 29062 28810 28693 28665 28693 28785 28990 29089 29233 29310 29239 29133 29069 29081 29097 29081 29122 29142 29074 28881 28744 28720 28697 28751 28841 28977 29099 29162 29190 29136 29065 28998 28985 28981 29029 29050 29000 28857 28713 28679 28676 28718 28714 28751 28811 28881 28975 29019 29034 29042 29074 29008 28989 28955 28855 28698 28548 28528 28526 28624 28693 28807 28911 29009 29042 29048 29040 29058 29003 28943 28910 28901 28854 28767 28684 28694 28703 28739 28767 29157 29181 29181 29110 29036 28981 28961 28892 28765 28689 28708 28753 28818 28887 28940 29015 29112 29191 29189 29243 29252 29216 29242 29243 29198 29073 28924 28898 28919 28970 29016 29067 29170 29260 29476 29591 29616 29587 29472 29374 29315 29248 29153 28989 28932 28967 29020 29088 29121 29157 29171 29265 29416 29482 29499 29505 29487 29462 29399 29341 29153 28990 28960 29000 29079 29125 29239 29294 29329 29398 29379 29352 29341 29311 29278 29244 29187 29160 29031 28901 28877 28915 28952 29027 29062 29105 29213 29260 29311 29355 29350 29331 29273 29200 29130 28981 28798 28726 28767 28846 28969 29103 29181 29296 29559 29607 29561 29565 29516 29436 29382 29331 29227 29034 28892 28864 28882 28929 29040 29131 29200 29373 29519 29487 29519 29457 29330 29272 29190 29116 28915 28799 28816 28887 28899 29023 29093 29119 29278 29359 29344 29416 29395 29330 29301 29259 29194 29010 29061 29158 29240 29392 29493 29490 29535 29457 29364 29312 29227 29201 29032 28917 28877 28953 28981 29056 29093 29122 29242 29393 29435 29442 29463 29426 29370 29303 29211 29085 28900 28787 28828 28891 28964 29107 29193 29240 29324 29288 29247 29248 29245 29234 29194 29181 29140 29011 28884 28873 28922 28961 29110 29193 29283 29464 29532 29577 29639 29656 29731 29846 29868 29763 29426 29322 29250 29284 29386 29513 29580 29602 29620 29554 29483 29482 29542 29606 29630 29602 29534 29240 29116 29064 29065 29105 29307 29402 29474 29577 29550 29477 29447 29451 29438 29390 29360 29294 29075 28987 28952 28980 29056 29315 29403 29479 29589 29603 29563 29583 29603 29639 29641 29554 29409 29134 29045 28974 28997 29054 29261 29385 29481 29580 29531 29454 29458 29472 29486 29421 29324 29213 29013 28905 28882 28933 28981 29115 29166 29276 29488 29653 29688 29653 29635 29649 29583 29462 29329 29065 28907 28822 28804 28881 29011 29117 29208 29345 29445 29446 29429 29407 29421 29488 29513 29414 29135 29010 28948 28989 29124 29211 29321 29481 29760 29811 29828 29864 29824 29750 29708 29699 29544 29267 29116 29078 29123 29202 29161 29150 29213 29312 29261 29265 29362 29409 29515 29701 29834 29547 29256 29101 29109 29212 29376 29535 29769 29830 29815 29873 29915 29918 29873 29864 29923 29925 29581 29368 29269 29300 29437 29565 29642 29875 29991 29899 29805 29831 29866 29856 29842 29862 29852 29914 30047 29768 29522 29457 29475 29654 29872 29959 30016 30033 30030 29917 29754 29621 29609 29787 29816 29850 29947 30128 30327 29969 29646 29587 29596 29826 30024 30153 30182 30119 30009 29854 29652 29522 29713 29860 29833 29905 30075 30194 29965 29506 29364 29361 29464 29574 29632 29590 29553 29479 29313 29137 28999 28932 28944 28893 28987 29100 29199 29195 28896 28807 28762 28827 28972 29085 29099 29040 29019 28979 28817 28678 28654 28678 28673 28765 28983 29255 29219 28881 28780 28764 28814 28865 28907 28941 29010 29061 29090 28954 28902 28904 28930 28881 28808 28770 28679 28464 28338 28365 28413 28476 28541 28590 28562 28520 28576 28588 28602 28643 28725 28802 28967 29058 29113 28983 28635 28535 28498 28538 28665 29053 29255 29410 29524 29570 29368 29225 29167 29199 29198 29270 29308 29358 29251 28993 28919 28878 28895 28920 29079 29185 29286 29411 29402 29318 29298 29291 29251 29325 29514 29630 29579 29296 29199 29185 29216 29275 29499 29566 29577 29632 29683 29676 29636 29614 29625 29590 29520 29464 29369 29151 29010 29008 29023 29074 29296 29339 29321 29340 29363 29319 29323 29319 29261 29094 28972 28942 28933 29009 29088 29159 29189 29246 29372 29379 29351 29306 29301 29295 29276 29265 29159 29026 28942 28931 28950 28983 29041 29068 29130 29223 29313 29319 29317 29304 29288 29287 29247 29234 29085 28911 28887 28893 28904 28988 29121 29159 29154 29152 29156 29142 29148 29167 29190 29217 29215 29195 29044 28868 28811 28792 28790 28851 28985 29046 29110 29197 29224 29200 29163 29130 29163 29165 29159 29139 29036 28889 28830 28815 28820 28858 28933 28964 29020 29065 29156 29234 29265 29267 29218 29177 29157 29184 29160 28978 28825 28787 28796 28760 28806 28940 28978 29075 29115 29130 29122 29164 29202 29172 29193 29157 29185 29240 29020 28880 28854 28813 28799 28900 29030 29025 29004 28993 28943 29016 29215 29342 29372 29449 29613 29681 29783 29928 30063 30141 30228 30291 30296 30157 30097 30066 29995 29883 29778 29753 29855 29892 29877 29792 29753 29706 29594 29443 29269 29282 29310 29321 29311 29120 28983 28960 29025 29059 29075 29270 29426 29546 29549 29535 29553 29546 29494 29367 29386 29478 29513 29502 29336 29216 29217 29424 29501 29443 29162 29042 29031 29173 29561 29824 29971 30057 30121 29987 29635 29534 29487 29332 29233 29100 29260 29512 29675 29770 29760 29758 29756 29549 29350 29304 29114 29023 29099 29111 29102 29098 28959 28836 28791 28817 28853 28966 29107 29209 29296 29380 29204 29147 28975 28775 28654 28740 28772 28844 28830 28689 28623 28646 28709 28827 29027 29222 29248 29376 29533 29437 29312 29070 28845 28829 28918 28935 28955 28954 28718 28624 28563 28598 28678 28947 29200 29365 29480 29545 29557 29483 29382 29254 29131 29081 29136 29103 29100 29066 28923 28843 28860 28947 29018 29139 29277 29375 29435 29393 29246 29188 29070 28992 29091 29204 29253 29289 29294 29154 29062 29061 29210 29502 29799 29913 30077 30205 30169 30043 29896 29746 29586 29641 29687 29662 29655 29606 29369 29191 29140 29134 29224 29400 29548 29689 29841 29859 29837 29750 29624 29534 29516 29466 29442 29441 29309 29217 29211 29233 29229 29252 29269 29389 29503 29516 29487 29439 29367 29195 29066 29094 29098 29118 29137 29073 28887 28903 28970 28967 29042 29169 29292 29494 29553 29637 29646 29617 29537 29455 29418 29373 29346 29353 29309 29176 29105 29160 29272 29454 29818 30128 30430 30737 30786 30798 30555 30530 30374 30214 30210 30209 30213 30028 29862 29954 29871 29699 29617 29619 29577 29663 29812 29941 30063 30211 30177 30197 30188 30001 29756 29486 29538 29609 29605 29565 29405 29189 28980 28893 28931 29035 29074 29226 29469 29565 29521 29451 29362 29232 29019 28950 28944 28948 28881 28804 28728 28714 28684 28730 28758 28774 28788 28963 29088 29127 29091 28975 28876 28774 28685 28602 28592 28580 28543 28521 28495 28514 28579 28604 28583 28626 28708 28778 28722 28748 28616 28728 28726 28590 28524 28476 28527 28604 28684 28720 28711 28723 28773 28888 28974 29075 29165 29167 29086 29104 29100 29033 28938 28896 28918 28887 28909 28940 29002 29061 29143 29183 29322 29539 29548 29654 29744 29767 29693 29615 29561 29510 29483 29479 29506 29502 29461 29401 29150 29005 29079 29474 29796 29989 29983 29922 30236 30165 30153 30164 30121 30066 30075 30051 30000 29958 29899 29969 30072 30051 30085 30216 30291 30241 30263 30193 30110 30030 29932 29861 29880 29872 29893 29869 29784 29560 29350 29315 29577 29823 29970 30029 29920 29832 29839 29823 29688 29634 29649 29607 29622 29608 29594 29562 29541 29611 29654 29743 29929 30070 30120 30117 30052 30017 29953 29866 29834 29723 29700 29704 29678 29607 29586 29671 29712 29776 29915 30103 30211 30235 30279 30261 30087 29987 29924 29956 29925 29892 29882 29830 29779 29687 29637 29625 29707 29908 30143 30249 30232 30160 30087 29923 29822 29815 29884 29889 29914 29869 29774 29661 29619 29553 29470 29556 29767 30041 30244 30306 30319 30234 30062 29931 29938 29974 29974 29956 29953 29866 29737 29582 29353 29107 29200 29497 29754 29981 30162 30100 29975 29749 29514 29415 29497 29540 29586 29614 29652 29630 29613 29541 29460 29394 29679 29892 30078 30232 30263 30141 30084 29909 29736 29505 29459 29376 29226 29186 29173 29053 28912 28736 28685 28762 28848 29028 29154 29275 29313 29247 29234 29160 29002 28908 28864 28795 28759 28749 28680 28700 28697 28758 28825 28859 29038 29136 29257 29259 29228 29086 28939 28834 28801 28811 28755 28689 28644 28580 28574 28509 28385 28406 28518 28651 28903 29040 29036 28947 28907 28773 28669 28620 28776 28807 28953 29040 28849 28717 28981 29101 29067 28938 28852 28792 28729 28681 28671 28930 29106 28936 28807 28722 28677 28678 28736 28763 28628 28568 28582 28644 28644 28749 29025 29191 29280 29256 29173 29150 28990 28924 28917 28938 28939 28959 28942 28814 28823 28895 28942 28951 29068 29246 29375 29431 29376 29293 29253 29099 29023 29122 29162 29148 29145 29105 29024 28993 29028 29040 29010 29089 29255 29302 29291 29127 29160 29256 29231 29153 29188 29147 29149 29128 29112 29116 29101 29134 29188 29227 29253 29310 29291 29262 29248 29294 29294 29247 29194 29281 29299 29312 29290 29241 29217 29185 29214 29241 29235 29331 29393 29341 29240 29208 29288 29221 29112 29012 29077 29092 29134 29055 29001 28888 28733 28785 28944 29046 29147 29191 29206 29211 29212 29173 29072 28997 29003 29015 29039 29062 29063 29057 28998 28838 29164 29029 29110 29203 29165 29062 28985 29016 29016 29057 29072 29051 28990 28835 28735 28775 29120 29339 29399 29324 29203 29251 29293 29250 29144 29083 29105 29085 29068 29030 28974 28887 28846 28829 28934 29171 29234 29183 29042 28941 28920 28898 28834 28733 28802 28799 28787 28734 28679 28660 28683 28685 28702 28655 28772 28933 28965 28929 28950 28880 28899 28781 28644 28686 28705 28723 28719 28626 28599 28538 28514 28511 28484 28412 28442 28831 29143 29251 29377 29159 29120 29020 28963 29054 29072 29009 29043 29024 28893 28794 28744 28844 28881 28943 29266 29424 29518 29403 29246 29185 29397 29420 29356 29257 29079 29069 28909 28982 29267 29443 29497 29546 29467 29430 29421 29358 29263 29285 29132 28929 28815 28792 28746 28743 28713 28692 28719 28725 28671 28650 28661 28677 28708 28754 28747 28741 28726 28674 28592 28568 28576 28564 28582 28629 28635 28648 28639 28619 28638 28744 28810 28855 28892 28909 28916 28872 28911 28863 28819 28882 28912 28945 28977 28931 28941 28937 29004 29086 29177 29190 29224 29223 29084 29088 29153 29111 29100 29100 29136 29172 29198 29151 29090 29068 29070 29100 29223 29339 29432 29463 29467 29281 29329 29336 29264 29271 29345 29372 29428 29434 29340 29235 29162 29134 29196 29277 29426 29550 29620 29575 29434 29463 29441 29331 29348 29385 29428 29464 29501 29445 29354 29276 29226 29242 29353 29455 29559 29649 29605 29475 29537 29508 29416 29388 29414 29461 29513 29548 29500 29455 29356 29306 29305 29352 29449 29579 29697 29705 29583 29566 29546 29451 29370 29367 29379 29416 29441 29439 29379 29314 29275 29248 29255 29349 29514 29666 29762 29697 29636 29635 29533 29445 29404 29411 29407 29427 29406 29389 29335 29297 29248 29250 29237 29336 29409 29445 29356 29291 29280 29294 29278 29228 29242 29272 29279 29241 29234 29201 29215 29178 29110 29003 29107 29363 29552 29553 29650 29739 29711 29745 29728 29635 29506 29461 29462 29417 29390 29428 29423 29439 29462 29339 29248 29242 29373 29642 29701 29549 29416 29275 29156 29111 29078 29033 28941 28880 28775 28740 28727 28743 28762 28786 28777 28714 28603 28581 28541 28524 28520 28536 28483 28457 28423 28392 28368 28272 28183 28153 28228 28241 28188 28107 28100 28141 28176 28191 28174 28235 28264 28304 28304 28287 28289 28215 28218 28228 28232 28251 28258 28269 28292 28328 28287 28319 28358 28391 28417 28437 28458 28458 28472 28465 28439 28459 28495 28525 28547 28574 28587 28636 28676 28702 28738 28730 28761 28761 28792 28810 28844 28891 28935 28947 28908 28921 28942 28971 29002 29002 29022 29034 29048 29051 29068 29073 29138 29129 29157 29166 29150 29177 29178 29155 29165 29178 29189 29187 29213 29254 29195 29153 29052 28906 28854 29081 30342 31334 31261 30949 30888 30946 31020 31570 31664 31635 31571 31462 31193 31099 31090 31088 31078 30997 30986 31116 31148 31180 31039 30944 30924 31194 31223 31257 31189 31038 30939 30870 30702 30571 30493 30533 30524 30508 30460 30592 30649 30585 30279 30276 30137 29994 30025 30218 30224 30183 30107 30049 29844 29667 29605 29577 29564 29573 29561 29510 29484 29463 29468 29035 29072 29068 29056 29152 29329 29342 29290 29265 29231 29166 29081 28895 28866 28830 28819 28782 28760 28729 28589 28280 28380 28446 28458 28487 28571 28688 28744 28769 28764 28714 28518 28448 28491 28568 28667 28755 28886 29177 28876 28642 28569 28504 28501 28663 29199 29654 29770 29780 29632 29368 29261 29233 29333 29606 30003 30115 30107 29973 29462 29199 29059 28935 28853 28864 29053 29463 29661 29652 29613 29512 29348 29274 29264 29360 29510 29477 29452 29281 29014 28766 28758 28724 28681 28613 28726 28783 28793 28800 28805 28745 28689 28686 28688 28616 28573 28485 28338 28281 28301 28325 28317 28315 28282 28282 28331 28417 28457 28546 28632 28759 28849 28895 28725 28622 28481 28436 28413 28520 28481 28488 28478 28420 28413 28484 28575 28572 28573 28640 28718 28792 28766 28696 28596 28477 28505 28541 28604 28614 28602 28574 28579 28509 28520 28505 28522 28563 28609 28682 28743 28769 28679 28590 28649 28682 28687 28742 28750 28755 28758 28709 28689 28662 28650 28646 28739 28835 28944 29035 29056 28843 28863 28859 28860 28860 28908 28936 28954 28914 28900 28856 28812 28801 28789 28841 28853 28912 28944 28939 28789 28742 28767 28783 28787 28817 28836 28865 28846 28821 28759 28688 28659 28673 28756 28824 28921 29019 29004 28884 28872 28821 28793 28779 28769 28795 28802 28820 28807 28758 28703 28682 28707 28735 28791 28913 29028 29058 29126 29122 29000 28911 28907 28896 28863 28887 28905 28942 28943 28916 28892 28875 28871 28862 28946 28951 28990 28963 28964 28822 28707 28584 28561 28567 28574 28618 28639 28687 28653 28525 28375 28263 28386 28687 28813 28699 28753 28855 28752 28516 28469 28542 28536 28551 28543 28515 28521 28550 28587 28602 28639 28634 28649 28678 28673 28572 28604 28562 28464 28434 28418 28381 28376 28323 28304 28276 28274 28321 28394 28440 28442 28443 28447 28330 28327 28347 28284 28226 28223 28161 28169 28207 28124 28118 28115 28140 28172 28273 28356 28411 28411 28365 28256 28206 28239 28231 28150 28053 28065 28095 28095 28046 28067 28141 28102 27933 27928 27947 28078 28177 28179 28053 28038 28060 28052 27999 27951 27947 27975 28019 28022 28024 28091 28160 28139 28153 28189 28244 28292 28283 28227 28277 28362 28288 28243 28254 28300 28353 28428 28421 28457 28590 28692 28782 28864 28829 28779 28850 28952 28869 28775 28732 28654 28539 28483 28495 28529 28575 28574 28600 28612 28656 28725 28829 28844 28878 28874 28903 28867 28834 28800 28721 28623 28600 28619 28668 28693 28687 28790 28725 28599 28563 28759 29077 29212 29208 29145 28928 28977 28911 28775 28725 28767 28778 28795 28844 28797 28813 28809 28840 28864 28913 28989 29035 29134 29221 29062 28936 28932 28919 28866 28860 28873 28855 28906 28913 28887 28897 28938 28992 29052 29111 29161 29258 29319 29119 29100 29098 29026 28968 28995 29000 29020 29036 28996 28999 28995 28998 29079 29168 29187 29218 29262 29286 29073 29085 29065 29013 28996 29028 29026 29016 29032 28991 28993 29011 29094 29128 29192 29196 29242 29283 29292 29222 29227 29177 29120 29048 29065 29057 29054 29007 29009 29004 29029 29022 29066 29078 29039 29032 29019 29023 29018 29015 29020 29041 28930 28853 28953 28894 28771 28799 28971 29015 29051 29088 29046 28973 28955 28943 28908 28852 28810 28836 28891 28814 28764 28754 28752 28711 28713 28756 28813 28854 28876 28854 28888 28942 28942 28905 28769 28764 28753 28692 28577 28510 28452 28457 28474 28425 28425 28437 28414 28425 28443 28444 28487 28534 28547 28319 28392 28343 28273 28233 28212 28197 28212 28212 28201 28216 28151 28133 28156 28184 28222 28278 28344 28265 28199 28200 28124 27979 27902 27934 27948 27961 27969 27973 27977 27941 27898 27893 27901 27977 28065 28118 28108 28020 28043 27972 27901 27852 27799 27828 27881 27924 27964 27987 27959 27947 27995 28068 28252 28357 28417 28448 28415 28418 28281 28222 28137 28070 28056 28064 28089 28103 28100 28122 28162 28163 28188 28207 28277 28489 28767 28900 28890 28808 28805 28616 28560 28445 28475 28541 28585 28589 28556 28565 28526 28489 28457 28460 28466 28506 28625 28686 28760 28732 28762 28680 28631 28664 28691 28639 28648 28687 28666 28691 28704 28737 28726 28708 28771 28837 28867 28888 28860 28874 28763 28716 28683 28672 28695 28702 28760 28747 28732 28719 28685 28680 28698 28787 28943 29144 29302 29327 29147 29065 28976 28885 28866 28888 28859 28863 28882 28840 28811 28747 28683 28652 28713 28834 28928 29040 29090 28898 28879 28894 28813 28799 28876 28915 28952 29005 28947 28898 28831 28723 28690 28729 28786 28964 29104 29156 29024 28936 28834 28703 28613 28609 28572 28548 28564 28583 28537 28516 28446 28413 28396 28459 28523 28648 28731 28727 28655 28583 28537 28441 28421 28444 28444 28462 28460 28414 28405 28264 28186 28178 28364 28457 28546 28641 28642 28508 28396 28294 28209 28157 28186 28161 28166 28194 28176 28170 28136 28078 27948 27915 27956 28121 28215 28255 28235 28257 28195 28148 28043 28029 28029 27988 28003 28003 27999 28036 28104 28094 28084 28056 28117 28178 28211 28161 28165 28139 28055 28027 27938 27944 27956 27978 28016 27994 28068 28206 28417 28567 28635 28616 28637 28665 28728 28536 28492 28493 28444 28376 28443 28400 28389 28390 28379 28340 28305 28356 28421 28487 28509 28549 28604 28634 28512 28585 28607 28575 28507 28528 28504 28510 28520 28496 28512 28582 28666 28693 28741 28885 28968 28989 28961 28781 28814 28868 28841 28781 28754 28725 28702 28712 28694 28687 28655 28704 28832 29001 29095 29174 29203 29218 29082 29025 29030 28992 28968 28988 28935 28891 28872 28837 28861 28921 28979 29005 29023 29110 29177 29231 29124 28955 29005 28954 28925 28907 28888 28850 28845 28796 28782 28792 28871 28867 28848 28849 28868 28886 28865 28798 28806 28768 28733 28657 28627 28623 28619 28650 28590 28638 28620 28665 28648 28681 28724 28778 28795 28742 28629 28699 28642 28562 28525 28505 28507 28521 28488 28475 28481 28484 28496 28508 28509 28616 28675 28686 28642 28551 28580 28534 28521 28474 28439 28442 28441 28434 28416 28427 28438 28380 28389 28428 28521 28580 28517 28440 28450 28369 28256 28233 28222 28211 28234 28244 28178 28175 28101 28048 28055 28152 28296 28395 28445 28315 28223 28181 28089 28002 27984 27932 27938 27963 27989 27998 27998 27944 27903 28074 28176 28276 28343 28367 28184 28175 28103 28026 27959 27925 27867 27891 27907 27909 27938 27967 27921 27866 27871 27943 28089 28141 27901 27914 27948 27927 27871 27802 27744 27724 27743 27729 27728 27686 27688 27680 27731 27852 28005 28075 28107 27961 27956 27931 27873 27840 27891 27861 27864 27861 27823 27857 27827 27863 27946 28069 28193 28314 28425 28380 28182 28209 28168 28092 28088 28102 28051 28071 28053 28033 28038 28067 28111 28233 28334 28476 28589 28653 28501 28430 28422 28329 28270 28308 28323 28301 28339 28359 28170 28168 28190 28335 28843 29192 29260 29333 29373 28828 28758 28693 28621 28621 28701 28733 28746 28751 28677 28468 28365 28270 28230 28399 28655 28845 28921 28938 28870 28728 28639 28611 28576 28539 28544 28546 28546 28510 28420 28329 28255 28225 28230 28319 28478 28548 28483 28402 28266 28221 28321 28318 28180 28228 28201 28219 28180 28132 28097 28013 28029 28075 28177 28238 28298 28294 28149 28035 28002 28017 28066 27979 28025 28011 28006 27985 27952 27935 27860 27792 27798 27884 28036 28146 28174 27980 27928 27928 27884 27840 27872 27863 27866 27905 27871 27886 27840 27845 27930 28069 28225 28330 28231 28059 28026 27951 27922 27867 27792 27737 27727 27724 27722 27716 27690 27678 27728 27879 28148 28266 28262 28043 28022 27974 27864 27755 27696 27679 27632 27663 27695 27709 27746 27688 27634 27615 27654 27729 27819 27853 27819 27814 27778 27714 27685 27681 27684 27692 27728 27738 27774 27745 27741 27693 27707 27828 27969 28032 27831 27868 27862 27895 27894 27861 27826 27785 27787 27774 27778 27803 27836 27841 27981 28081 28168 28174 28097 28109 28070 28014 27963 27943 27944 27925 27906 27903 27903 27918 27981 28034 28107 28211 28333 28342 28295 28252 28263 28222 28162 28129 28124 28111 28082 28060 28080 28125 28113 28141 28215 28361 28491 28559 28492 28410 28448 28389 28329 28262 28268 28265 28249 28254 28276 28266 28195 28099 28084 28152 28235 28487 28594 28550 28405 28444 28416 28334 28319 28275 28280 28291 28288 28272 28265 28211 28165 28175 28251 28348 28459 28484 28346 28336 28329 28240 28183 28163 28155 28167 28201 28173 28142 28133 28069 28053 28141 28273 28431 28529 28466 28331 28288 28216 28178 28117 28036 27988 27976 27948 27950 27999 27982 27964 27987 28040 28069 28136 28117 28014 27967 27922 27876 27851 27823 27827 27858 27870 27901 27897 27881 27833 27808 27802 27865 27991 28024 28013 27930 27877 27817 27741 27737 27721 27773 27770 27794 27745 27688 27639 27601 27569 27635 27753 27843 27827 27721 27676 27602 27498 27440 27442 27478 27489 27517 27511 27518 27455 27437 27446 27529 27625 27721 27799 27710 27650 27551 27441 27384 27334 27355 27397 27406 27442 27426 27348 27310 27281 27336 27443 27553 27597 27516 27494 27452 27346 27278 27262 27257 27262 27308 27332 27365 27297 27241 27215 27323 27515 27684 27728 27674 27740 27703 27591 27494 27457 27455 27478 27533 27534 27594 27611 27597 27597 27775 27926 28011 27960 27932 27942 27930 27850 27783 27722 27702 27730 27784 27810 27842 27833 27778 27750 27764 27977 28171 28279 28199 28206 28192 28129 28064 27988 27932 27918 27943 27964 28024 28025 28030 28029 28044 28070 28155 28252 28292 28412 28440 28366 28256 28144 28087 28050 28051 28115 28156 28235 28329 28403 28481 28425 28465 28517 28498 28577 28524 28437 28379 28314 28306 28304 28322 28334 28357 28323 28311 28349 28413 28413 28406 28415 28340 28354 28431 28416 28375 28330 28321 28318 28344 28385 28382 28368 28263 28196 28170 28130 28205 28235 28217 28217 28240 28268 28254 28223 28200 28197 28187 28214 28253 28299 28264 28161 28164 28189 28219 28275 28356 28397 28339 28408 28364 28303 28282 28296 28309 28305 28332 28321 28363 28300 28299 28353 28458 28530 28582 28605 28438 28478 28469 28396 28345 28333 28296 28287 28302 28276 28272 28256 28199 28269 28358 28450 28496 28541 28404 28348 28424 28385 28339 28357 28336 28347 28329 28296 28265 28279 28259 28246 28336 28413 28458 28453 28393 28290 28332 28282 28235 28221 28212 28213 28196 28176 28144 28170 28138 28077 28060 28107 28200 28256 28232 28171 28169 28174 28134 28109 28078 28033 27999 28011 28033 28049 28053 28033 28037 28083 28147 28244 28299 28252 28257 28272 28225 28177 28140 28121 28133 28126 28149 28143 28148 28120 28093 28117 28163 28258 28336 28327 28308 28310 28295 28254 28240 28250 28262 28283 28285 28290 28312 28282 28234 28261 28341 28451 28545 28618 28485 28518 28515 28450 28422 28381 28363 28337 28367 28359 28352 28301 28266 28258 28295 28366 28454 28494 28445 28429 28423 28380 28337 28315 28288 28299 28338 28337 28332 28327 28296 28273 28324 28376 28457 28540 28544 28521 28469 28507 28380 28219 28092 27992 27981 27981 28040 28158 28468 28722 28825 28741 28637 28612 28589 28617 28702 28726 28605 28347 28211 28157 28174 28230 28273 28302 28284 28244 28234 28302 28377 28449 28499 28448 28435 28375 28264 28191 28137 28120 28124 28176 28183 28213 28145 28013 27978 28017 28032 28118 28206 28183 28213 28150 28060 27964 27892 27875 27897 27944 27970 28000 27964 27878 27822 27827 27889 28011 28096 28054 28059 28074 27985 27894 27800 27731 27716 27735 27810 27833 27895 27854 27749 27683 27661 27662 27682 27728 27716 27767 27760 27680 27589 27530 27487 27518 27545 27593 27645 27622 27517 27381 27286 27273 27335 27393 27400 27403 27448 27446 27379 27285 27220 27222 27301 27339 27379 27408 27335 27226 27134 27104 27166 27219 27252 27277 27334 27335 27291 27236 27191 27142 27158 27218 27252 27280 27244 27161 27102 27108 27187 27268 27306 27266 27316 27276 27214 27135 27085 27048 27036 27096 27122 27155 27121 27089 27052 27024 27052 27133 27187 27179 27208 27204 27172 27085 27070 27056 27055 27070 27097 27151 27130 27132 27191 27257 27300 27423 27552 27546 27418 27500 27479 27416 27366 27331 27301 27299 27304 27367 27317 27322 27353 27398 27454 27493 27506 27437 27497 27458 27379 27313 27309 27267 27252 27264 27283 27313 27308 27327 27460 27662 27751 27761 27640 27609 27677 27645 27580 27571 27608 27611 27588 27553 27499 27517 27508 27518 27609 27718 27821 27833 27708 27661 27675 27622 27560 27534 27559 27565 27558 27513 27475 27425 27454 27533 27946 28369 28166 28139 28027 27776 27639 27605 27576 27589 27635 27695 27717 27669 27550 27484 27519 27634 27729 27813 27844 27809 27773 27712 27616 27551 27529 27556 27571 27599 27613 27621 27531 27534 27622 27768 27847 27901 27910 27972 27907 27798 27738 27720 27729 27779 27852 27870 27887 27877 27826 27795 27866 28017 28173 28308 28376 28230 28291 28147 28006 27944 27941 27941 27976 27998 27993 28010 27904 27832 27843 27929 27945 27972 27989 27945 27910 27880 27801 27736 27684 27687 27720 27763 27813 27805 27795 27692 27639 27666 27714 27737 27814 27840 27800 27815 27765 27654 27586 27551 27531 27579 27633 27661 27644 27629 27596 27580 27640 27680 27744 27784 27704 27715 27686 27627 27569 27487 27499 27535 27608 27651 27653 27642 27645 27665 27732 27825 27900 27939 27980 27737 27774 27755 27666 27609 27554 27539 27560 27565 27571 27582 27583 27597 27624 27629 27757 27857 27903 27794 27666 27707 27649 27543 27499 27452 27437 27436 27425 27412 27441 27365 27377 27470 27480 27512 27538 27534 27427 27511 27415 27287 27279 27297 27300 27307 27319 27304 27286 27274 27306 27322 27398 27409 27445 27450 27362 27336 27356 27250 27219 27242 27230 27240 27275 27255 27220 27189 27197 27250 27351 27490 27619 27710 27566 27491 27487 27423 27357 27366 27399 27422 27476 27510 27465 27388 27371 27419 27487 27554 27598 27703 27753 27699 27551 27565 27526 27422 27431 27464 27507 27546 27580 27511 27424 27456 27513 27560 27620 27679 27779 27824 27743 27603 27588 27520 27436 27437 27445 27454 27507 27525 27494 27408 27360 27331 27321 27387 27482 27579 27657 27592 27542 27534 27442 27370 27351 27373 27412 27474 27510 27502 27433 27326 27277 27298 27342 27445 27591 27680 27597 27575 27513 27425 27400 27373 27355 27415 27474 27508 27519 27448 27364 27317 27342 27416 27530 27604 27624 27615 27598 27531 27414 27368 27372 27377 27425 27487 27528 27538 27483 27402 27391 27422 27493 27598 27646 27652 27628 27585 27488 27408 27343 27331 27377 27437 27464 27524 27517 27428 27327 27328 27378 27470 27559 27620 27609 27615 27582 27514 27450 27418 27424 27485 27551 27587 27641 27614 27591 27536 27557 27641 27760 27817 27747 27800 27843 27794 27712 27625 27570 27573 27607 27645 27690 27740 27692 27631 27687 27836 27943 28026 28097 28046 28035 28043 27981 27911 27839 27799 27798 27821 27850 27875 27875 27802 27762 27780 27813 27851 27888 27916 27906 27920 27941 27878 27813 27742 27722 27747 27793 27824 27889 27874 27827 27772 27740 27736 27788 27827 27857 27885 27897 27906 27864 27840 27817 27790 27828 27864 27890 27951 27912 27859 27802 27801 27814 27881 27938 27929 27967 27961 27927 27864 27801 27776 27766 27792 27834 27855 27887 27863 27810 27776 27815 27816 27862 27917 27904 27925 27911 27850 27800 27743 27664 27627 27631 27662 27715 27760 27719 27663 27658 27640 27632 27644 27666 27659 27687 27663 27631 27578 27489 27450 27438 27452 27461 27511 27500 27466 27504 27573 27601 27649 27639 27590 27587 27544 27466 27421 27383 27320 27298 27313 27309 27313 27349 27298 27244 27224 27211 27232 27306 27365 27258 27261 27335 27242 27205 27190 27141 27129 27158 27160 27192 27217 27174 27152 27176 27186 27231 27292 27193 27194 27246 27188 27106 27094 27135 27120 27116 27147 27114 27182 27177 27157 27149 27188 27201 27218 27226 27170 27146 27142 27144 27140 27128 27077 27036 27050 27069 27111 27145 27116 27116 27167 27217 27273 27335 27420 27337 27416 27411 27352 27354 27375 27383 27401 27422 27438 27491 27482 27413 27413 27433 27476 27475 27492 27503 27552 27574 27569 27572 27560 27609 27621 27629 27619 27627 27653 27643 27630 27631 27694 27722 27733 27752 27702 27713 27729 27721 27701 27724 27725 27741 27773 27776 27808 27789 27736 27681 27714 27796 27848 27908 27929 27888 27906 27912 27861 27822 27855 27850 27861 27887 27823 27839 27838 27835 27883 27975 28067 28141 28219 28154 28043 28051 28045 28004 27999 27980 27939 27851 27814 27811 27825 27862 27927 28002 28094 28170 28232 28259 28126 28074 28097 28013 27944 27917 27915 27917 27913 27891 27885 27902 27927 27954 28005 28066 28041 28003 27974 27910 27870 27934 27910 27832 27776 27765 27791 27768 27743 27763 27846 27902 27837 27788 27687 27675 27651 27598 27562 27522 27557 27587 27585 27557 27560 27523 27475 27428 27465 27518 27576 27539 27495 27424 27368 27306 27248 27238 27234 27249 27268 27264 27258 27256 27208 27129 27112 27105 27139 27179 27167 27096 27070 27078 27046 26991 27003 26957 26994 27011 26991 26966 26992 26974 26921 26914 26944 27015 27061 27059 26970 26944 26955 26923 26871 26835 26832 26849 26849 26840 26841 26859 26819 26780 26767 26803 26875 26919 26930 26852 26877 26886 26845 26782 26777 26769 26762 26782 26786 26801 26801 26786 26772 26806 26857 26950 26984 26891 26926 26939 26867 26805 26788 26796 26813 26815 26823 26848 26845 26863 26918 27028 27214 27327 27333 27178 27165 27154 27080 27033 27019 27049 27085 27111 27106 27068 27009 26989 27010 27082 27112 27182 27205 27147 27064 26993 26981 26965 26947 26973 27001 27027 27063 27051 27034 26984 26930 26924 26985 27055 27103 27109 27068 27031 26995 26960 26936 26953 26959 26993 27066 27091 27110 27078 27038 27026 27051 27137 27188 27240 27214 27158 27101 27055 27055 27056 27069 27158 27253 27257 27330 27269 27191 27199 27239 27305 27358 27404 27415 27365 27291 27194 27156 27115 27150 27223 27276 27301 27286 27177 27085 27052 27074 27140 27228 27319 27300 27295 27271 27214 27178 27129 27141 27204 27313 27331 27310 27219 27104 27099 27190 27332 27526 27652 27651 27661 27565 27430 27343 27283 27240 27270 27312 27376 27387 27343 27223 27131 27159 27257 27402 27529 27563 27500 27458 27336 27224 27185 27215 27260 27317 27392 27402 27388 27285 27202 27193 27285 27327 27412 27507 27473 27460 27375 27223 27094 27059 27053 27101 27157 27216 27234 27188 27068 26974 26943 26993 27104 27178 27134 27139 27037 26858 26746 26704 26694 26731 26803 26889 26948 26989 26912 26814 26764 26782 26874 26969 27054 27033 27040 26987 26807 26734 26713 26692 26778 26870 26925 26992 26974 26835 26758 26776 26846 26949 27033 27050 27091 27015 26907 26791 26735 26713 26759 26823 26911 26984 27002 26874 26746 26732 26744 26861 26969 27042 27078 27096 27063 26993 26924 26885 26897 26971 27043 27099 27140 27109 27000 26929 26924 26973 27060 27116 27195 27211 27149 27071 27046 27008 26970 26984 27067 27129 27176 27173 27087 27009 26986 27000 27058 27140 27188 27213 27201 27201 27148 27103 27039 27076 27136 27187 27227 27263 27239 27149 27098 27109 27124 27162 27236 27278 27294 27303 27274 27239 27152 27121 27139 27220 27267 27279 27264 27200 27139 27129 27156 27239 27317 27355 27351 27358 27302 27301 27298 27317 27376 27407 27418 27427 27420 27434 27436 27464 27493 27516 27599 27605 27576 27504 27473 27402 27355 27321 27331 27366 27474 27528 27601 27654 27642 27576 27543 27527 27524 27555 27626 27658 27639 27559 27441 27291 27121 27077 27095 27184 27314 27450 27636 27702 27731 27791 27769 27872 27953 28047 27878 27920 27875 27716 27608 27565 27550 27560 27554 27557 27547 27522 27442 27393 27421 27467 27536 27590 27546 27516 27520 27380 27205 27142 27117 27149 27208 27283 27299 27336 27300 27206 27124 27123 27139 27231 27360 27385 27331 27314 27116 26914 26824 26808 26792 26856 26969 26999 26995 26936 26866 26825 26831 26866 26963 27055 27049 27088 27045 26853 26736 26672 26662 26718 26823 26899 26915 26945 26895 26836 26846 26907 26980 27103 27183 27135 27177 27072 26893 26828 26820 26859 26904 26998 27043 27056 26991 26964 26946 26982 27073 27225 27346 27350 27348 27347 27182 27034 26992 27020 27060 27128 27202 27232 27230 27216 27193 27186 27231 27282 27403 27483 27466 27446 27472 27361 27266 27276 27295 27366 27455 27497 27482 27524 27495 27469 27459 27456 27571 27646 27736 27706 27700 27646 27476 27411 27439 27481 27551 27602 27650 27627 27632 27607 27632 27685 27768 27858 27944 28049 27973 27950 27931 27836 27752 27724 27746 27756 27821 27816 27859 27927 27953 27957 27975 28010 28098 28191 28262 28231 28154 28047 27941 27898 27964 28012 28078 28115 28030 27930 27880 27880 27895 27886 27882 27937 27997 27872 27828 27781 27666 27551 27518 27509 27554 27631 27648 27683 27635 27510 27416 27411 27478 27578 27674 27674 27656 27560 27424 27296 27230 27223 27239 27309 27400 27445 27481 27377 27262 27207 27245 27292 27434 27536 27577 27488 27433 27281 27129 27039 27005 26998 27062 27128 27171 27198 27083 26977 26935 26981 27053 27143 27218 27199 27176 27100 26978 26884 26866 26886 26967 27075 27097 27147 27094 26951 26865 26874 26894 26997 27080 27101 27051 27022 26896 26730 26673 26630 26681 26743 26793 26816 26847 26736 26641 26563 26594 26646 26765 26846 26821 26796 26751 26631 26503 26456 26452 26497 26570 26631 26670 26665 26580 26463 26432 26467 26551 26683 26777 26767 26707 26556 26423 26335 26309 26341 26400 26479 26560 26558 26495 26365 26299 26310 26349 26449 26545 26650 26654 26594 26571 26473 26443 26444 26485 26546 26652 26697 26723 26718 26598 26540 26585 26652 26776 26866 26951 26904 26828 26764 26686 26670 26664 26706 26781 26883 26908 26919 26799 26679 26642 26686 26764 26852 26961 27011 26993 26961 26902 26833 26819 26825 26857 26941 27017 27057 27066 27010 26950 26987 27093 27182 27297 27423 27364 27323 27221 27122 27097 27050 27054 27083 27142 27205 27265 27256 27181 27124 27179 27273 27320 27401 27485 27454 27374 27377 27324 27263 27248 27263 27275 27300 27347 27349 27320 27277 27238 27269 27339 27416 27498 27519 27501 27435 27418 27412 27378 27361 27407 27460 27528 27549 27551 27506 27423 27415 27444 27525 27583 27659 27723 27617 27517 27549 27494 27443 27427 27440 27489 27510 27529 27480 27461 27406 27368 27397 27435 27490 27579 27594 27543 27489 27469 27450 27412 27395 27385 27376 27422 27414 27394 27399 27414 27380 27378 27414 27489 27549 27541 27485 27382 27399 27378 27303 27259 27263 27281 27303 27311 27258 27249 27238 27243 27219 27229 27285 27340 27351 27276 27171 27220 27177 27089 27079 27129 27141 27153 27156 27127 27112 27081 27028 26993 27039 27040 27073 27068 27034 26986 27019 26959 26890 26885 26892 26871 26888 26898 26863 26887 26892 26837 26824 26860 26867 26854 26809 26800 26801 26835 26845 26828 26835 26842 26851 26880 26878 26886 26920 26907 26876 26858 26912 26935 26966 26992 26927 26990 27074 26990 26909 26890 26887 26885 26887 26893 26978 27055 27088 27088 27183 27254 27226 27194 27142 27089 27033 27006 26954 26944 26949 26938 26953 26985 27010 27052 27027 26993 26981 26991 27004 27014 27048 27026 27057 27075 27066 27044 27049 27047 27033 27001 27028 27062 27079 27060 27004 27003 27021 27101 27152 27156 27129 27088 27079 27065 27075 27120 27149 27162 27180 27202 27214 27194 27133 27143 27204 27248 27283 27249 27255 27252 27256 27251 27225 27218 27249 27235 27257 27280 27291 27304 27290 27226 27214 27255 27290 27284 27306 27277 27329 27330 27321 27296 27273 27251 27229 27242 27275 27313 27343 27313 27287 27323 27345 27354 27347 27369 27387 27378 27286 27240 27220 27194 27162 27160 27235 27276 27333 27325 27296 27292 27313 27305 27293 27280 27283 27265 27252 27214 27202 27204 27152 27111 27105 27126 27168 27195 27179 27142 27160 27224 27231 27189 27152 27154 27127 27116 27118 27122 27151 27193 27202 27187 27177 27184 27142 27042 27018 27057 27049 27028 26966 26915 26884 26859 26857 26854 26898 26879 26886 26899 26904 26922 26935 26879 26828 26839 26873 26874 26885 26832 26799 26787 26766 26717 26685 26705 26734 26748 26768 26768 26785 26772 26723 26689 26718 26720 26720 26714 26632 26645 26551 26492 26457 26452 26434 26428 26437 26474 26532 26553 26534 26493 26514 26586 26637 26661 26612 26577 26580 26573 26482 26518 26557 26585 26633 26626 26606 26599 26546 26491 26506 26562 26599 26602 26604 26519 26498 26491 26464 26435 26444 26501 26540 26572 26578 26585 26561 26504 26461 26489 26548 26643 26687 26658 26602 26572 26550 26526 26527 26554 26573 26623 26684 26696 26698 26701 26682 26672 26714 26784 26859 26851 26779 26702 26625 26554 26523 26526 26524 26534 26569 26583 26576 26573 26548 26504 26508 26555 26627 26669 26641 26603 26577 26540 26527 26543 26568 26627 26711 26742 26739 26702 26645 26666 26733 26857 26986 27019 27007 26946 26818 26705 26691 26705 26713 26763 26829 26848 26820 26710 26681 26702 26757 26857 26967 27019 27019 27000 26867 26806 26708 26566 26582 26603 26701 26732 26755 26752 26723 26718 26737 26759 26838 27018 26998 27018 26969 26922 26872 26800 26748 26765 26829 26711 26610 26530 26499 26497 26542 26656 26772 26904 26969 26970 26960 26872 26861 26968 27045 27006 27031 27044 26959 26798 26691 26636 26636 26712 26800 26872 26901 26935 26844 26771 26715 26697 26746 26834 26899 26887 26894 26854 26649 26520 26454 26421 26462 26531 26618 26668 26730 26697 26626 26549 26541 26546 26632 26668 26697 26727 26636 26509 26333 26294 26253 26265 26319 26419 26507 26621 26595 26492 26469 26473 26521 26624 26685 26772 26715 26586 26425 26343 26302 26290 26320 26389 26456 26558 26560 26503 26472 26541 26582 26693 26753 26793 26835 26797 26665 26573 26561 26590 26649 26763 26838 26876 26884 26827 26750 26713 26775 26881 26944 26989 27003 26986 26956 26830 26808 26840 26904 26969 27086 27116 27107 27075 27035 26972 26981 27093 27216 27309 27340 27265 27253 27175 27071 27049 27091 27185 27248 27343 27367 27347 27302 27184 27151 27156 27208 27327 27456 27503 27446 27447 27335 27206 27186 27183 27227 27330 27419 27431 27377 27290 27222 27172 27176 27228 27374 27410 27416 27371 27254 27122 27067 27081 27118 27200 27327 27392 27390 27342 27214 27144 27165 27237 27336 27484 27536 27472 27409 27291 27156 27149 27172 27212 27280 27386 27416 27372 27237 27106 27090 27120 27150 27229 27305 27292 27274 27178 27076 27031 27063 27126 27217 27329 27379 27392 27249 27158 27137 27166 27252 27368 27471 27498 27448 27384 27296 27212 27204 27225 27291 27375 27486 27514 27471 27391 27349 27346 27444 27529 27625 27723 27699 27602 27612 27469 27376 27363 27432 27506 27577 27612 27632 27578 27550 27568 27577 27620 27725 27803 27842 27845 27768 27684 27607 27530 27485 27540 27599 27640 27663 27630 27568 27569 27552 27562 27566 27671 27755 27721 27655 27525 27362 27264 27228 27262 27346 27402 27456 27472 27381 27275 27207 27249 27325 27489 27552 27544 27486 27387 27210 27067 27005 27015 27073 27146 27212 27212 27126 26936 26806 26815 26896 27011 27111 27133 27097 26967 26812 26675 26617 26634 26720 26803 26886 26927 26903 26758 26648 26625 26722 26884 27030 27063 27089 26987 26795 26640 26521 26499 26521 26599 26712 26754 26749 26687 26645 26634 26659 26771 26911 26998 27004 26970 26805 26677 26523 26454 26475 26528 26608 26695 26733 26720 26603 26479 26492 26573 26669 26781 26818 26872 26817 26711 26600 26579 26628 26681 26766 26834 26876 26879 26780 26649 26642 26714 26783 26893 26944 27011 27031 26941 26826 26763 26719 26718 26804 26860 26937 26974 26929 26866 26821 26845 26922 27051 27156 27145 27221 27176 27086 26993 26989 26998 27050 27146 27199 27259 27223 27144 27068 27063 27105 27176 27246 27348 27307 27296 27240 27169 27129 27091 27145 27228 27303 27356 27345 27224 27097 27049 27088 27178 27324 27437 27475 27435 27340 27309 27209 27156 27165 27190 27249 27328 27362 27355 27271 27151 27109 27142 27180 27250 27312 27333 27294 27185 27096 27050 27048 27054 27097 27237 27307 27318 27202 27040 26932 26914 26957 26995 27087 27163 27122 27035 27006 26938 26913 26920 26947 27033 27140 27177 27173 27065 26918 26848 26854 26904 26975 27055 27081 27010 26925 26879 26838 26838 26861 26894 26968 27024 26988 26948 26871 26826 26768 26812 26857 26930 26929 26884 26781 26712 26657 26640 26657 26675 26709 26783 26815 26786 26738 26676 26630 26631 26664 26710 26785 26800 26731 26669 26652 26643 26609 26615 26652 26709 26769 26761 26745 26701 26638 26605 26628 26717 26761 26858 26828 26793 26761 26764 26748 26725 26730 26696 26697 26673 26680 26688 26692 26715 26727 26737 26754 26793 26807 26828 26836 26858 26878 26912 26871 26891 26927 26960 26981 26983 26971 26988 26983 26978 26988 26964 26975 27043 27061 27070 27088 27119 27055 26987 26980 26963 26967 27025 27083 27132 27151 27173 27138 27112 27095 27105 27116 27110 27073 27052 27055 27084 27069 27083 27078 27087 27097 27184 27233 27211 27116 27045 26998 26972 26990 27047 27125 27146 27181 27186 27158 27113 27070 27030 27037 27108 27171 27232 27225 27196 27196 27182 27189 27299 27441 27508 27456 27499 27422 27351 27373 27447 27468 27487 27532 27483 27468 27451 27442 27402 27369 27391 27471 27518 27431 27403 27384 27323 27285 27255 27247 27276 27308 27333 27328 27317 27304 27262 27236 27195 27242 27283 27322 27229 27212 27216 27172 27133 27107 27078 27115 27161 27185 26938 26902 26949 26987 26968 26945 26949 26913 26872 26847 26812 26796 26836 26881 26888 26886 26835 26803 26757 26750 26720 26737 26740 26711 26704 26697 26671 26652 26664 26653 26661 26687 26743 26765 26750 26728 26707 26681 26658 26668 26715 26745 26719 26699 26706 26689 26643 26613 26580 26580 26634 26700 26730 26714 26684 26650 26624 26627 26712 26804 26888 26808 26822 26818 26758 26692 26700 26655 26676 26702 26739 26773 26796 26762 26737 26680 26664 26676 26749 26777 26777 26793 26793 26765 26731 26683 26659 26702 26740 26772 26809 26794 26763 26713 26655 26672 26732 26771 26778 26805 26818 26823 26815 26787 26755 26750 26775 26843 26871 26902 26916 26878 26847 26816 26832 26910 26933 26928 26921 26930 26923 26892 26844 26785 26784 26842 26880 26909 26903 26857 26817 26752 26728 26763 26780 26811 26840 26863 26880 26866 26805 26776 26779 26816 26871 26918 26915 26891 26863 26812 26765 26746 26784 26802 26834 26864 26879 26873 26846 26773 26766 26768 26793 26841 26891 26855 26807 26798 26735 26743 26739 26740 26755 26750 26771 26779 26804 26784 26765 26799 26848 26908 26907 26826 26791 26770 26773 26781 26800 26773 26774 26788 26790 26753 26740 26754 26789 26830 26841 26829 26845 26792 26726 26714 26730 26750 26789 26754 26723 26714 26726 26714 26702 26710 26701 26731 26780 26779 26793 26783 26727 26699 26733 26771 26829 26826 26760 26707 26696 26669 26638 26638 26643 26653 26646 26709 26697 26672 26684 26666 26661 26675 26713 26775 26765 26714 26669 26644 26632 26617 26627 26611 26607 26639 26640 26623 26590 26538 26483 26492 26482 26489 26500 26454 26426 26366 26351 26373 26383 26388 26394 26454 26523 26536 26539 26503 26436 26413 26425 26460 26510 26566 26562 26498 26460 26440 26423 26450 26474 26502 26563 26621 26619 26561 26501 26450 26441 26459 26506 26624 26671 26641 26559 26533 26464 26408 26356 26370 26425 26504 26534 26578 26563 26529 26511 26514 26557 26665 26778 26798 26753 26693 26628 26533 26497 26444 26428 26481 26595 26624 26650 26627 26571 26517 26503 26521 26569 26673 26705 26647 26576 26503 26414 26369 26337 26372 26464 26557 26588 26568 26501 26439 26377 26383 26427 26510 26597 26625 26594 26562 26453 26402 26391 26372 26417 26502 26578 26646 26633 26536 26422 26357 26374 26425 26489 26541 26561 26539 26470 26388 26331 26314 26351 26454 26544 26622 26667 26614 26511 26435 26414 26430 26497 26580 26594 26624 26623 26604 26527 26489 26552 26654 26713 26759 26750 26713 26599 26481 26444 26487 26548 26600 26630 26633 26672 26655 26561 26493 26405 26445 26516 26574 26626 26676 26671 26565 26481 26454 26471 26518 26571 26598 26612 26647 26638 26586 26499 26460 26518 26593 26666 26693 26704 26661 26575 26513 26476 26514 26579 26617 26621 26613 26590 26545 26497 26455 26475 26531 26573 26605 26600 26574 26505 26409 26338 26332 26388 26410 26420 26461 26529 26519 26493 26447 26435 26467 26545 26578 26609 26601 26549 26487 26429 26396 26399 26456 26484 26496 26497 26530 26542 26495 26484 26500 26549 26595 26644 26613 26548 26470 26381 26302 26288 26316 26365 26361 26368 26439 26491 26480 26404 26361 26372 26453 26506 26551 26525 26473 26420 26374 26313 26311 26379 26396 26387 26422 26435 26415 26423 26420 26385 26418 26472 26506 26565 26568 26523 26459 26406 26365 26396 26409 26394 26400 26430 26420 26391 26385 26350 26353 26385 26441 26486 26448 26411 26385 26374 26359 26363 26392 26433 26434 26446 26489 26504 26505 26494 26526 26540 26584 26609 26580 26509 26464 26437 26406 26356 26314 26313 26313 26287 26341 26386 26415 26410 26428 26447 26490 26492 26504 26502 26490 26461 26446 26353 26328 26275 26265 26267 26286 26374 26397 26379 26394 26422 26427 26476 26506 26547 26576 26526 26509 26549 26569 26513 26445 26442 26464 26460 26511 26541 26528 26502 26496 26507 26524 26545 26553 26540 26466 26432 26437 26398 26361 26339 26372 26394 26415 26511 26537 26546 26580 26612 26604 26624 26638 26698 26735 26761 26773 26844 26831 26750 26655 26632 26608 26545 26512 26547 26595 26664 26671 26668 26669 26652 26701 26654 26554 26466 26432 26414 26371 26375 26373 26367 26348 26333 26364 26392 26421 26410 26412 26450 26484 26536 26569 26551 26488 26462 26427 26395 26339 26331 26362 26345 26332 26398 26413 26445 26439 26417 26449 26485 26513 26551 26522 26432 26394 26371 26388 26424 26482 26517 26475 26520 26515 26484 26454 26421 26417 26434 26508 26552 26583 26581 26540 26523 26477 26427 26446 26453 26480 26472 26448 26464 26503 26520 26508 26496 26525 26551 26572 26603 26602 26529 26478 26457 26415 26420 26409 26447 26428 26426 26367 26399 26425 26413 26372 26369 26427 26472 26530 26525 26451 26386 26374 26359 26343 26358 26399 26415 26451 26419 26393 26339 26288 26258 26251 26300 26339 26421 26522 26529 26462 26354 26281 26231 26231 26293 26326 26316 26289 26288 26258 26224 26171 26127 26163 26236 26333 26364 26366 26284 26180 26118 26117 26163 26217 26248 26259 26224 26273 26252 26216 26159 26151 26217 26298 26368 26399 26371 26254 26170 26092 26064 26101 26165 26200 26178 26220 26238 26198 26162 26131 26192 26266 26333 26379 26378 26292 26181 26056 25997 26029 26085 26171 26223 26201 26183 26238 26234 26169 26153 26192 26248 26344 26409 26420 26364 26252 26170 26111 26120 26195 26247 26287 26258 26288 26301 26253 26211 26157 26161 26255 26309 26370 26412 26353 26204 26092 26036 26021 26084 26165 26235 26241 26245 26281 26243 26178 26127 26101 26177 26268 26359 26406 26400 26279 26155 26083 26075 26137 26193 26236 26282 26285 26322 26330 26284 26249 26246 26300 26375 26422 26493 26490 26383 26218 26158 26143 26164 26238 26317 26306 26291 26308 26277 26160 26085 26080 26138 26236 26333 26381 26412 26299 26112 26040 26018 26062 26123 26224 26238 26210 26224 26128 26008 25974 25970 26017 26127 26242 26332 26345 26217 26014 25868 25831 25859 25937 26032 26081 26086 26083 26004 25876 25852 25849 25903 25976 26094 26171 26182 26058 25875 25763 25735 25786 25882 25956 26061 26105 26114 26066 25978 25892 25835 25892 25965 26080 26175 26240 26174 25967 25817 25764 25788 25854 25930 26015 26017 25949 25857 25755 25692 25670 25653 25700 25817 25930 26022 26017 25852 25689 25638 25672 25741 25845 25935 26031 25985 25894 25835 25797 25771 25789 25835 25910 26033 26124 26161 26110 25962 25853 25862 25883 25930 26018 26086 26084 25947 25735 25634 25637 25673 25678 25709 25786 25880 25959 25949 25859 25770 25737 25754 25818 25913 25999 26057 25992 25891 25861 25870 25879 25896 25915 25983 26051 26169 26184 26107 25922 25820 25833 25873 25965 26059 26162 26173 26072 25966 25929 25952 25952 25974 26036 26094 26218 26237 26233 26114 26035 25980 25987 26066 26165 26306 26378 26333 26225 26150 26174 26184 26204 26235 26293 26390 26474 26444 26322 26212 26161 26259 26534 26914 27247 27500 27709 27816 27910 27922 27901 27888 27832 27818 27833 27836 27682 27468 27228 27102 26974 26834 26861 27030 27130 27047 26871 26685 26573 26501 26462 26461 26519 26625 26691 26740 26683 26566 26411 26328 26322 26378 26554 26807 27105 27411 27608 27609 27483 27365 27314 27342 27346 27232 27368 27391 27563 27762 27839 27882 27944 28127 28323 28427 28464 28557 28523 28417 28300 28054 27933 27885 27842 27793 27745 27660 27455 27219 27126 27056 26958 26874 26755 26666 26672 26635 26518 26394 26352 26342 26352 26324 26340 26295 26189 26013 25835 25745 25712 25738 25769 25778 25791 25888 25896 25885 25849 25823 25860 25920 25936 25950 25902 25801 25714 25683 25627 25639 25667 25698 25685 25726 25781 25789 25775 25799 25768 25735 25756 25760 25762 25771 25711 25659 25631 25628 25570 25530 25507 25518 25567 25652 25687 25723 25754 25786 25797 25813 25782 25785 25794 25715 25679 25714 25730 25756 25731 25685 25675 25631 25635 25661 25675 25693 25745 25801 25824 25777 25758 25714 25635 25602 25616 25671 25732 25713 25646 25573 25573 25626 25630 25670 25735 25818 25907 25947 25935 25852 25764 25701 25671 25715 25787 25865 25888 25843 25816 25748 25828 25920 25909 25892 25922 26006 26045 26015 25969 25919 25897 25876 25899 25944 26012 26073 26087 26024 25931 25862 25892 25920 25975 25988 25990 26037 26063 26071 26062 26003 26022 26044 26081 26131 26210 26181 26113 26024 26021 26119 26129 26182 26242 26270 26317 26340 26306 26207 26134 26070 26080 26110 26172 26248 26272 26210 26098 26055 26115 26179 26231 26266 26339 26428 26475 26465 26348 26263 26217 26192 26261 26332 26459 26548 26529 26424 26291 26263 26367 26398 26419 26481 26569 26659 26680 26621 26457 26284 26229 26255 26336 26407 26475 26501 26425 26355 26285 26285 26336 26394 26430 26494 26592 26655 26610 26417 26235 26145 26146 26195 26264 26335 26448 26480 26377 26291 26207 26255 26267 26280 26398 26486 26588 26652 26512 26325 26239 26263 26356 26433 26530 26596 26603 26588 26680 26725 26749 26738 26817 26903 26921 26953 27002 27045 27059 27071 27023 26905 26818 26855 26943 26915 26901 26805 26683 26569 26460 26438 26465 26556 26685 26774 26752 26811 26766 26654 26580 26669 26867 27156 27385 27603 27717 27645 27356 27194 27052 26954 26911 26950 27003 27054 27087 27082 26930 26786 26684 26623 26685 26798 26889 26907 26866 26917 26866 26781 26640 26578 26704 26770 26809 26713 26728 26713 26604 26510 26447 26520 26725 26871 27034 27067 27009 26992 26829 26640 26446 26372 26407 26455 26530 26601 26647 26622 26532 26373 26297 26314 26402 26415 26399 26422 26479 26456 26455 26427 26431 26484 26546 26634 26725 26784 26888 26893 26874 26859 26788 26814 26814 26921 27097 27229 27324 27374 27371 27312 27273 27211 27202 27222 27207 27221 27200 27167 27096 27005 26980 27062 27147 27293 27346 27362 27319 27195 27064 27004 27008 26993 27013 27032 27089 27065 26918 26792 26679 26642 26642 26625 26641 26622 26645 26700 26656 26588 26562 26601 26639 26720 26775 26842 26822 26768 26603 26491 26485 26492 26523 26596 26601 26634 26616 26606 26579 26576 26580 26609 26658 26713 26783 26832 26816 26712 26583 26532 26523 26564 26628 26686 26613 26613 26583 26500 26386 26371 26372 26456 26548 26574 26575 26533 26391 26293 26305 26378 26479 26587 26656 26675 26633 26613 26562 26477 26387 26352 26384 26441 26506 26573 26564 26503 26329 26227 26176 26172 26227 26307 26350 26428 26456 26418 26337 26287 26276 26288 26338 26395 26407 26474 26500 26428 26299 26224 26242 26241 26317 26373 26403 26499 26544 26492 26410 26333 26351 26380 26460 26504 26579 26573 26499 26368 26257 26230 26265 26316 26362 26374 26370 26355 26366 26348 26359 26355 26393 26451 26531 26566 26579 26568 26505 26394 26304 26277 26303 26333 26380 26412 26446 26424 26460 26479 26514 26563 26619 26668 26718 26694 26608 26540 26402 26312 26240 26236 26271 26327 26354 26356 26379 26377 26376 26371 26402 26510 26615 26666 26739 26768 26730 26624 26516 26459 26497 26530 26604 26662 26683 26708 26707 26719 26726 26735 26798 26885 26906 26958 26953 26898 26824 26780 26749 26747 26774 26779 26777 26736 26688 26676 26696 26715 26705 26754 26799 26842 26811 26788 26769 26822 26912 26867 26823 26775 26766 26784 26822 26795 26811 26885 26963 27002 26991 27005 26931 26846 26815 26834 26992 27088 27128 27079 26992 26858 26841 26808 26778 26835 26917 26999 27047 27086 27067 27051 26985 26844 26768 26810 26923 26991 26933 26807 26692 26738 26741 26751 26752 26804 26854 26916 26926 26912 26801 26690 26537 26490 26577 26741 26878 26811 26614 26583 26566 26525 26530 26602 26658 26741 26852 26892 26839 26686 26545 26497 26571 26784 26936 27059 27101 26958 26773 26697 26638 26609 26652 26752 26803 26876 26919 26837 26683 26416 26203 26210 26377 26684 26934 27011 26920 26790 26691 26503 26440 26428 26449 26511 26601 26651 26693 26678 26521 26371 26367 26449 26529 26604 26615 26610 26576 26543 26464 26437 26430 26448 26512 26594 26650 26686 26674 26530 26397 26350 26358 26432 26508 26537 26535 26531 26530 26495 26447 26442 26410 26447 26521 26613 26638 26652 26575 26468 26418 26386 26431 26509 26563 26551 26554 26596 26566 26569 26552 26523 26544 26605 26656 26720 26729 26682 26581 26508 26455 26460 26554 26623 26602 26622 26636 26646 26638 26620 26567 26524 26559 26615 26666 26696 26642 26572 26530 26488 26474 26509 26559 26560 26568 26571 26585 26597 26629 26638 26601 26621 26674 26722 26764 26718 26665 26608 26562 26533 26516 26524 26585 26600 26590 26592 26628 26674 26694 26704 26734 26775 26782 26769 26718 26634 26587 26557 26516 26514 26517 26579 26597 26558 26571 26606 26677 26689 26672 26659 26679 26696 26740 26738 26665 26620 26608 26602 26568 26559 26591 26608 26619 26684 26688 26707 26784 26788 26754 26766 26797 26815 26791 26718 26672 26673 26679 26626 26600 26619 26656 26609 26663 26727 26742 26795 26796 26825 26872 26878 26845 26806 26677 26587 26528 26546 26569 26539 26545 26584 26580 26642 26693 26699 26741 26772 26826 26848 26837 26840 26819 26737 26638 26601 26648 26665 26664 26621 26580 26569 26525 26596 26671 26752 26799 26840 26866 26877 26869 26879 26894 26826 26754 26730 26782 26789 26768 26721 26679 26638 26638 26670 26691 26752 26795 26853 26865 26879 26842 26822 26770 26665 26663 26711 26765 26765 26699 26629 26567 26479 26578 26644 26697 26717 26737 26786 26830 26800 26728 26642 26516 26508 26548 26604 26694 26713 26652 26591 26495 26528 26607 26650 26698 26747 26843 26947 26965 26896 26763 26594 26531 26538 26592 26634 26702 26705 26639 26493 26442 26449 26481 26516 26556 26672 26782 26835 26840 26745 26572 26458 26436 26480 26538 26621 26690 26710 26645 26553 26529 26500 26513 26554 26616 26697 26798 26868 26848 26685 26470 26357 26360 26425 26498 26577 26612 26616 26539 26487 26441 26410 26424 26457 26504 26590 26650 26680 26670 26486 26293 26212 26231 26281 26338 26406 26440 26365 26384 26409 26415 26386 26387 26433 26511 26569 26620 26625 26578 26435 26308 26277 26263 26321 26426 26476 26477 26461 26484 26496 26535 26531 26518 26560 26617 26675 26683 26635 26589 26549 26520 26470 26471 26491 26516 26522 26501 26545 26588 26613 26619 26597 26574 26592 26632 26590 26519 26466 26462 26452 26432 26416 26424 26488 26502 26550 26609 26589 26618 26601 26596 26629 26627 26647 26626 26613 26577 26543 26572 26620 26645 26629 26544 26457 26445 26491 26542 26601 26690 26795 26881 26905 26819 26620 26526 26499 26482 26520 26550 26622 26614 26515 26392 26360 26383 26449 26487 26539 26600 26693 26743 26705 26530 26392 26291 26268 26307 26366 26439 26510 26459 26319 26239 26286 26310 26371 26415 26448 26550 26657 26682 26615 26461 26316 26289 26334 26424 26514 26604 26668 26566 26459 26388 26342 26363 26438 26486 26564 26653 26704 26651 26506 26329 26236 26255 26325 26403 26499 26569 26514 26402 26361 26299 26297 26339 26393 26486 26603 26660 26685 26572 26406 26269 26268 26298 26390 26494 26580 26600 26598 26531 26458 26395 26385 26388 26475 26580 26701 26701 26642 26515 26381 26350 26404 26542 26626 26663 26616 26563 26536 26505 26527 26521 26558 26642 26725 26780 26861 26971 27078 27165 27166 27118 27111 27044 27031 27017 27116 27238 27288 27361 27333 27338 27340 27457 27593 27661 27652 27674 27659 27672 27747 27888 28022 28188 28301 28429 28594 28717 28786 28835 28888 28934 28995 29087 29198 29313 29411 29395 29251 29139 29077 29100 29175 29340 29548 29697 29816 29890 29924 29926 29934 29964 30068 30149 30197 30189 30164 30117 30081 30129 30212 30357 30518 30629 30593 30470 30327 30135 29869 29599 29469 29374 29227 29140 29083 29021 28975 28950 28912 28916 28938 29003 29006 28908 28708 28602 28526 28476 28437 28377 28281 28227 28161 28130 28029 27903 27793 27652 27502 27437 27409 27436 27446 27489 27454 27494 27538 27527 27420 27277 27215 27169 27102 27144 27214 27253 27225 27135 26980 26865 26824 26820 26828 26854 26927 27015 27015 26961 26877 26860 26874 26904 26965 27011 27051 27046 26940 26837 26798 26794 26844 26918 27012 27124 27229 27262 27198 27086 27014 27017 27074 27153 27230 27312 27351 27311 27197 27091 27014 27010 26992 27015 27022 27066 27078 26963 26829 26741 26733 26775 26828 26861 26952 27020 26982 26931 26878 26863 26896 26953 27037 27113 27192 27247 27212 27133 27071 27070 27107 27153 27210 27278 27357 27368 27299 27222 27175 27199 27228 27295 27386 27449 27491 27494 27380 27289 27250 27248 27285 27369 27436 27508 27543 27518 27456 27416 27394 27434 27531 27653 27753 27761 27871 27855 27874 27948 27938 27898 27859 27853 27891 28022 28104 28106 28081 28094 28133 28200 28312 28422 28458 28424 28353 28227 28139 28070 28078 28108 28108 28106 28144 28128 28120 28088 28088 28128 28181 28213 28166 28143 28131 28104 28046 27956 27866 27829 27786 27749 27760 27809 27798 27769 27854 27881 27883 27909 27874 27850 27835 27814 27804 27716 27667 27775 27887 27939 27936 28021 28067 27949 27859 27782 27759 27705 27629 27532 27560 27560 27589 27548 27526 27514 27436 27348 27310 27312 27297 27290 27280 27302 27340 27374 27373 27328 27227 27223 27243 27217 27200 27184 27204 27203 27150 27083 27093 27108 27075 27095 27126 27149 27166 27170 27128 27051 27002 27018 27024 27050 27095 27126 27222 27177 27097 27052 27060 26953 26872 26852 26930 27000 27070 27091 27086 27028 26873 26744 26684 26779 26900 26997 26995 26929 26882 26827 26801 26844 26919 26908 26843 26890 26894 26890 26839 26847 26998 27135 27172 27078 27082 27073 26974 26835 26697 26597 26642 26689 26667 26734 26718 26702 26678 26593 26513 26494 26485 26499 26586 26650 26722 26688 26549 26426 26543 26727 26791 26733 26779 26810 26862 26838 26812 26794 26783 26791 26854 27028 27139 27153 27129 27056 26966 26963 27021 27106 27146 27175 27205 27079 26966 26826 26765 26772 26788 26879 26860 26802 26770 26740 26723 26724 26715 26772 26834 26906 27016 27062 27199 27139 27052 27082 27027 26978 27007 27058 27155 27284 27334 27409 27360 27227 27090 27070 27081 27099 27114 27084 27273 27493 27544 27272 27187 27122 27142 27267 27478 27617 27748 27730 27617 27378 27322 27346 27385 27400 27374 27577 27659 27649 27430 27440 27390 27391 27437 27516 27658 27748 27730 27633 27471 27397 27411 27452 27493 27464 27422 27563 27669 27467 27381 27341 27290 27321 27418 27525 27575 27569 27512 27381 27322 27360 27426 27493 27506 27514 27717 27969 27755 27502 27444 27424 27435 27632 27847 28037 28088 27986 27720 27567 27501 27485 27555 27632 27653 27725 27735 27549 27259 27170 27173 27196 27320 27451 27404 27256 27139 26997 26887 26905 26929 26999 27054 27105 27181 27382 27418 27100 26951 26925 26968 27191 27451 27656 27758 27646 27354 27146 27080 27055 27093 27261 27388 27539 27774 27811 27402 27183 27130 27124 27215 27423 27625 27666 27636 27513 27291 27177 27153 27154 27263 27352 27391 27539 27756 27606 27264 27166 27149 27231 27450 27618 27564 27434 27308 27225 27130 27118 27129 27178 27172 27100 27271 27368 27300 27210 27166 27087 27088 27154 27243 27214 27221 27351 27293 27182 27117 27088 27082 27021 26992 27153 27357 27368 27309 27269 27175 27131 27190 27372 27521 27521 27527 27464 27328 27236 27159 27166 27149 27076 27154 27232 27224 27177 27247 27178 27146 27134 27171 27181 27164 27174 27217 27232 27162 27125 27104 27077 27061 27110 27162 27180 27171 27233 27291 27260 27214 27202 27215 27241 27254 27265 27301 27295 27296 27282 27269 27212 27174 27163 27210 27204 27224 27219 27285 27291 27298 27315 27285 27352 27480 27569 27684 27736 27658 27521 27480 27454 27442 27350 27543 27655 27667 27579 27592 27584 27548 27551 27489 27495 27556 27602 27674 27697 27638 27504 27462 27480 27510 27559 27575 27581 27569 27537 27461 27456 27450 27478 27535 27542 27487 27451 27430 27409 27394 27394 27379 27433 27476 27489 27489 27474 27508 27541 27538 27507 27507 27547 27603 27627 27568 27517 27392 27287 27242 27243 27264 27316 27384 27430 27420 27406 27425 27427 27423 27405 27411 27482 27557 27587 27530 27471 27406 27308 27249 27225 27271 27343 27445 27583 27569 27538 27509 27423 27368 27349 27459 27545 27622 27606 27630 27630 27607 27507 27460 27548 27766 27888 27866 27852 27915 27830 27755 27695 27682 27716 27760 27793 27826 27790 27808 27729 27571 27392 27295 27343 27540 27719 27733 27576 27633 27714 27614 27391 27232 27218 27296 27373 27489 27562 27570 27439 27190 26990 26941 27091 27401 27652 27744 27652 27598 27549 27384 27227 27203 27224 27290 27335 27413 27431 27425 27309 27119 26948 26898 26966 27058 27165 27216 27239 27217 27061 26872 26782 26721 26780 26890 26956 27043 27136 27205 27200 27069 26875 26843 26907 27057 27239 27511 27686 27806 27702 27556 27439 27331 27252 27303 27420 27498 27595 27621 27531 27338 27179 27082 27088 27129 27199 27288 27396 27459 27400 27273 27099 27029 27104 27135 27101 27110 27169 27249 27272 27224 27170 27087 27021 27043 27060 27097 27156 27209 27213 27134 27000 26923 26933 26935 27004 27150 27287 27381 27390 27258 27167 27060 27001 27048 27145 27252 27368 27378 27234 27143 27105 27059 27043 27076 27180 27279 27358 27422 27451 27413 27334 27266 27263 27300 27333 27414 27521 27549 27510 27379 27366 27361 27378 27417 27489 27562 27640 27710 27635 27575 27455 27396 27403 27420 27482 27570 27615 27596 27474 27378 27393 27424 27419 27496 27605 27624 27682 27665 27624 27561 27484 27455 27471 27488 27546 27615 27673 27698 27624 27550 27486 27517 27537 27557 27617 27692 27743 27753 27718 27643 27578 27519 27487 27494 27548 27593 27636 27592 27481 27406 27387 27441 27517 27579 27663 27760 27836 27845 27735 27591 27553 27523 27551 27573 27673 27747 27781 27681 27534 27415 27394 27410 27445 27543 27630 27718 27767 27766 27700 27544 27419 27372 27385 27428 27487 27571 27637 27605 27485 27306 27253 27283 27291 27341 27378 27418 27440 27427 27316 27209 27166 27149 27193 27226 27296 27364 27414 27371 27273 27153 27103 27143 27182 27239 27335 27397 27492 27511 27472 27299 27182 27139 27146 27207 27301 27396 27498 27460 27357 27250 27250 27353 27387 27357 27380 27428 27476 27518 27455 27336 27252 27266 27324 27395 27413 27477 27515 27469 27410 27416 27473 27531 27582 27614 27646 27644 27615 27595 27624 27648 27651 27702 27806 27840 27859 27889 27942 27905 27937 28006 28069 28106 28168 28324 28492 28625 28673 28590 28486 28420 28409 28429 28412 28376 28353 28405 28435 28440 28489 28531 28637 28732 28822 28905 28964 29049 29056 29008 28928 28878 28841 28800 28748 28806 28917 28972 28823 28586 28426 28350 28351 28376 28407 28467 28526 28570 28530 28451 28370 28331 28268 28310 28721 29045 29265 29375 29450 29488 29513 29579 29567 29565 29661 29753 29812 29866 29911 29903 29915 29926 29930 29907 29940 29986 30062 30019 29905 29786 29626 29197 29056 29002 28998 29011 28978 28886 28743 28663 28543 28428 28321 28264 28257 28436 28607 28632 28568 28307 28247 28117 28194 28214 28266 28360 28403 28365 28285 28202 28109 27998 27952 27956 28047 28288 28448 28456 28373 28115 28020 28022 28137 28152 28149 28151 28084 27920 27756 27699 27629 27616 27629 27648 27742 27875 27818 27641 27460 27505 27527 27553 27636 27759 27834 27920 27922 27866 27776 27713 27652 27634 27732 27788 27864 27853 27776 27716 27638 27621 27609 27640 27664 27793 27874 27925 27988 28010 27967 27856 27758 27711 27710 27787 27879 27893 27849 27798 27750 27659 27705 27758 27774 27871 27980 27990 27982 28022 28037 28018 27954 27835 27753 27737 27709 27686 27687 27736 27785 27856 27871 27848 27871 27934 27929 27922 27952 28025 28088 28151 28137 28050 27976 27874 27777 27729 27731 27770 27866 27967 28065 28073 28081 28084 28033 27932 27983 28073 28156 28246 28262 28263 28211 28114 28037 28011 28029 28104 28163 28235 28312 28286 28229 28150 28099 27995 27971 28063 28172 28258 28356 28364 28259 28094 27891 27776 27780 27869 27982 28040 28097 28155 28064 27932 27805 27750 27756 27861 27956 28058 28139 28171 28100 27929 27749 27682 27686 27758 27894 28063 28236 28353 28138 27895 27807 27718 27712 27815 27937 28012 28080 28116 28013 27812 27600 27524 27524 27546 27630 27758 27848 27863 27798 27606 27471 27475 27516 27544 27617 27765 27864 27872 27812 27699 27591 27498 27485 27492 27528 27719 27926 27962 27980 27917 27652 27580 27590 27613 27629 27791 27894 27890 27825 27768 27683 27644 27609 27619 27657 27715 27792 27816 27791 27791 27761 27693 27706 27769 27834 27849 27928 27987 28007 28034 28019 27959 27939 27951 27955 27917 27874 27857 27976 28120 28193 28183 28238 28212 28273 28226 28144 28130 28112 28150 28208 28243 28216 28145 28110 28076 28034 28022 28081 28129 28189 28256 28241 28263 28314 28307 28276 28259 28323 28374 28490 28546 28519 28499 28435 28326 28300 28344 28386 28435 28499 28590 28649 28787 28772 28581 28457 28453 28514 28585 28672 28755 28729 28714 28685 28515 28379 28335 28370 28478 28561 28596 28603 28538 28373 28275 28253 28217 28229 28326 28434 28493 28543 28568 28466 28234 28040 27979 28018 28114 28210 28304 28358 28303 28207 28076 28019 27982 27980 28129 28193 28280 28354 28383 28282 28086 27872 27797 27797 27881 27988 28084 28130 28129 27969 27826 27757 27782 27775 27861 27947 28041 28138 28168 28074 27875 27672 27621 27628 27730 27845 27984 28053 28114 27883 27738 27712 27705 27686 27822 27891 27949 28029 28087 28069 27902 27756 27686 27709 27770 27860 27993 28110 28111 27880 27745 27679 27679 27709 27771 27812 27879 27995 27997 27902 27744 27602 27566 27612 27680 27754 27846 27894 27838 27726 27614 27637 27697 27759 27812 27914 28043 28112 28118 27992 27844 27753 27780 27850 27948 28075 28153 28187 28199 28164 28199 28248 28335 28403 28445 28502 28596 28641 28704 28759 28775 28835 28946 29010 29026 29033 29079 29185 29252 29373 29415 29428 29448 29484 29507 29451 29468 29397 29281 29159 29068 28940 28865 28831 28840 28843 28843 28741 28589 28460 28429 28436 28446 28509 28602 28663 28622 28547 28408 28326 28268 28294 28381 28444 28507 28547 28521 28416 28282 28208 28164 28182 28278 28365 28455 28473 28455 28347 28179 28056 28045 28155 28312 28434 28452 28455 28374 28225 28074 27972 27919 27944 28035 28089 28165 28215 28213 28087 27953 27862 27849 27855 27940 28024 28022 28038 27981 27815 27720 27649 27635 27780 27874 27930 27942 27952 27900 27729 27604 27547 27606 27692 27762 27787 27828 27862 27773 27665 27610 27622 27687 27802 27894 27916 27950 28005 27965 27822 27715 27639 27694 27731 27798 27825 27824 27783 27706 27688 27644 27673 27862 27897 27913 27946 27990 27997 27916 27782 27648 27620 27669 27754 27773 27817 27883 27905 27866 27821 27848 27915 28069 28141 28137 28173 28236 28229 28120 27998 27867 27875 27974 28060 28048 28106 28194 28156 28162 28172 28163 28204 28246 28246 28270 28259 28202 28100 27977 27893 27865 27911 27960 28008 28064 28078 28140 28172 28077 27998 27958 27987 28029 28080 28104 28138 28129 28033 27943 27898 27913 27995 28056 28123 28152 28180 28219 28244 28148 28072 28017 28012 28062 28090 28117 28149 28088 27963 27877 27851 27899 27989 28057 28077 28097 28125 28169 28147 28084 28080 28155 28267 28368 28413 28399 28370 28254 28078 27998 28001 28067 28159 28260 28338 28478 28586 28611 28590 28581 28635 28676 28751 28797 28827 28871 28878 28884 28906 28914 28909 28873 28830 28941 29061 29062 28944 28741 28595 28474 28330 28402 28476 28565 28609 28649 28621 28460 28277 28173 28182 28204 28239 28292 28312 28178 28009 27948 27914 27962 27989 28092 28166 28309 28400 28363 28239 28055 27980 28030 28141 28190 28246 28297 28192 28038 27925 27891 27893 27943 27978 28018 28112 28227 28216 28108 27966 27836 27780 27816 27861 27917 27977 28021 27952 27874 27714 27633 27740 27837 27869 27888 27986 28063 28078 28087 27998 27896 27790 27769 27789 27824 27896 27889 27803 27776 27757 27812 27877 27942 27990 28010 28046 28051 28058 28032 28038 27950 27849 27836 27843 27898 27876 27884 27883 27859 27837 27874 27923 27940 27982 28055 28041 28001 28030 28032 28048 28191 28224 28205 28240 28276 28285 28261 28237 28240 28217 28263 28285 28267 28304 28318 28309 28285 28294 28281 28294 28276 28252 28230 28236 28208 28209 28210 28229 28257 28312 28294 28289 28284 28336 28381 28367 28363 28390 28423 28439 28454 28444 28403 28350 28312 28296 28325 28345 28387 28421 28410 28363 28374 28372 28357 28325 28347 28378 28448 28533 28579 28550 28507 28401 28262 28195 28218 28295 28382 28449 28458 28423 28384 28324 28239 28163 28176 28186 28208 28245 28304 28350 28343 28276 28111 27964 27936 27954 28038 28110 28161 28224 28170 28035 27880 27763 27768 27793 27883 27998 28099 28169 28192 28061 27852 27676 27595 27614 27687 27804 27903 27991 27983 27873 27736 27514 27504 27605 27696 27772 27834 27915 27973 27946 27864 27928 27911 27890 27822 27804 27813 27786 27710 27601 27597 27592 27632 27708 27728 27746 27804 27868 27829 27773 27765 27743 27761 27718 27623 27646 27681 27671 27652 27598 27660 27674 27726 27737 27740 27741 27795 27783 27712 27776 27850 27891 27943 27965 27941 27947 27884 27793 27720 27675 27729 27794 27856 27894 27935 27906 27920 27898 27882 27876 27964 27992 28012 28086 28145 28108 28002 27845 27714 27688 27743 27811 27887 27983 28084 28058 27909 27783 27670 27764 27851 27930 27992 28024 28121 28154 28128 27983 27890 27847 27853 27855 27902 27978 28004 27971 27924 27838 27790 27847 27906 27911 27936 28030 28107 28112 28065 28011 27964 27977 27952 27911 27896 27926 27945 27930 27930 27938 28018 28116 28274 28274 28253 28203 28059 27969 27895 27908 27938 28013 28135 28254 28340 28335 28275 28252 28240 28218 28210 28256 28321 28328 28303 28278 28162 28034 27956 27983 27955 27969 28005 28097 28137 28009 27857 27746 27727 27738 27751 27784 27932 28036 27914 27788 27663 27644 27683 27714 27783 27885 27941 27983 27908 27925 27870 27806 27888 27926 28000 28004 28017 27924 27787 27663 27554 27544 27573 27613 27586 27542 27548 27586 27543 27546 27492 27458 27499 27503 27496 27540 27546 27541 27500 27408 27377 27417 27469 27473 27527 27589 27649 27643 27613 27582 27527 27565 27570 27598 27645 27645 27610 27515 27429 27383 27387 27442 27510 27556 27568 27551 27605 27604 27549 27540 27516 27504 27526 27597 27677 27761 27811 27732 27596 27500 27478 27537 27591 27643 27696 27701 27636 27560 27547 27546 27570 27588 27597 27667 27726 27802 27783 27661 27461 27452 27488 27572 27671 27755 27784 27816 27791 27691 27638 27654 27681 27685 27723 27745 27756 27795 27823 27806 27697 27670 27685 27755 27786 27821 27850 27866 27832 27784 27651 27575 27580 27625 27679 27793 27887 27962 27975 27864 27589 27412 27380 27413 27457 27491 27567 27606 27565 27450 27366 27371 27382 27429 27514 27558 27608 27696 27708 27628 27485 27405 27380 27365 27406 27468 27506 27502 27458 27415 27393 27343 27397 27511 27595 27599 27674 27687 27668 27582 27559 27499 27479 27488 27509 27553 27630 27613 27519 27460 27430 27401 27461 27576 27616 27620 27649 27620 27548 27494 27491 27547 27551 27532 27538 27588 27639 27588 27528 27516 27555 27596 27631 27621 27656 27731 27780 27771 27730 27681 27625 27616 27733 27785 27820 27834 27829 27765 27757 27760 27784 27812 27864 27880 27874 27918 27941 27910 27859 27786 27777 27802 27824 27933 27963 27983 27985 27946 27941 27972 28006 28034 28065 28093 28117 28150 28133 28105 28044 28003 27968 27947 27950 27965 27993 28105 28065 27984 27887 27861 27831 27873 27914 27945 28010 28011 27936 27824 27728 27716 27732 27759 27784 27815 27842 27878 27925 27849 27740 27692 27678 27693 27731 27763 27791 27811 27733 27634 27536 27504 27513 27539 27570 27603 27696 27747 27740 27739 27724 27610 27590 27569 27580 27583 27602 27616 27583 27521 27521 27552 27575 27628 27638 27647 27656 27617 27544 27510 27486 27526 27553 27544 27566 27578 27555 27484 27440 27430 27463 27527 27597 27626 27745 27848 27999 28137 28211 28248 28291 28347 28402 28475 28554 28650 28737 28843 28819 28810 28835 28856 28903 28919 28986 29067 29122 29144 29132 29074 29039 29028 29039 28969 28889 29025 29150 29150 29105 28960 28871 28856 28879 28860 28835 28841 28828 28713 28544 28422 28457 28514 28594 28684 28839 28986 28887 28751 28580 28413 28373 28400 28487 28570 28695 28811 28819 28730 28541 28440 28306 28296 28340 28405 28442 28491 28472 28424 28269 28105 28003 27996 28026 28031 28187 28437 28630 28597 28430 28196 28056 28031 27937 27943 28025 28125 28213 28272 28283 28085 27927 27862 27827 27826 27850 27843 27834 27815 27805 27849 27890 27941 27862 27685 27550 27390 27423 27497 27535 27519 27554 27592 27528 27353 26982 26890 26938 26918 27022 27128 27255 27275 27307 27362 27306 27221 27123 26953 26832 26810 27068 27225 27333 27411 27490 27503 27360 27180 27072 27070 27191 27341 27483 27589 27666 27768 27797 27625 27333 27208 27098 27103 27230 27397 27649 27815 27837 27752 27651 27485 27357 27348 27425 27526 27693 27847 27858 27789 27782 27747 27642 27536 27517 27486 27479 27536 27697 27783 27847 27948 27980 27953 27801 27718 27686 27668 27681 27783 27882 27959 28047 28141 28231 28185 28150 28095 27976 27921 27885 27985 28143 28203 28226 28155 28137 28021 27890 27848 27826 27892 27900 27938 28048 28149 28191 28110 28009 27800 27745 27767 27758 27783 27963 28100 28148 28108 28060 28011 27981 27945 27941 27977 28022 28071 28109 28092 28087 28093 28158 28118 28067 28010 28070 28057 28006 28135 28206 28287 28343 28326 28181 28158 28197 28245 28284 28352 28433 28492 28506 28556 28603 28419 28277 28253 28130 28007 27964 28094 28189 28305 28388 28366 28353 28217 28018 27896 27879 27980 28119 28252 28337 28365 28209 28004 27844 27803 27814 27829 27904 28058 28150 28235 28269 28095 27950 27794 27708 27694 27735 27820 27920 28084 28088 27925 27738 27654 27659 27697 27749 27809 28016 28097 28125 28030 27909 27822 27745 27697 27707 27804 27928 28010 28004 27932 27907 27837 27815 27853 27896 27940 28043 28155 28185 28179 28182 28161 28083 28033 27980 27975 28006 28035 28009 27967 28013 28064 28098 28119 28103 28107 28174 28172 28117 28128 28233 28325 28348 28395 28418 28422 28433 28410 28339 28280 28279 28334 28625 28785 28828 28699 28586 28585 28480 28385 28347 28448 28548 28586 28664 28682 28648 28578 28437 28341 28318 28344 28457 28561 28547 28580 28556 28441 28335 28271 28227 28240 28370 28482 28565 28646 28639 28614 28432 28287 28158 28148 28195 28294 28463 28646 28803 28744 28545 28336 28129 28059 28008 28031 28056 28134 28192 28246 28138 27956 27803 27754 27727 27756 27800 27941 28023 28027 27857 27675 27424 27406 27456 27468 27494 27670 27797 27932 27930 27777 27578 27440 27347 27328 27363 27423 27492 27614 27664 27633 27402 27318 27339 27477 27489 27500 27648 27768 27803 27815 27684 27546 27442 27454 27487 27579 27686 27770 27774 27691 27584 27477 27398 27398 27433 27499 27543 27644 27700 27740 27755 27705 27665 27635 27586 27571 27567 27593 27597 27606 27606 27590 27604 27615 27626 27678 27721 27811 27880 27913 27935 27952 27971 27956 27947 27930 27899 27891 27838 27837 27867 27868 27908 27901 27893 27912 27966 28027 28045 28042 28033 28070 28114 28141 28152 28177 28170 28170 28138 28104 28113 28141 28169 28171 28135 28148 28196 28266 28288 28314 28366 28427 28497 28524 28463 28480 28484 28501 28480 28474 28513 28524 28533 28521 28549 28510 28536 28580 28557 28535 28512 28548 28611 28637 28626 28629 28622 28588 28527 28407 28397 28457 28499 28535 28523 28538 28507 28534 28557 28496 28440 28467 28472 28550 28614 28625 28599 28553 28447 28402 28350 28323 28368 28413 28459 28531 28582 28681 28714 28705 28719 28760 28819 28901 28976 29002 28987 28970 28923 28851 28755 28666 28668 28706 28737 28741 28775 28815 28806 28775 28754 28780 28815 28844 28815 28736 28679 28597 28446 28346 28281 28297 28367 28397 28469 28569 28680 28819 28881 28893 28911 28973 28963 28859 28896 28932 28958 28996 29022 29029 29001 29019 29056 29057 29076 29166 29229 29231 29246 29234 29283 29306 29350 29406 29467 29533 29551 29576 29555 29575 29565 29574 29587 29609 29648 29626 29561 29463 29296 29188 29138 29134 29117 29170 29208 29255 29216 29114 28974 28847 28776 28726 28745 28753 28758 28723 28680 28622 28503 28451 28464 28451 28523 28534 28592 28655 28766 29301 29944 30573 30699 30781 30788 30821 30871 30890 30859 30840 30808 30751 30794 30840 30884 30923 30900 30846 30860 30878 31068 31333 31391 31432 31464 31459 31401 31274 31198 31167 31141 30934 30541 30008 29785 29705 29642 29599 29618 29667 29626 29467 29384 29335 29299 29310 29287 29273 29248 29236 29278 29408 29488 29476 29262 29119 28935 28820 28744 28705 28774 28896 28881 28904 28816 28674 28497 28401 28385 28459 28557 28628 28729 28741 28687 28567 28477 28361 28275 28296 28344 28448 28563 28607 28666 28564 28334 28169 28091 28113 28152 28222 28351 28537 28665 28534 28444 28349 28275 28260 28308 28337 28468 28542 28606 28584 28559 28413 28616 28893 29058 29189 29253 29168 29019 28909 28712 28545 28461 28554 28591 28595 28645 28684 28665 28619 28526 28469 28463 28454 28438 28441 28459 28428 28411 28469 28534 28551 28573 28602 28652 28747 28807 28742 28672 28695 28760 28802 28852 28802 28753 28727 28663 28598 28576 28615 28724 28806 28867 28864 28807 28842 28835 28760 28729 28726 28781 28813 28869 28949 28982 28872 28683 28526 28590 28735 28836 28900 28910 28936 28946 28873 28752 28639 28657 28691 28728 28774 28858 28966 29041 29020 28876 28729 28608 28590 28623 28680 28758 28795 28750 28722 28671 28641 28672 28748 28778 28788 28853 28875 28870 28885 28862 28849 28877 28846 28793 28821 28828 28815 28768 28772 28802 28811 28833 28834 28895 28887 28835 28844 28821 28855 28901 28874 28909 28916 28867 28804 28734 28643 28653 28700 28762 28841 28857 28872 28872 28892 28843 28762 28724 28716 28760 28877 28931 28969 28932 28823 28682 28596 28595 28650 28713 28758 28832 28826 28755 28640 28544 28514 28522 28600 28679 28788 28866 28856 28783 28637 28457 28330 28337 28390 28499 28664 28774 28811 28725 28675 28578 28519 28558 28608 28646 28716 28777 28781 28687 28586 28518 28495 28467 28472 28494 28557 28589 28579 28537 28474 28433 28461 28555 28660 28690 28736 28765 28750 28748 28719 28732 28726 28681 28608 28605 28608 28553 28509 28481 28526 28536 28500 28495 28539 28561 28596 28576 28537 28550 28631 28677 28708 28655 28618 28578 28528 28484 28446 28482 28542 28605 28615 28579 28624 28687 28659 28622 28576 28621 28690 28753 28818 28849 28820 28750 28616 28524 28539 28601 28710 28815 28867 28845 28842 28867 28863 28803 28795 28828 28887 28922 28950 28975 28982 28882 28729 28640 28629 28663 28747 28840 28915 28981 28965 28846 28707 28650 28709 28755 28795 28867 28925 28993 28970 28934 28792 28658 28612 28630 28678 28746 28820 28891 28887 28802 28690 28648 28680 28723 28807 28918 29039 29154 29237 29232 29192 29111 29082 29027 28996 29011 29052 29112 29184 29228 29287 29366 29506 29636 29736 29838 29928 30045 30084 30075 30058 30049 30094 30130 30100 30022 29924 29811 29673 29480 29294 29217 29206 29044 29184 29285 29170 29062 29022 29007 29044 29212 29315 29300 29251 29179 29164 29129 29064 28989 28935 28946 28979 28881 28857 28878 28852 28784 28746 28731 28760 28831 28836 28795 28817 28807 28768 28732 28686 28664 28672 28652 28684 28660 28568 28602 28635 28619 28632 28629 28612 28649 28717 28736 28685 28714 28696 28642 28532 28449 28421 28482 28528 28573 28607 28614 28652 28658 28562 28438 28383 28440 28517 28556 28652 28688 28732 28641 28511 28444 28414 28481 28541 28631 28692 28722 28697 28646 28564 28466 28454 28518 28597 28664 28691 28677 28670 28564 28427 28336 28353 28409 28497 28575 28644 28697 28710 28617 28527 28465 28468 28497 28537 28547 28555 28553 28566 28591 28534 28453 28425 28469 28509 28593 28664 28713 28723 28640 28566 28499 28526 28610 28643 28711 28815 28815 28790 28731 28634 28509 28473 28471 28483 28546 28615 28668 28607 28528 28480 28413 28482 28533 28555 28563 28608 28613 28619 28593 28520 28454 28449 28473 28528 28577 28625 28636 28568 28476 28435 28398 28385 28452 28515 28553 28599 28608 28636 28655 28638 28625 28620 28579 28564 28539 28568 28565 28504 28495 28493 28534 28581 28585 28652 28704 28698 28690 28682 28683 28725 28692 28692 28674 28659 28644 28660 28656 28626 28629 28653 28720 28767 28810 28794 28792 28805 28839 28792 28721 28656 28682 28714 28786 28791 28793 28756 28711 28639 28603 28603 28650 28775 28806 28845 28902 28956 29005 28958 28893 28864 28876 28905 28935 28939 28957 28993 28991 28908 28835 28798 28815 28850 28885 28928 28911 28908 28889 28847 28801 28780 28787 28825 28855 28864 28879 28921 28959 28880 28810 28793 28828 28862 28918 28966 28992 28941 28867 28790 28683 28682 28720 28756 28777 28864 28923 28960 28901 28792 28639 28550 28553 28591 28658 28714 28769 28808 28814 28722 28608 28606 28616 28626 28646 28619 28640 28689 28695 28666 28538 28445 28383 28379 28404 28461 28520 28557 28538 28464 28381 28348 28380 28480 28616 28629 28618 28625 28649 28629 28558 28454 28398 28372 28345 28357 28420 28428 28425 28395 28350 28341 28362 28468 28518 28520 28524 28566 28569 28510 28476 28484 28463 28391 28375 28358 28391 28436 28513 28546 28599 28644 28716 28779 28868 28922 28995 29040 29056 29092 29069 29058 29084 29129 29184 29210 29237 29285 29273 29166 29071 29009 28972 28892 28829 28803 28797 28838 28914 28960 28989 29046 29067 29118 29068 29037 28989 28970 28973 28918 28915 28959 29000 29046 29095 29099 29090 29069 29057 29019 29008 29060 29113 29148 29224 29297 29254 29183 29054 28956 28963 28965 29001 29034 29082 29072 29066 29119 29148 29080 29049 28983 29077 29215 29259 29256 29185 29070 28832 28665 28661 28771 28841 28862 28886 28906 28867 28783 28632 28473 28356 28338 28365 28435 28472 28490 28552 28579 28452 28286 28173 28183 28214 28266 28319 28381 28435 28374 28278 28167 28076 28047 28063 28107 28159 28215 28307 28335 28298 28156 28050 28003 28061 28108 28179 28227 28244 28179 28125 28061 28000 28028 28121 28186 28271 28345 28410 28415 28334 28199 28095 28084 28129 28239 28300 28368 28371 28348 28226 28168 28133 28145 28251 28281 28376 28467 28545 28548 28462 28314 28203 28176 28207 28280 28339 28420 28445 28381 28270 28302 28314 28299 28368 28426 28502 28592 28629 28673 28559 28385 28302 28285 28312 28391 28459 28553 28626 28610 28506 28299 28320 28449 28525 28505 28597 28618 28607 28679 28792 28694 28600 28528 28545 28585 28693 28743 28764 28782 28745 28684 28719 28783 28862 28983 29077 29150 29218 29287 29185 29129 29091 29091 29106 29194 29252 29319 29449 29574 29640 29705 29779 29855 29918 30027 30078 30139 30253 30319 30300 30240 30193 30124 29990 29953 29910 29871 29863 29824 29648 29507 29377 29335 29265 29204 29193 29295 29386 29467 29498 29405 29259 29077 28976 28956 29023 29121 29235 29340 29418 29375 29042 28798 28806 28798 28780 28866 28943 29016 29061 29033 28958 28744 28583 28516 28535 28600 28674 28758 28811 28832 28692 28476 28388 28422 28485 28500 28602 28736 28833 28886 28867 28671 28474 28335 28253 28244 28279 28313 28410 28481 28467 28343 28219 28126 28125 28166 28175 28222 28256 28392 28513 28530 28412 28336 28268 28257 28227 28244 28269 28349 28399 28368 28306 28253 28205 28164 28167 28228 28311 28290 28346 28458 28477 28479 28448 28347 28316 28271 28215 28240 28301 28347 28334 28301 28361 28398 28391 28372 28386 28443 28508 28499 28528 28584 28630 28663 28671 28651 28616 28599 28600 28561 28527 28525 28544 28601 28691 28704 28667 28621 28657 28637 28586 28556 28618 28773 28871 28897 28928 28921 28901 28822 28703 28689 28779 28867 28933 29007 29087 29073 29031 28972 28942 28907 28836 28842 28889 28981 29048 29112 29127 29076 28928 28815 28780 28806 28876 28938 29018 29087 29105 29040 28902 28846 28808 28822 28833 28920 28989 29045 29119 29124 29010 28800 28685 28641 28652 28692 28750 28844 28893 28868 28792 28687 28495 28378 28411 28442 28452 28555 28629 28672 28658 28620 28540 28509 28414 28344 28316 28360 28412 28358 28317 28286 28298 28303 28191 28175 28230 28267 28299 28281 28328 28339 28383 28415 28441 28364 28260 28196 28184 28127 28150 28145 28200 28241 28269 28255 28192 28234 28275 28216 28213 28223 28318 28439 28460 28500 28490 28433 28316 28142 28014 28052 28152 28276 28336 28396 28423 28417 28322 28277 28281 28259 28253 28299 28386 28509 28561 28605 28611 28487 28390 28409 28504 28643 28748 28806 28878 28889 28831 28686 28572 28513 28586 28654 28765 28989 29137 29188 29067 28947 28851 28824 28750 28688 28814 28998 29077 29102 29010 28909 28891 28927 29007 29057 29125 29210 29259 29275 29258 29184 29194 29199 29262 29338 29395 29419 29432 29393 29320 29233 29218 29288 29347 29337 29370 29395 29427 29453 29400 29310 29251 29307 29357 29473 29541 29566 29538 29501 29441 29394 29342 29354 29382 29413 29447 29496 29500 29492 29450 29418 29367 29348 29365 29431 29434 29442 29363 29318 29217 29135 29064 29084 29123 29124 29150 29201 29287 29333 29362 29323 29280 29332 29440 29482 29468 29403 29344 29235 29206 29253 29310 29363 29385 29478 29552 29656 29726 29743 29745 29806 29931 29999 30237 30481 30661 30782 30805 30690 30568 30519 30657 30868 31076 31342 31520 31494 31369 31179 31006 30895 30895 30909 30846 30744 30704 30656 30526 30444 30361 30296 30310 30420 30517 30572 30649 30740 30753 30763 30713 30603 30512 30443 30414 30441 30478 30501 30486 30487 30509 30530 30549 30680 30754 30767 30716 30630 30496 30267 30095 30008 29998 29941 29885 29787 29672 29577 29445 29316 29252 29318 29384 29455 29500 29533 29530 29303 29073 28974 28908 28901 28928 28982 29080 29138 29143 29019 28829 28645 28550 28532 28589 28655 28705 28736 28655 28514 28369 28305 28319 28349 28408 28464 28539 28648 28603 28462 28279 28114 28026 28072 28231 28461 28603 28687 28650 28550 28222 28178 28233 28229 28286 28360 28438 28547 28558 28496 28395 28296 28278 28263 28281 28278 28294 28304 28221 28161 28106 28208 28241 28306 28341 28373 28440 28477 28457 28403 28403 28389 28388 28389 28419 28394 28439 28507 28493 28481 28470 28523 28606 28574 28620 28645 28683 28745 28730 28714 28658 28651 28622 28610 28590 28543 28518 28578 28607 28624 28673 28722 28852 28920 28909 28885 28866 28848 28923 29015 29061 29097 29018 28943 28852 28684 28570 28653 28747 28792 28900 29047 29231 29409 29577 29709 29825 29860 29863 29880 29872 29881 29905 29922 29985 30057 30077 30054 30020 29957 29962 29922 29851 29778 29748 29730 29682 29556 29432 29457 29544 29599 29677 29702 29654 29610 29498 29338 29278 29302 29392 29487 29619 29819 29938 29917 29778 29722 29454 29470 29495 29472 29349 29287 29356 29717 29865 29597 29173 29092 29163 29223 29138 29098 29121 29145 29088 28938 28810 28672 28550 28570 28625 28571 28614 28703 28752 28591 28414 28321 28240 28227 28259 28334 28405 28521 28491 28295 28091 27967 27938 27977 27995 28019 28083 28123 28108 28039 27921 27895 27889 27927 28041 28107 28193 28268 28229 28137 28069 28021 27961 27977 27947 27944 28013 28025 28026 27998 27901 27844 27794 27746 27728 27801 27909 28002 27969 27876 27791 27755 27730 27771 27854 27856 27971 27981 27957 27906 27928 27985 27968 27899 27875 27883 27990 28054 28062 28013 27957 27883 27773 27791 27868 27933 28058 28080 28094 28096 28034 27852 27710 27770 27920 28030 28118 28167 28087 28110 28089 28079 28064 28147 28111 28190 28247 28236 28184 28287 28274 28320 28363 28346 28370 28388 28443 28417 28324 28251 28222 28261 28297 28331 28414 28481 28561 28579 28509 28401 28307 28315 28338 28415 28405 28446 28421 28433 28412 28397 28426 28471 28533 28643 28705 28666 28603 28532 28458 28390 28375 28407 28459 28551 28598 28625 28660 28708 28740 28770 28773 28801 28853 28885 28836 28745 28679 28717 28729 28749 28787 28768 28808 28814 28786 28775 28818 28869 28946 28962 28950 28953 28917 28851 28814 28804 28842 28864 28861 28876 28877 28889 28887 28888 28887 28900 28943 28982 29021 29031 29014 29025 29003 28965 28964 28937 28961 29002 28995 28962 28948 28881 28845 28840 28844 28888 28922 28994 29045 29022 28984 28895 28866 28837 28833 28808 28834 28866 28859 28795 28723 28705 28693 28697 28732 28779 28812 28833 28851 28808 28818 28772 28750 28756 28754 28795 28831 28864 28827 28737 28622 28577 28555 28588 28640 28685 28728 28765 28779 28756 28654 28564 28525 28526 28548 28603 28688 28689 28583 28466 28376 28367 28421 28460 28503 28559 28606 28634 28589 28575 28500 28407 28404 28417 28467 28534 28575 28521 28457 28460 28532 28617 28665 28701 28767 28803 28836 28828 28788 28765 28848 28911 28947 28896 28884 29013 29039 28943 28800 28751 28761 28798 28813 28877 29011 29103 29142 29070 28924 28876 28878 28820 28851 28946 29169 29271 29414 29512 29547 29497 29545 29613 29646 29592 29406 29327 29317 29321 29482 29689 29888 30103 30041 30092 30187 30163 30193 30272 30380 30504 30609 30682 30740 30740 30762 30867 30975 31091 31158 31231 31375 31596 31752 31843 31826 31613 31448 31019 30627 30425 30376 30303 30210 29986 29703 29521 29372 29283 29249 29287 29422 29548 29585 29643 29585 29290 29132 29117 29061 29006 28986 29013 29019 28925 28844 28778 28760 28767 28755 28764 28798 28784 28690 28627 28571 28533 28480 28496 28576 28615 28610 28645 28677 28635 28631 28582 28584 28626 28655 28626 28610 28560 28447 28371 28313 28298 28356 28475 28570 28677 28775 28824 28869 28819 28808 28834 28849 28916 28964 29029 29061 29108 29093 29027 28951 28892 28888 28895 28871 28849 28842 28854 28875 28860 28876 28884 28874 28910 28895 28866 28867 28849 28796 28739 28697 28715 28760 28801 28803 28806 28822 28817 28793 28767 28746 28801 28858 28917 29015 29060 29075 29055 29023 28925 28896 28910 28925 28966 28994 29040 29063 29094 29106 29104 29085 29136 29194 29232 29285 29326 29369 29417 29416 29368 29343 29310 29323 29326 29421 29578 29559 29695 29963 30123 30179 30012 30028 30420 30647 30947 31022 30959 30606 30282 30078 29916 29794 29706 29528 29462 29318 29237 29301 29857 30228 30254 30191 30036 29988 30214 30542 31031 30950 30643 30282 30041 29902 29775 29643 29527 29325 29080 28927 28883 28890 29133 29346 29362 29266 29497 29750 30124 30382 30351 30136 29818 29651 29538 29373 29161 28969 28752 28529 28477 28479 28448 28436 28452 28524 28526 28415 28315 28221 28216 28241 28198 28159 28101 28064 28076 27977 27915 27885 27864 27846 27855 27906 27982 27920 27808 27741 27702 27703 27664 27698 27781 27839 27808 27740 27679 27685 27735 27800 27857 27832 27824 27829 27799 27737 27660 27653 27920 28029 28048 28049 28155 28166 28026 27902 27860 27905 27927 28017 28122 28204 28225 28089 27904 27858 27860 27841 27984 28224 28307 28253 28222 28261 28237 28098 28044 28061 28143 28197 28276 28325 28294 28177 28076 28044 28022 28057 28108 28224 28217 28216 28188 28188 28242 28273 28338 28370 28419 28485 28552 28554 28454 28349 28276 28247 28249 28313 28347 28397 28519 28588 28563 28535 28513 28366 28274 28303 28365 28441 28536 28543 28535 28510 28539 28580 28636 28714 28769 28778 28825 28860 29001 28985 28954 28886 29070 29289 29254 29073 28962 28877 28801 28783 28781 28780 28817 28824 28782 28766 28840 28858 28880 28846 28800 28778 28796 28777 28833 28820 28766 28692 28643 28638 28671 28713 28720 28718 28703 28675 28662 28599 28559 28626 28611 28631 28659 28664 28665 28648 28516 28388 28356 28379 28407 28449 28501 28528 28474 28410 28378 28324 28262 28271 28310 28365 28431 28494 28560 28616 28554 28398 28282 28272 28340 28401 28450 28485 28492 28439 28260 28138 28127 28110 28156 28184 28203 28267 28358 28356 28247 28081 27961 27932 27986 28080 28173 28223 28291 28254 28087 27966 27936 27959 28021 28082 28138 28192 28258 28293 28252 28095 27954 27896 27930 27983 28066 28164 28211 28216 28125 28017 27903 27960 28047 28078 28132 28213 28240 28264 28253 28213 28154 28134 28130 28132 28136 28204 28278 28287 28232 28197 28204 28210 28103 28172 28295 28337 28360 28368 28322 28302 28360 28425 28449 28424 28384 28387 28371 28346 28298 28300 28347 28410 28512 28612 28607 28563 28494 28548 28577 28696 28725 28724 28748 28808 28858 28805 28679 28482 28430 28466 28516 28605 28697 28785 28844 28931 28963 28812 28677 28610 28589 28625 28722 28846 28910 28947 28944 28844 28671 28580 28556 28593 28687 28748 28843 28890 28907 28855 28801 28737 28598 28594 28633 28678 28799 28840 28852 28875 28866 28800 28690 28658 28641 28630 28655 28693 28700 28662 28601 28611 28695 28702 28618 28612 28667 28630 28540 28549 28537 28578 28632 28655 28691 28669 28637 28583 28506 28454 28423 28463 28549 28642 28721 28705 28662 28601 28533 28394 28303 28362 28533 28602 28692 28729 28705 28678 28570 28431 28355 28386 28497 28586 28685 28767 28831 28793 28497 28336 28295 28296 28291 28342 28439 28500 28558 28569 28488 28347 28245 28211 28229 28310 28380 28468 28483 28429 28348 28293 28271 28277 28302 28347 28396 28428 28458 28438 28400 28428 28438 28468 28456 28463 28485 28485 28454 28411 28363 28341 28387 28460 28482 28533 28512 28468 28432 28382 28323 28348 28436 28445 28450 28495 28478 28491 28375 28268 28233 28265 28340 28418 28472 28533 28588 28566 28454 28343 28344 28407 28443 28505 28584 28648 28681 28728 28591 28478 28403 28373 28371 28392 28481 28535 28612 28591 28535 28489 28426 28424 28491 28585 28614 28589 28646 28723 28649 28592 28560 28549 28573 28587 28580 28591 28593 28559 28503 28482 28509 28518 28492 28501 28586 28629 28630 28598 28617 28645 28681 28719 28640 28624 28613 28619 28571 28518 28519 28528 28587 28643 28702 28728 28626 28532 28658 28600 28514 28466 28543 28614 28674 28754 28780 28747 28657 28500 28393 28355 28395 28438 28486 28526 28548 28569 28464 28365 28373 28414 28472 28566 28680 28694 28721 28701 28623 28401 28160 28103 28175 28292 28379 28435 28503 28515 28434 28348 28213 28250 28363 28432 28488 28516 28510 28507 28495 28424 28236 28196 28163 28165 28231 28298 28346 28356 28293 28232 28198 28201 28198 28249 28375 28438 28502 28506 28466 28400 28373 28322 28286 28292 28285 28314 28353 28357 28321 28275 28260 28277 28336 28376 28337 28403 28500 28503 28423 28331 28309 28322 28383 28402 28401 28439 28424 28377 28318 28279 28274 28313 28408 28457 28501 28504 28500 28575 28557 28469 28424 28398 28438 28480 28508 28524 28553 28559 28439 28362 28333 28375 28408 28447 28502 28521 28499 28406 28350 28294 28322 28378 28387 28428 28456 28497 28526 28516 28413 28318 28282 28313 28364 28426 28452 28475 28522 28443 28332 28274 28312 28403 28460 28460 28485 28542 28620 28566 28428 28338 28263 28242 28264 28317 28371 28428 28433 28357 28216 28150 28171 28261 28325 28398 28439 28450 28488 28535 28456 28338 28304 28292 28286 28288 28322 28358 28340 28270 28224 28184 28162 28116 28213 28267 28271 28332 28267 28215 28193 28184 28191 28186 28182 28198 28220 28245 28183 28155 28159 28198 28212 28225 28241 28289 28342 28417 28456 28432 28390 28407 28405 28392 28425 28446 28437 28411 28352 28325 28339 28379 28429 28441 28469 28495 28594 28593 28544 28490 28493 28508 28530 28539 28612 28704 28750 28686 28574 28535 28524 28589 28650 28672 28719 28745 28696 28654 28578 28510 28509 28539 28562 28591 28575 28669 28721 28633 28543 28516 28526 28607 28663 28731 28742 28738 28694 28614 28583 28583 28569 28594 28618 28637 28671 28666 28643 28501 28413 28362 28362 28403 28454 28532 28633 28658 28541 28419 28432 28503 28559 28614 28677 28730 28789 28815 28767 28737 28750 28815 28874 28913 28960 29008 29031 28946 28851 28833 28855 28868 28869 28883 28891 28934 28907 28815 28750 28713 28710 28729 28768 28807 28813 28830 28842 28808 28737 28732 28751 28781 28835 28897 28953 29035 29127 29229 29341 29289 29162 29065 28972 28913 28933 28939 28844 28872 28899 28845 28843 28876 28904 28948 29038 29092 29039 28993 28991 29026 29156 29300 29381 29430 29431 29380 29293 29308 29498 29684 29787 29937 30108 30237 30367 30461 30595 30815 31003 31131 31191 31320 31651 31941 31887 31550 31295 31194 31195 31315 31515 31590 31615 31608 31268 30740 30302 29974 29777 29708 29786 29833 29863 29800 29658 29432 29260 29123 29095 29072 29165 29299 29412 29393 29030 28748 28742 28734 28711 28711 28726 28769 28845 28860 28788 28574 28429 28330 28317 28311 28316 28453 28758 28982 29068 29057 28666 28556 28567 28576 28542 28567 28600 28564 28476 28382 28304 28278 28285 28302 28345 28384 28509 28653 28687 28695 28680 28414 28455 28584 28610 28839 28796 28675 28611 28597 28567 28486 28430 28405 28365 28334 28342 28463 28688 29033 29405 29614 29171 29128 29093 29051 29047 28981 28887 28821 28791 28805 28781 28735 28695 28704 28702 28757 29059 29485 29941 30267 29986 29774 29626 29571 29459 29315 29175 29159 29126 29088 29067 29063 29037 29028 29006 29080 29396 29937 30417 30678 30321 30084 30036 29941 29955 29890 29708 29626 29570 29504 29419 29360 29311 29283 29282 29224 29176 29239 29432 29657 29860 30075 30314 30468 30558 30676 30622 30524 30501 30475 30431 30464 30502 30596 30665 30676 30624 30425 30131 29969 29804 29652 29519 29495 29479 29445 29414 29339 29331 29397 29417 29387 29304 29181 29161 29132 29117 29154 29269 29365 29448 29559 29342 29248 29228 29227 29183 29163 29110 29105 29136 29143 29111 29063 28982 28901 28755 28665 28644 28722 28780 28825 28817 28759 28751 28816 28756 28665 28655 28683 28740 28796 28822 28830 28786 28700 28575 28464 28439 28490 28603 28687 28759 28753 28701 28592 28622 28508 28440 28407 28429 28525 28627 28706 28726 28737 28594 28373 28267 28267 28310 28405 28516 28588 28623 28541 28419 28351 28256 28264 28343 28361 28400 28507 28597 28607 28550 28342 28120 28062 28125 28224 28318 28417 28465 28474 28391 28301 28282 28253 28273 28344 28388 28455 28539 28627 28656 28566 28371 28262 28249 28323 28412 28508 28617 28664 28637 28473 28358 28396 28445 28502 28588 28611 28671 28755 28828 28768 28618 28465 28411 28462 28538 28615 28707 28772 28739 28641 28475 28432 28560 28616 28675 28772 28876 28951 28973 28855 28744 28656 28629 28626 28681 28762 28845 28930 28952 28938 28965 28929 28751 28808 28913 29033 29162 29254 29293 29316 29300 29214 29096 29069 29059 29046 29071 29077 29082 29035 29018 28988 28975 28956 29015 29129 29131 29186 29211 29105 29086 29073 29083 29082 29122 29126 29121 29142 29120 29091 29129 29130 29140 29131 29095 29166 29210 29282 29322 29265 29222 29240 29306 29297 29256 29261 29238 29214 29167 29138 29124 29181 29244 29284 29214 29148 29218 29305 29308 29258 29286 29271 29301 29316 29304 29283 29238 29204 29094 28994 28963 28992 29056 29156 29181 29084 29013 29173 29161 29092 29085 29090 29047 29085 29104 29114 29150 29082 28985 28861 28796 28784 28832 28872 28922 28916 28859 28907 28933 28854 28798 28785 28792 28848 28936 28980 28963 28940 28822 28642 28522 28471 28518 28625 28706 28766 28754 28764 28780 28771 28699 28636 28640 28668 28689 28738 28752 28777 28774 28750 28625 28528 28542 28624 28735 28808 28852 28892 28866 28751 28676 28638 28646 28668 28652 28685 28757 28805 28820 28775 28629 28544 28558 28626 28729 28811 28886 28932 28933 28783 28759 28748 28734 28727 28769 28886 28936 28959 29001 28958 28902 28792 28788 28828 28917 28985 29068 29088 29099 28992 28824 28857 28822 28817 28862 28895 28991 29042 29076 29061 28922 28745 28650 28681 28745 28809 28921 29016 29074 29083 28971 28856 28819 28909 28955 28966 29021 29084 29157 29190 29107 28953 28867 28820 28837 28890 28943 29025 29070 29019 28916 28780 28750 28824 28952 28981 29016 29061 29097 29124 29102 29079 28963 28850 28808 28802 28759 28758 28815 28879 28884 28858 28776 28790 28934 29057 29132 29195 29263 29263 29222 29222 29159 29000 28981 28933 28951 29005 29052 29032 28983 28950 28913 28831 28787 28831 28890 28941 29056 29096 29093 29110 29105 29081 29027 29001 28997 28994 28996 28976 28932 28881 28883 28858 28798 28806 28922 28976 29018 29067 29016 28990 29017 29010 28932 28936 28932 28913 28922 28945 28925 28898 28902 28897 28881 28849 28975 29064 29071 29151 29129 29107 29081 29054 29004 29001 28977 28974 28964 29004 28998 28960 28939 28935 28922 28894 28995 29068 29096 29167 29202 29186 29140 29098 29053 29040 29046 29040 29052 29081 29116 29103 29085 29073 29029 28994 29035 29160 29217 29262 29307 29287 29208 29090 29015 29004 29013 29024 29056 29129 29217 29233 29153 29056 28979 28942 28981 29056 29093 29156 29213 29280 29257 29184 29068 28970 28950 28986 29048 29119 29185 29236 29210 29132 28976 28931 28937 28944 28956 29012 29103 29169 29172 29087 28906 28742 28692 28711 28795 28886 28981 29028 29054 29007 28847 28788 28802 28825 28828 28853 28897 28979 28983 29018 28966 28887 28729 28683 28691 28768 28863 28918 28975 28991 28925 28856 28818 28790 28792 28835 28869 28902 28884 28915 28919 28884 28711 28613 28612 28673 28736 28813 28833 28836 28796 28774 28779 28791 28818 28834 28881 28983 29038 29083 29093 29047 28846 28650 28569 28549 28679 28878 29017 29096 29055 28934 28843 28763 28678 28659 28702 28780 28860 28877 28925 28910 28805 28678 28583 28563 28610 28700 28821 29041 29074 28995 28996 28907 28777 28797 28903 28973 29065 29141 29017 29006 28862 28711 28630 28615 28653 28742 28799 28858 28929 28980 28981 28903 28847 28869 28973 29109 29215 29204 29160 29130 29065 28964 28923 28900 28948 29015 29096 29064 28966 28969 29015 28964 28918 28900 28871 28897 28984 29021 29041 29007 28908 28770 28675 28674 28825 28954 28994 29047 29036 28993 29001 29036 29018 29021 29058 29022 29068 29116 29121 29151 29163 29120 29051 28998 29008 29033 29090 29191 29221 29299 29355 29449 29458 29438 29487 29497 29504 29539 29597 29644 29718 29705 29653 29623 29607 29611 29669 29694 29644 29633 29608 29622 29616 29637 29658 29669 29737 29749 29761 29677 29657 29652 29671 29717 29947 30413 30884 31038 31109 31162 31298 31378 31362 31243 31223 31214 31200 31296 31304 31437 31566 31749 31943 31980 31880 31797 31854 31954 32104 32124 31863 31453 31306 31191 31062 30974 30818 30656 30486 30395 30357 30534 30892 31239 31331 31391 31353 31461 31327 31202 31040 30884 30804 30772 30659 30434 30360 30248 30086 29949 29850 29828 30129 30353 30298 30090 29748 29407 29120 29003 29007 29086 29120 29169 29081 28964 28731 28510 28348 28286 28405 28497 28577 28531 28308 28047 27908 27827 27760 27823 27866 27940 27969 28011 27970 27944 27853 27752 27713 27758 27847 27944 28040 28085 28003 27893 27750 27662 27661 27725 27784 27871 27959 28047 28106 28039 27826 27691 27686 27781 27851 27931 28001 27999 27920 27879 27833 27826 27898 28009 28132 28221 28323 28394 28414 28376 28221 28146 28180 28264 28345 28424 28549 28674 28775 28849 28879 28880 28884 28925 28964 29026 29076 29167 29224 29282 29221 29188 29123 29103 29094 29056 29061 29069 29073 29071 29068 29089 29113 29163 29175 29189 29270 29337 29355 29338 29324 29374 29380 29395 29394 29365 29313 29323 29314 29372 29403 29432 29418 29388 29412 29375 29363 29314 29322 29349 29420 29633 29776 29851 29863 29792 29883 29809 29738 29701 29686 29757 29835 29811 29908 30036 30122 30094 30030 29956 29911 29822 29700 29700 29694 29656 29522 29526 29545 29688 29746 29682 29550 29495 29558 29554 29519 29474 29488 29450 29465 29669 29922 30068 29997 29864 29581 29584 29566 29590 29489 29431 29411 29390 29421 29433 29395 29316 29231 29141 29255 29346 29299 29239 29110 29061 29079 29053 29053 29057 29013 28979 28940 28925 28886 28867 28817 28814 28804 28761 28806 28909 28939 28810 28757 28762 28838 28854 28835 28791 28719 28691 28586 28585 28618 28676 28620 28578 28515 28428 28427 28451 28489 28525 28571 28614 28697 28752 28700 28650 28619 28623 28624 28634 28651 28594 28537 28516 28558 28614 28634 28676 28756 28858 28880 28833 28870 28963 29010 29128 29290 29423 29552 29630 29622 29636 29620 29591 29505 29435 29370 29308 29328 29356 29392 29424 29427 29475 29509 29533 29534 29608 29702 29857 29937 29805 29720 29597 29391 29267 29175 29109 29105 29160 29240 29309 29386 29415 29376 29339 29357 29403 29468 29540 29614 29692 29769 29725 29664 29605 29570 29619 29705 29781 29745 29642 29631 29614 29549 29509 29500 29535 29631 29714 29868 30030 30286 30510 30691 30791 30932 31031 31148 31280 31338 31362 31425 31507 31478 31483 31492 31527 31547 31579 31622 31827 32006 31985 31882 31843 31859 31907 31923 31994 32117 32226 32076 31711 31362 31033 30680 30476 30386 30388 30413 30421 30357 30210 30061 29902 29733 29660 29679 29833 30048 30096 30013 29870 29626 29520 29215 29013 28953 28970 29057 29022 28841 28599 28473 28390 28345 28287 28281 28389 28585 28570 28514 28487 28450 28455 28524 28647 28735 28841 28989 29024 28949 28856 28791 28824 28883 28967 29064 29127 29233 29228 29189 29142 29155 29223 29310 29404 29540 29684 29846 29907 29879 29839 29824 29853 29890 29967 30032 30138 30191 30109 29873 29607 29524 29494 29465 29389 29349 29400 29435 29404 29362 29330 29352 29386 29451 29508 29679 29935 30072 30150 30187 30318 30400 30508 30682 30850 30939 30981 31024 30980 30940 30958 31016 31099 31174 31256 31330 31495 31631 31558 31458 31386 31413 31484 31528 31610 31687 31704 31634 31397 31143 30905 30760 30699 30574 30593 30646 30685 30699 30867 30990 30977 30979 31056 31253 31463 31647 31788 31949 32057 31857 31567 31373 31174 31000 30920 30892 30895 30870 30723 30514 30278 30079 29959 29938 29972 30040 30126 30215 30245 30282 30336 30407 30499 30573 30638 30709 30748 30768 30759 30704 30655 30571 30505 30509 30487 30414 30348 30276 30155 29943 29631 29409 29310 29301 29469 29352 29346 29391 29425 29395 29297 29209 29158 29034 28905 28845 28861 28973 29348 29596 29799 29961 30121 30281 30352 30382 30448 30550 30632 30680 30668 30692 30807 30833 30800 30728 30577 30423 30148 29826 29499 29202 29097 29108 29127 29143 29139 29232 29350 29394 29331 29286 29297 29286 29255 29216 29262 29327 29374 29303 29150 29080 29122 29134 29086 29046 29066 29082 29065 29004 28888 28856 28873 28863 28857 28822 28805 28841 28890 28945 29076 29279 29508 29681 29841 29969 29978 29867 29678 29479 29406 29367 29322 29336 29368 29448 29533 29537 29513 29404 29315 29290 29348 29637 29854 29987 30047 30124 30208 30260 30313 30370 30469 30594 30693 30758 30832 30911 30950 30969 30922 30852 30799 30681 30465 30306 30197 30093 29966 29836 29676 29502 29377 29298 29290 29296 29270 29247 29264 29214 29183 29080 28933 28863 28851 28986 29223 29379 29572 29597 29386 29206 29083 29005 28982 28988 29004 28998 29024 29103 29088 28936 28798 28703 28681 28767 28971 29165 29270 29142 28971 28816 28696 28596 28504 28476 28463 28510 28556 28652 28684 28645 28433 28241 28149 28145 28306 28582 28815 29003 29133 29061 28821 28549 28324 28194 28190 28247 28298 28338 28302 28315 28310 28181 28015 27960 27978 28046 28134 28183 28216 28194 28132 28120 28060 27991 27949 27989 28093 28209 28301 28357 28325 28216 28052 27921 27885 27963 28136 28354 28535 28686 28601 28352 28206 28081 27959 27898 27916 28014 28117 28121 28132 28132 28011 27886 27834 27853 27938 28159 28471 28778 29046 28835 28702 28615 28393 28352 28271 28255 28281 28315 28364 28323 28287 28240 28200 28260 28356 28452 28545 28665 28772 28849 28861 28866 28867 28885 28921 28994 29049 29102 29139 29152 29141 29127 29109 29089 29048 29057 29058 29058 29045 29070 29149 29223 29248 29256 29272 29283 29286 29343 29367 29408 29478 29522 29499 29476 29449 29431 29414 29421 29439 29479 29536 29564 29546 29562 29586 29702 29764 29918 30106 30274 30450 30552 30545 30486 30379 30327 30372 30483 30629 30782 30855 30976 31078 31091 31118 31160 31223 31297 31396 31456 31507 31474 31538 32011 32023 31986 31948 31983 32141 32301 32387 32441 32437 32244 31929 31588 31222 30791 30360 30204 30085 30039 29997 29939 29668 29481 29295 29116 28971 28906 28938 28993 29141 29327 29377 29206 28858 28782 28687 28635 28678 28694 28735 28779 28794 28665 28519 28426 28375 28314 28293 28298 28321 28378 28458 28454 28348 28122 28028 28014 28022 27989 27994 28019 28047 28042 28016 27919 27862 27770 27751 27747 27795 27874 27946 27948 27907 27942 28024 28133 28230 28331 28522 28618 28689 28726 28745 28696 28680 28717 28775 28835 28891 28894 29006 28995 28831 28649 28528 28464 28428 28454 28495 28541 28628 28688 28746 28740 28636 28558 28534 28545 28599 28683 28824 28938 28914 28821 28720 28603 28628 28664 28695 28796 28950 29035 29079 29091 29153 29183 29161 29085 29073 29197 29427 29682 29930 30072 29951 30383 30662 30768 30629 30349 30255 30218 30061 29787 29615 29390 29253 29176 29158 29223 29356 29385 29306 29184 29046 28995 28923 28867 28943 28987 28993 29004 29017 28922 28725 28504 28488 28711 28839 28872 28901 28881 28810 28626 28474 28399 28450 28496 28547 28586 28648 28692 28757 28616 28384 28254 28259 28330 28436 28459 28514 28536 28465 28365 28311 28391 28478 28574 28667 28765 28870 28934 28854 28651 28606 28611 28674 28770 28913 29038 29155 29195 29238 29261 29294 29291 29306 29286 29310 29323 29331 29356 29375 29320 29219 29121 29077 29027 28927 28868 28879 28953 28990 28999 29031 29027 29036 29009 28959 28971 29051 29196 29324 29225 29172 29016 28902 28775 28764 28787 28846 28958 29021 29000 28961 29046 29136 29177 29246 29288 29384 29461 29472 29424 29433 29653 29953 30111 30192 30189 29905 28357 27607 27587 27503 27642 27815 27763 27795 27896 27873 27492 27138 26754 26513 26486 26506 26513 26549 26518 27190 27304 27085 26833 26773 26848 26864 26980 27064 27069 27107 26806 26322 26084 26072 26089 26028 26593 27062 27156 27162 27186 27094 27076 27000 27068 27015 26723 26281 25941 25753 25608 25554 25510 25430 25438 25357 25243 25319 25467 25521 25540 25482 25376 25249 25172 25087 25054 25112 25148 25189 25156 25079 25104 25131 25129 25170 25350 25465 25562 25521 25343 25148 25187 25296 25053 25070 25062 25070 25078 24963 25240 25352 25407 25433 25500 25662 25776 25863 26048 26189 26347 26522 26846 27239 27438 27565 27676 27780 27720 27701 27790 27853 27915 28000 28078 28166 28111 27999 27993 27949 27776 27565 27533 27502 27467 27136 26755 26404 26237 26236 26452 26600 26637 26678 26553 26233 26005 25773 25748 25710 25735 25781 25863 25894 25779 25614 25478 25656 26169 26586 26756 26629 26429 26023 25582 25482 25312 25329 25341 25347 25384 25617 25793 25541 25278 25375 25771 26047 26296 26521 26772 26688 26312 25738 25288 25228 25208 25245 25274 25325 25468 25412 25209 25160 25417 25573 25822 25860 25841 25661 25307 24972 24804 24814 24701 24798 24916 24985 25124 25100 24918 24763 24958 25238 25469 25525 25503 25497 25286 24997 24772 24748 24752 24770 24867 25017 25054 25277 25206 25124 25370 25807 26075 26294 26432 26681 26764 26576 26228 25927 25822 25761 25801 25862 25829 26306 26526 26471 26360 26421 26409 26516 26633 26661 26279 25876 25525 25404 25400 25373 25430 25528 25587 25768 25779 25776 25788 26093 26340 26507 26609 26541 26320 25978 25737 25638 25645 25493 25548 25665 25734 25819 25812 25701 25679 25783 25928 26042 26118 26141 26070 25933 25792 25793 25822 25736 25736 25797 25962 26022 26041 25967 25962 26051 26190 26317 26404 26415 26331 26058 25872 25807 25829 25810 25826 25892 26073 26213 26178 25972 25934 25938 26058 26187 26343 26464 26387 26284 26096 26041 26070 26161 26070 26070 26132 26197 26193 26276 26353 26441 26602 26791 26844 26790 26687 26473 26264 26060 26006 26032 26052 26011 25983 26003 26072 26024 25998 26036 26137 26281 26357 26383 26308 26185 26079 25961 25954 25994 26016 25946 25910 25888 25916 25958 25975 25989 26048 26140 26243 26279 26239 26155 26065 26040 26025 26056 26086 26076 26007 25975 25977 26030 26114 26180 26248 26323 26429 26445 26420 26319 26275 26213 26192 26220 26242 26229 26184 26155 26181 26207 26251 26321 26386 26447 26534 26580 26546 