14595 14586 14596 14611 14634 14651 14672 14678 14691 14679 14689 14715 14710 14715 14735 12926 12921 12896 12877 12870 12866 12867 12862 12862 12792 12726 12719 12749 12778 12762 12705 12649 12617 12612 12615 12621 12626 12636 12647 12626 12612 12591 12589 12583 12574 12566 12564 12538 12502 12547 12574 12474 12356 12279 12189 12069 11957 11881 11801 11731 11783 11799 11799 11809 11817 11765 11690 11608 11534 11466 11383 11290 11242 11288 11390 11473 11632 11748 11826 11922 12084 12200 12261 12277 12241 12183 12142 12140 12152 12165 12204 12301 12410 12460 12499 12519 12519 12520 12509 12499 12483 12441 12424 12393 12388 12384 12393 12389 12393 12401 12416 12435 12454 12487 12507 12526 12548 12581 12558 12551 12563 12559 12592 12612 12640 12653 12679 12689 12725 12752 12770 12805 12828 12833 12822 12837 12839 12850 12879 12894 12918 12951 12979 12999 13027 13046 13063 13089 13104 13130 13134 13137 13134 13129 13105 13099 13097 13100 13101 13110 13121 13131 13147 13156 13174 13180 13190 13212 13208 13201 13184 13191 13178 13190 13196 13195 13218 13222 13228 13244 13242 13264 13264 13285 13282 13289 13266 13273 13265 13271 13267 13274 13282 13290 13301 13306 13309 13331 13339 13349 13363 13355 13373 13354 13338 13327 13306 13278 13244 13252 13239 13226 13210 13199 13174 13180 13163 13162 13171 13181 13189 13180 13157 13140 13122 13106 13119 13125 12935 12766 12654 12567 12510 12477 12471 12474 12471 12485 12492 12506 12506 12466 12419 12288 12262 12201 12169 12189 12179 12196 12223 12241 12247 12258 12264 12279 12281 12287 12275 12286 12302 12292 12278 12235 12196 12182 12158 12157 12163 12151 12152 12137 12137 12132 12130 12124 12107 12105 12074 12031 11965 11908 11876 11837 11835 11825 11830 11830 11829 11829 11821 11821 11827 11827 11836 11810 11784 11743 11719 11702 11699 11701 11707 11705 11719 11725 11740 11737 11762 11778 11803 11840 11851 11823 11811 11798 11793 11799 11795 11799 11761 11740 11693 11670 11655 11659 11644 11642 11634 11624 11584 11549 11511 11505 11518 11558 11579 11602 11605 11617 11623 11637 11654 11683 11694 11717 11706 11691 11681 11673 11690 11676 11712 11717 11725 11735 11743 11776 11778 11805 11808 11810 11772 11753 11741 11746 11742 11768 11807 11836 11861 11871 11888 11889 11907 11905 11939 11948 11960 11953 11964 11963 11972 11983 11985 11992 12011 12017 11998 12000 11977 11960 11963 11954 11927 11906 11886 11898 11897 11870 11906 12109 12266 12382 12429 12485 12509 12513 12521 12520 12518 12487 12452 12397 12359 12328 12288 12268 12243 12232 12229 12221 12230 12261 12259 12271 12268 12272 12274 12258 12266 12278 12293 12332 12369 12367 12387 12390 12389 12369 12368 12342 12330 12310 12275 12227 12184 12145 12127 12112 12104 12105 12096 12101 12135 12142 12137 12123 12128 12114 12124 12099 12077 12087 12079 12091 12084 12081 12076 12071 12057 12029 11996 11962 11930 11905 11838 11786 11734 11702 11670 11637 11604 11575 11556 11561 11557 11596 11625 11640 11643 11639 11600 11547 11501 11481 11465 11458 11452 11436 11435 11407 11363 11317 11291 11260 11242 11222 11169 11146 11134 11118 11120 11103 11087 11065 11034 11014 10999 11025 11041 11044 11045 11081 11073 11044 11024 11012 11019 11006 10991 10963 10945 10923 10905 10877 10865 10851 10860 10883 10921 10960 10989 10978 10959 10961 10939 10920 10899 10900 10910 10930 10936 10928 10927 10935 10947 10959 10974 10994 11004 11000 10991 11002 10993 10981 10967 10969 10941 10927 10934 10939 10959 10988 11037 11054 11074 11052 11037 11023 11017 11024 11038 11057 11064 11059 11064 11071 11082 11073 11075 11083 11100 11103 11106 11103 11108 11108 11098 11090 11088 11075 11073 11076 11078 11086 11126 11143 11157 11147 11137 11134 11136 11142 11160 11161 11156 11159 11183 11189 11196 11196 11204 11211 11206 11218 11209 11223 11205 11198 11199 11197 11174 11169 11144 11151 11162 11156 11167 11139 11127 11116 11113 11126 11134 11131 11148 11137 11155 11159 11155 11151 11152 11165 11178 11178 11173 11182 11191 11174 11160 11137 11129 11100 11101 11100 11122 11142 11160 11171 11172 11158 11149 11151 11168 11192 11209 11219 11223 11227 11215 11209 11208 11201 11194 11204 11190 11193 11191 11199 11188 11172 11164 11141 11122 11117 11138 11152 11158 11175 11175 11161 11142 11129 11143 11161 11180 11167 11164 11171 11176 11171 11168 11167 11173 11187 11177 11185 11180 11187 11182 11167 11172 11145 11124 11106 11090 11103 11122 11145 11165 11163 11147 11131 11127 11131 11142 11149 11144 11144 11138 11142 11135 11137 11136 11179 11176 11200 11205 11209 11208 11211 11206 11207 11189 11165 11145 11139 11147 11179 11211 11228 11221 11208 11203 11182 11194 11210 11238 11237 11234 11240 11242 11255 11246 11246 11261 11256 11264 11264 11261 11262 11261 11264 11261 11254 11246 11225 11208 11216 11243 11255 11253 11229 11226 11206 11223 11248 11247 11241 11261 11272 11303 11282 11280 11285 11282 11295 11303 11301 11307 11312 11307 11303 11306 11297 11304 11287 11281 11293 11302 11321 11311 11283 11285 11268 11283 11302 11317 11318 11343 11357 11371 11373 11356 11372 11365 11370 11364 11370 11364 11377 11363 11370 11366 11364 11374 11362 11364 11376 11375 11377 11368 11364 11342 11328 11333 11341 11364 11364 11380 11382 11403 11412 11418 11421 11419 11413 11413 11413 11411 11404 11412 11413 11404 11394 11395 11393 11383 11382 11403 11404 11402 11361 11364 11347 11330 11324 11333 11339 11356 11344 11365 11366 11380 11375 11391 11387 11386 11379 11375 11366 11355 11356 11333 11344 11336 11324 11311 11335 11356 11389 11413 11416 11390 11385 11367 11367 11377 11384 11366 11369 11386 11388 11395 11395 11402 11419 11433 11429 11415 11415 11401 11378 11365 11360 11342 11333 11328 11340 11350 11363 11387 11388 11371 11351 11326 11334 11341 11333 11340 11346 11360 11382 11390 11399 11396 11431 11426 11417 11407 11401 11396 11378 11356 11346 11323 11311 11312 11315 11339 11359 11373 11380 11370 11364 11340 11339 11345 11346 11347 11343 11360 11378 11378 11397 11405 11393 11411 11397 11385 11394 11398 11386 11382 11366 11354 11349 11345 11337 11362 11384 11394 11408 11400 11380 11370 11369 11376 11387 11384 11384 11397 11426 11422 11435 11435 11437 11460 11445 11447 11436 11445 11435 11432 11424 11418 11425 11416 11407 11399 11406 11424 11436 11432 11401 11402 11396 11401 11410 11431 11428 11423 11456 11473 11474 11493 11493 11489 11509 11500 11513 11514 11515 11522 11509 11517 11514 11511 11503 11491 11491 11506 11516 11528 11506 11506 11499 11497 11506 11504 11496 11506 11519 11532 11537 11520 11545 11558 11558 11568 11576 11582 11588 11599 11587 11594 11589 11577 11570 11556 11557 11545 11560 11567 11570 11567 11555 11545 11551 11537 11543 11542 11541 11552 11567 11567 11561 11569 11569 11591 11588 11580 11592 11595 11604 11590 11598 11585 11588 11561 11566 11556 11545 11549 11563 11565 11552 11562 11571 11598 11624 11636 11619 11614 11628 11620 11607 11602 11603 11625 11646 11637 11640 11643 11656 11653 11647 11640 11640 11628 11610 11600 11600 11604 11601 11600 11584 11573 11559 11565 11575 11573 11571 11567 11591 11591 11596 11587 11587 11601 11602 11599 11590 11582 11594 11591 11593 11591 11587 11576 11564 11554 11546 11538 11540 11535 11513 11494 11501 11505 11505 11518 11519 11510 11529 11540 11539 11540 11544 11542 11543 11540 11537 11538 11542 11558 11548 11547 11552 11546 11527 11514 11504 11489 11502 11511 11500 11483 11473 11475 11470 11472 11466 11490 11478 11489 11498 11496 11513 11516 11524 11534 11522 11522 11529 11527 11531 11529 11531 11530 11520 11515 11496 11491 11484 11492 11508 11468 11450 11452 11441 11461 11482 11499 11509 11519 11530 11524 11522 11512 11527 11532 11537 11530 11528 11532 11539 11537 11538 11544 11539 11533 11515 11514 11510 11525 11524 11537 11518 11506 11492 11507 11522 11516 11525 11532 11532 11540 11536 11539 11544 11552 11560 11556 11571 11566 11576 11581 11579 11587 11586 11568 11576 11568 11555 11553 11558 11565 11555 11545 11521 11521 11533 11552 11567 11561 11573 11573 11582 11588 11582 11578 11590 11596 11597 11605 11611 11625 11621 11630 11624 11629 11620 11616 11610 11600 11605 11587 11593 11579 11555 11551 11567 11570 11578 11584 11582 11583 11605 11611 11602 11601 11620 11618 11618 11620 11623 11623 11627 11631 11636 11628 11613 11609 11596 11582 11584 11585 11583 11580 11574 11573 11563 11577 11578 11578 11574 11577 11576 11587 11575 11585 11579 11599 11598 11591 11593 11579 11581 11591 11570 11566 11544 11507 11485 11477 11484 11483 11481 11472 11455 11431 11413 11409 11420 11448 11442 11441 11448 11471 11478 11482 11495 11510 11527 11508 11479 11469 11449 11451 11428 11420 11397 11352 11318 11318 11330 11362 11386 11392 11389 11385 11362 11350 11356 11400 11422 11425 11406 11406 11404 11406 11411 11414 11437 11451 11441 11434 11420 11431 11420 11411 11396 11377 11357 11330 11333 11349 11373 11383 11396 11391 11373 11361 11355 11380 11424 11456 11458 11444 11456 11455 11461 11457 11475 11485 11475 11476 11477 11465 11454 11453 11442 11448 11435 11414 11399 11410 11423 11448 11482 11497 11506 11499 11502 11485 11481 11479 11495 11479 11481 11492 11495 11521 11519 11530 11542 11562 11572 11550 11572 11569 11562 11569 11557 11553 11558 11553 11542 11540 11542 11546 11563 11567 11542 11534 11523 11531 11547 11560 11581 11580 11593 11611 11620 11615 11618 11620 11639 11647 11630 11632 11642 11639 11635 11633 11629 11621 11624 11615 11606 11616 11612 11625 11638 11630 11631 11632 11621 11619 11613 11613 11604 11619 11626 11626 11627 11615 11637 11652 11654 11661 11661 11669 11659 11656 11649 11645 11652 11630 11631 11605 11601 11611 11621 11620 11609 11587 11574 11568 11564 11565 11551 11565 11559 11574 11575 11573 11594 11610 11623 11618 11618 11604 11604 11586 11583 11578 11580 11572 11544 11535 11535 11547 11557 11569 11554 11526 11503 11488 11490 11512 11523 11513 11528 11547 11551 11573 11581 11592 11603 11601 11579 11571 11549 11557 11532 11533 11520 11511 11499 11502 11495 11508 11526 11536 11516 11486 11470 11450 11467 11490 11519 11530 11563 11605 11624 11653 11652 11655 11667 11650 11621 11598 11595 11579 11576 11564 11548 11538 11529 11516 11516 11521 11530 11524 11518 11482 11460 11440 11452 11479 11503 11504 11518 11533 11546 11562 11559 11559 11567 11566 11545 11536 11531 11519 11519 11505 11508 11496 11479 11475 11467 11461 11476 11492 11502 11472 11464 11433 11427 11442 11460 11481 11491 11504 11508 11510 11509 11505 11507 11516 11507 11484 11474 11449 11439 11448 11430 11410 11382 11374 11402 11433 11468 11502 11511 11496 11477 11461 11449 11470 11492 11492 11491 11477 11500 11508 11520 11535 11552 11575 11570 11547 11540 11518 11514 11495 11489 11461 11443 11426 11421 11450 11486 11524 11529 11536 11525 11515 11504 11523 11549 11561 11521 11531 11542 11555 11569 11580 11592 11614 11621 11614 11598 11594 11585 11571 11555 11546 11539 11524 11520 11533 11560 11596 11623 11639 11638 11627 11612 11587 11581 11594 11617 11613 11626 11656 11695 11689 11688 11698 11708 11686 11687 11679 11665 11659 11640 11636 11638 11623 11626 11638 11636 11651 11675 11673 11661 11656 11634 11621 11620 11631 11658 11676 11686 11698 11724 11739 11740 11750 11754 11748 11745 11735 11722 11723 11702 11708 11693 11703 11692 11689 11672 11685 11681 11701 11675 11654 11631 11625 11647 11658 11667 11679 11674 11684 11694 11697 11701 11700 11721 11718 11702 11678 11690 11687 11688 11683 11693 11692 11682 11679 11670 11665 11658 11655 11640 11606 11599 11583 11594 11627 11663 11673 11667 11691 11700 11710 11699 11707 11703 11696 11674 11661 11658 11648 11643 11639 11632 11631 11623 11610 11615 11610 11595 11586 11556 11541 11507 11485 11491 11516 11527 11528 11523 11523 11536 11535 11549 11542 11553 11566 11568 11553 11558 11558 11557 11548 11532 11522 11515 11511 11514 11560 11566 11561 11538 11523 11503 11486 11469 11492 11508 11503 11514 11552 11570 11595 11620 11628 11636 11627 11606 11604 11590 11596 11585 11583 11585 11576 11566 11559 11563 11553 11562 11571 11561 11558 11537 11523 11509 11520 11529 11547 11562 11559 11578 11590 11595 11586 11600 11589 11593 11575 11587 11581 11570 11572 11574 11572 11582 11565 11565 11576 11561 11571 11576 11563 11536 11535 11530 11532 11544 11564 11571 11583 11592 11611 11625 11627 11620 11622 11631 11623 11621 11621 11623 11625 11621 11614 11621 11623 11613 11610 11604 11595 11583 11577 11579 11562 11566 11556 11559 11554 11570 11559 11558 11575 11575 11574 11565 11561 11563 11563 11594 11580 11565 11575 11563 11568 11564 11570 11559 11554 11523 11513 11512 11519 11528 11531 11521 11500 11479 11472 11492 11493 11501 11508 11512 11550 11544 11545 11532 11548 11545 11522 11512 11499 11490 11487 11470 11467 11453 11451 11419 11415 11416 11448 11458 11457 11453 11446 11429 11417 11434 11469 11500 11504 11497 11479 11480 11471 11460 11452 11459 11447 11427 11417 11417 11405 11405 11393 11361 11334 11311 11306 11320 11334 11348 11360 11357 11339 11325 11298 11298 11334 11360 11389 11355 11358 11365 11376 11355 11350 11373 11384 11375 11355 11316 11311 11314 11302 11272 11230 11208 11200 11226 11233 11267 11289 11310 11300 11288 11262 11243 11274 11294 11318 11308 11297 11315 11340 11343 11355 11375 11389 11400 11384 11352 11344 11328 11316 11290 11264 11244 11228 11229 11244 11281 11310 11336 11354 11333 11329 11304 11294 11322 11330 11334 11333 11351 11373 11394 11417 11445 11467 11498 11497 11476 11475 11457 11443 11432 11425 11412 11395 11386 11394 11403 11431 11454 11484 11489 11496 11487 11481 11458 11463 11497 11504 11506 11501 11518 11539 11528 11546 11555 11577 11571 11568 11568 11547 11548 11544 11540 11539 11543 11531 11534 11531 11527 11536 11554 11571 11570 11542 11541 11536 11544 11548 11563 11563 11559 11561 11579 11581 11578 11572 11588 11591 11594 11576 11579 11574 11572 11570 11575 11571 11575 11571 11562 11558 11562 11571 11575 11548 11535 11519 11519 11518 11525 11539 11571 11580 11583 11604 11613 11627 11621 11618 11607 11613 11610 11603 11602 11606 11600 11610 11603 11595 11587 11585 11590 11580 11566 11566 11567 11560 11531 11522 11511 11523 11533 11555 11547 11560 11570 11596 11583 11570 11562 11573 11574 11569 11557 11555 11552 11543 11546 11543 11543 11537 11535 11523 11497 11488 11509 11504 11497 11490 11488 11462 11466 11478 11472 11471 11479 11493 11508 11523 11521 11517 11519 11523 11508 11499 11499 11504 11496 11501 11492 11491 11489 11478 11479 11468 11481 11472 11455 11436 11422 11424 11427 11441 11435 11440 11456 11478 11497 11505 11498 11486 11502 11511 11494 11491 11479 11487 11491 11481 11476 11464 11473 11465 11465 11445 11442 11445 11414 11404 11383 11385 11409 11414 11424 11418 11426 11466 11472 11474 11482 11474 11479 11482 11455 11442 11452 11444 11430 11433 11432 11427 11417 11408 11413 11424 11429 11449 11432 11420 11408 11406 11385 11400 11404 11408 11401 11414 11426 11440 11452 11444 11444 11462 11475 11464 11444 11450 11435 11424 11411 11408 11404 11389 11393 11398 11406 11427 11456 11459 11449 11436 11409 11428 11462 11485 11498 11497 11505 11520 11522 11514 11515 11522 11533 11510 11506 11499 11502 11493 11486 11485 11485 11476 11474 11472 11478 11466 11474 11485 11477 11442 11448 11444 11469 11488 11495 11507 11530 11541 11532 11526 11529 11518 11524 11530 11519 11522 11514 11517 11527 11506 11517 11520 11506 11495 11483 11481 11495 11511 11526 11522 11520 11521 11506 11502 11503 11501 11500 11502 11511 11510 11517 11534 11546 11579 11597 11585 11586 11586 11583 11594 11587 11593 11580 11569 11563 11545 11549 11567 11582 11568 11552 11534 11528 11533 11526 11549 11562 11576 11590 11597 11605 11616 11630 11636 11646 11637 11630 11631 11639 11643 11629 11642 11641 11619 11615 11602 11579 11569 11585 11596 11605 11593 11564 11565 11569 11569 11567 11565 11567 11567 11560 11578 11581 11593 11609 11623 11604 11599 11598 11589 11582 11584 11581 11579 11558 11553 11527 11533 11535 11538 11560 11547 11528 11535 11524 11550 11581 11601 11620 11605 11609 11606 11585 11585 11569 11568 11577 11557 11571 11558 11550 11533 11548 11575 11595 11629 11645 11648 11659 11670 11691 11698 11689 11691 11687 11654 11662 11654 11667 11680 11693 11699 11721 11732 11774 11797 11821 11880 11955 12007 12060 12093 12108 12113 12124 12111 12105 12096 12074 12074 12054 12035 12019 12000 11976 11951 11937 11937 11939 11951 11972 12002 12020 12015 12015 12011 12001 11999 12000 11992 11994 11996 11988 11989 11989 11997 11982 11976 11969 11960 11944 11927 11920 11887 11872 11868 11887 11893 11902 11902 11908 11916 11910 11910 11913 11913 11919 11938 11938 11938 11931 11929 11942 11930 11924 11922 11915 11904 11884 11867 11848 11827 11815 11797 11775 11764 11757 11737 11751 11791 11821 11821 11819 11815 11800 11779 11772 11778 11796 11821 11811 11820 11818 11825 11806 11805 11804 11793 11768 11727 11702 11679 11658 11634 11617 11592 11555 11520 11513 11515 11527 11529 11521 11513 11502 11504 11514 11530 11565 11593 11592 11573 11554 11550 11540 11522 11512 11495 11449 11395 11355 11347 11355 11390 11414 11400 11387 11376 11352 11355 11369 11391 11392 11384 11379 11375 11372 11375 11383 11394 11419 11413 11403 11381 11389 11392 11371 11360 11341 11302 11270 11253 11255 11255 11291 11307 11309 11304 11282 11285 11361 11445 11528 11557 11538 11507 11499 11490 11474 11468 11464 11468 11467 11459 11463 11461 11470 11464 11444 11432 11420 11390 11394 11389 11389 11394 11400 11378 11357 11342 11359 11416 11478 11505 11506 11507 11510 11510 11496 11498 11496 11495 11499 11491 11499 11497 11515 11528 11523 11513 11507 11509 11499 11492 11487 11494 11493 11475 11462 11449 11446 11455 11489 11550 11596 11602 11597 11609 11619 11600 11613 11607 11611 11600 11611 11604 11614 11617 11621 11617 11616 11610 11607 11601 11590 11584 11573 11563 11545 11528 11524 11504 11494 11515 11559 11572 11564 11568 11581 11577 11558 11557 11558 11558 11564 11553 11547 11545 11571 11560 11537 11532 11506 11494 11485 11478 11479 11487 11501 11478 11460 11456 11445 11457 11500 11534 11542 11530 11513 11523 11514 11512 11526 11533 11558 11560 11545 11532 11534 11544 11530 11497 11467 11428 11397 11393 11391 11394 11374 11366 11353 11330 11323 11317 11326 11338 11362 11348 11335 11347 11377 11387 11384 11388 11385 11362 11353 11327 11313 11298 11275 11245 11214 11187 11157 11160 11169 11216 11224 11245 11226 11224 11201 11184 11195 11210 11230 11264 11279 11266 11262 11283 11277 11280 11274 11290 11307 11302 11273 11264 11279 11266 11224 11196 11190 11215 11252 11314 11387 11458 11560 11675 11785 11848 11862 11901 11928 11943 11968 12003 12038 12097 12127 12176 12198 12232 12276 12319 12361 12380 12410 12415 12437 12436 12453 12484 12515 12568 12596 12630 12646 12684 12713 12736 12783 12802 12841 12849 12872 12879 12881 12876 12886 12893 12878 12816 12758 12700 12668 12608 12559 12510 12481 12452 12453 12464 12463 12486 12497 12492 12507 12496 12501 12508 12500 12517 12521 12539 12554 12567 12572 12561 12563 12566 12585 12603 12604 12621 12643 12649 12641 12632 12603 12592 12574 12554 12543 12531 12525 12527 12525 12526 12532 12521 12516 12522 12520 12516 12509 12500 12493 12478 12470 12458 12442 12436 12442 12434 12433 12443 12435 12442 12429 12417 12383 12362 12337 12321 12309 12314 12308 12307 12298 12297 12282 12275 12289 12283 12273 12255 12232 12220 12194 12164 12152 12150 12149 12140 12145 12155 12158 12160 12143 12140 12089 12046 12018 11985 11961 11950 11946 11938 11936 11941 11943 11944 11952 11922 11924 11898 11879 11861 11847 11842 11848 11827 11821 11836 11868 11928 11975 12007 12012 11974 11881 11744 11670 11641 11597 11584 11621 11636 11666 11651 11672 11678 11710 11745 11799 11804 11823 11833 11964 12126 12231 12371 12458 12530 12635 12776 12877 12908 12914 12933 12908 12858 12803 12743 12708 12651 12615 12562 12546 12541 12555 12579 12621 12675 12708 12725 12731 12751 12752 12748 12771 12785 12830 12860 12925 12949 12968 12992 13007 13008 12995 12974 12965 12955 12945 12947 12962 12956 12927 12908 12915 12922 12939 12940 12941 12914 12881 12853 12810 12794 12783 12783 12800 12822 12864 12906 12944 12984 13001 13015 13016 13027 13024 13032 13038 13058 13062 13062 13059 13055 13041 13028 13019 12998 12964 12948 12918 12913 12895 12893 12919 12962 13013 13046 13072 13102 13125 13144 13169 13165 13177 13169 13183 13184 13210 13231 13258 13255 13250 13243 13223 13212 13187 13175 13154 13128 13075 13041 13016 12987 12997 13008 13059 13091 13112 13130 13164 13200 13203 13206 13190 13165 13163 13132 13107 13101 13114 13111 13099 13081 13048 13019 12995 12976 12958 12928 12866 12806 12760 12714 12690 12661 12659 12681 12728 12750 12761 12763 12773 12788 12754 12721 12677 12645 12638 12620 12603 12616 12651 12650 12643 12622 12594 12567 12539 12525 12498 12433 12381 12325 12276 12251 12227 12222 12226 12231 12238 12243 12255 12291 12316 12312 12324 12319 12313 12305 12297 12295 12305 12286 12253 12205 12160 12112 12078 12058 12037 11998 11955 11923 11911 11884 11852 11868 11914 11968 12017 12031 12032 12063 12086 12085 12081 12055 12039 12024 12004 11982 11969 11977 11973 11948 11928 11893 11865 11851 11847 11842 11805 11787 11755 11728 11721 11707 11716 11732 11762 11789 11790 11790 11790 11817 11812 11806 11796 11797 11828 11839 11843 11853 11869 11881 11868 11845 11830 11809 11799 11789 11791 11765 11764 11772 11752 11731 11736 11745 11771 11820 11837 11848 11859 11871 11889 11890 11891 11921 11951 11954 11957 11968 11967 11968 11954 11953 11943 11932 11919 11909 11895 11869 11873 11861 11835 11808 11803 11800 11820 11844 11862 11885 11923 11965 11998 12005 12011 12012 12035 12023 12013 12003 11998 11990 11982 11973 11965 11946 11935 11936 11939 11961 11963 11942 11915 11917 11891 11904 11932 11964 11978 11991 11979 11998 12004 12012 12016 12031 12056 12067 12062 12041 12039 12031 12024 12010 11996 11987 11962 11960 11961 11992 12014 12025 12001 11988 11976 11951 11955 11981 11985 11988 11985 11998 12016 12038 12064 12088 12114 12145 12132 12115 12099 12080 12078 12060 12048 12023 12010 11995 11989 11983 11989 12001 11997 11988 11961 11938 11934 11965 11987 12022 12059 12081 12118 12124 12137 12139 12150 12138 12132 12120 12121 12109 12082 12066 12043 12030 12011 11995 11976 11967 11966 11968 11967 11973 11953 11947 11931 11971 12007 12033 12047 12055 12065 12058 12061 12062 12069 12096 12096 12097 12092 12085 12087 12067 12048 12029 12024 12007 12001 12001 12000 12014 12034 12033 12014 12000 11996 12016 12034 12040 12037 12023 12046 12053 12049 12051 12075 12106 12116 12110 12102 12103 12104 12103 12089 12072 12063 12051 12034 12027 12022 12036 12058 12055 12035 12024 12024 12029 12077 12095 12104 12119 12152 12167 12180 12178 12172 12191 12190 12177 12178 12183 12203 12198 12185 12180 12164 12160 12141 12134 12133 12146 12153 12129 12130 12129 12115 12137 12160 12164 12165 12170 12199 12227 12231 12242 12257 12257 12267 12243 12235 12232 12239 12243 12230 12234 12238 12215 12204 12189 12178 12179 12164 12149 12135 12119 12115 12116 12131 12187 12240 12263 12258 12264 12278 12256 12255 12246 12256 12268 12265 12276 12273 12287 12282 12277 12274 12271 12254 12236 12208 12202 12196 12174 12161 12130 12123 12116 12149 12190 12210 12214 12223 12243 12244 12238 12240 12245 12259 12277 12279 12275 12274 12273 12256 12250 12245 12232 12214 12189 12162 12149 12157 12160 12149 12134 12109 12098 12100 12132 12157 12155 12146 12161 12159 12163 12154 12159 12161 12175 12167 12152 12147 12131 12122 12114 12105 12093 12078 12063 12055 12046 12029 12040 12033 12041 12003 11996 11994 12038 12074 12090 12088 12090 12115 12122 12143 12153 12158 12187 12203 12197 12174 12182 12176 12168 12159 12163 12147 12140 12117 12105 12099 12071 12049 12026 11995 11979 11961 11970 12020 12055 12078 12085 12110 12121 12128 12120 12122 12117 12116 12098 12089 12079 12074 12078 12062 12057 12062 12052 12039 12032 12039 12057 12081 12065 12044 12039 12021 12026 12066 12100 12132 12145 12143 12164 12171 12168 12170 12191 12181 12183 12165 12155 12152 12172 12161 12168 12169 12163 12151 12138 12147 12147 12134 12141 12118 12098 12087 12077 12084 12101 12125 12124 12131 12149 12171 12182 12165 12174 12200 12200 12175 12180 12170 12171 12178 12159 12159 12156 12154 12156 12141 12148 12167 12178 12188 12171 12146 12150 12142 12176 12203 12209 12208 12219 12227 12230 12231 12238 12239 12263 12273 12261 12249 12261 12252 12236 12239 12242 12235 12208 12194 12191 12198 12197 12183 12143 12132 12116 12113 12124 12138 12128 12138 12144 12166 12180 12184 12192 12191 12191 12190 12158 12141 12131 12136 12114 12107 12087 12064 12049 12046 12048 12067 12076 12088 12057 12044 12018 12012 12025 12050 12080 12073 12084 12093 12102 12126 12128 12144 12158 12162 12120 12102 12081 12062 12047 12036 12011 11994 11984 11967 11966 11979 11999 12010 12000 11973 11946 11934 11934 11954 11974 11978 11995 11996 12021 12038 12032 12047 12041 12029 11986 11978 11949 11953 11935 11926 11910 11911 11886 11887 11888 11903 11928 11924 11904 11883 11861 11853 11845 11862 11878 11898 11904 11911 11938 11953 11971 11978 11992 11994 11987 11961 11952 11962 11950 11940 11936 11936 11913 11916 11906 11915 11938 11942 11922 11899 11877 11861 11864 11909 11932 11957 11963 11969 11983 12002 11994 11998 12012 12031 12036 12018 12002 12019 12023 12022 12014 12018 12010 11993 11995 11999 12020 12038 12039 12033 12031 12004 12009 12019 12049 12072 12081 12101 12116 12131 12141 12131 12139 12163 12167 12160 12150 12162 12174 12166 12162 12163 12163 12172 12162 12164 12159 12181 12195 12179 12161 12150 12146 12173 12204 12212 12216 12222 12245 12268 12282 12293 12305 12327 12354 12342 12339 12332 12338 12337 12337 12342 12337 12322 12324 12314 12303 12290 12270 12258 12245 12233 12215 12232 12243 12256 12258 12267 12281 12321 12336 12328 12337 12357 12353 12355 12348 12338 12335 12339 12340 12338 12337 12330 12312 12312 12298 12297 12283 12263 12242 12226 12219 12206 12219 12228 12236 12249 12262 12285 12283 12295 12297 12298 12300 12290 12276 12267 12271 12270 12262 12259 12249 12231 12230 12210 12215 12213 12207 12192 12157 12136 12111 12105 12136 12152 12164 12165 12177 12191 12200 12207 12215 12220 12217 12204 12181 12163 12155 12150 12150 12138 12136 12120 12122 12097 12087 12094 12083 12088 12055 12026 12016 11984 11993 12015 12025 12025 12034 12056 12088 12100 12117 12133 12144 12151 12129 12116 12105 12098 12098 12086 12084 12078 12074 12055 12058 12049 12047 12031 11995 11973 11949 11940 11932 11952 11955 11969 11981 12002 12021 12045 12043 12067 12079 12092 12076 12076 12071 12070 12085 12078 12073 12065 12058 12037 12050 12075 12113 12144 12144 12143 12107 12096 12080 12103 12108 12121 12125 12135 12158 12158 12171 12184 12192 12207 12201 12199 12190 12189 12191 12192 12189 12187 12177 12168 12169 12153 12144 12148 12122 12110 12082 12081 12085 12119 12146 12187 12204 12213 12234 12238 12246 12250 12246 12252 12241 12239 12236 12235 12237 12235 12246 12237 12227 12229 12213 12225 12213 12202 12202 12185 12165 12152 12154 12171 12182 12189 12201 12212 12234 12245 12250 12262 12265 12274 12284 12261 12259 12267 12275 12272 12259 12268 12262 12256 12252 12243 12236 12222 12209 12196 12178 12171 12170 12162 12184 12207 12212 12211 12219 12241 12239 12230 12233 12233 12240 12228 12225 12219 12215 12209 12203 12202 12197 12195 12182 12178 12159 12146 12149 12159 12157 12138 12125 12110 12108 12123 12130 12133 12135 12158 12167 12173 12174 12180 12180 12199 12187 12188 12202 12186 12185 12185 12180 12168 12163 12163 12132 12119 12100 12079 12061 12030 12017 11993 11985 11994 11997 12007 12012 12045 12076 12090 12092 12083 12103 12098 12101 12082 12070 12066 12045 12041 12029 12019 12004 11974 11953 11957 11960 11977 11986 11967 11959 11939 11938 11963 11972 11983 12009 12016 12054 12060 12047 12063 12073 12109 12080 12063 12056 12053 12048 12038 12022 12019 11994 11978 11970 11955 11965 11982 11989 12001 11987 11958 11963 11979 11981 11996 12009 12028 12077 12098 12097 12093 12120 12135 12117 12105 12101 12092 12098 12074 12055 12066 12067 12063 12052 12060 12053 12084 12095 12105 12109 12105 12099 12136 12146 12166 12185 12190 12231 12264 12269 12270 12282 12297 12301 12302 12273 12280 12282 12280 12273 12274 12268 12267 12254 12248 12247 12252 12256 12256 12227 12233 12226 12224 12230 12231 12236 12260 12286 12313 12326 12342 12366 12390 12390 12378 12384 12384 12378 12379 12380 12378 12365 12366 12357 12357 12333 12341 12333 12318 12306 12291 12297 12305 12316 12327 12344 12372 12394 12418 12426 12428 12448 12446 12436 12425 12425 12432 12428 12419 12419 12418 12414 12406 12412 12397 12371 12359 12350 12323 12306 12276 12294 12322 12345 12350 12364 12389 12440 12480 12495 12511 12516 12498 12485 12473 12452 12453 12442 12441 12435 12426 12419 12411 12389 12385 12369 12326 12301 12283 12254 12228 12238 12272 12298 12322 12319 12343 12366 12371 12389 12383 12386 12383 12377 12354 12346 12335 12335 12328 12313 12310 12295 12290 12284 12267 12258 12237 12213 12181 12164 12139 12124 12158 12183 12197 12217 12248 12274 12284 12286 12286 12292 12289 12268 12258 12254 12262 12246 12249 12246 12241 12222 12235 12213 12210 12207 12191 12172 12144 12128 12117 12128 12152 12170 12180 12201 12246 12261 12282 12289 12293 12301 12296 12276 12269 12262 12259 12244 12241 12248 12231 12234 12242 12239 12226 12227 12220 12205 12178 12158 12146 12151 12194 12210 12222 12234 12255 12268 12267 12270 12275 12291 12301 12281 12271 12261 12260 12273 12272 12270 12262 12260 12253 12246 12241 12247 12235 12235 12212 12194 12180 12180 12213 12243 12266 12274 12296 12319 12324 12324 12329 12334 12325 12334 12320 12311 12314 12322 12318 12319 12320 12315 12303 12293 12299 12288 12284 12273 12272 12256 12240 12228 12234 12228 12223 12227 12235 12264 12295 12314 12325 12347 12364 12365 12337 12342 12340 12336 12337 12327 12334 12331 12329 12318 12317 12313 12315 12311 12307 12309 12302 12285 12293 12294 12295 12305 12335 12371 12375 12395 12398 12413 12433 12435 12416 12423 12412 12418 12407 12402 12406 12397 12387 12375 12371 12364 12359 12352 12332 12326 12323 12301 12287 12287 12289 12295 12310 12321 12343 12361 12360 12367 12383 12372 12366 12362 12353 12347 12328 12310 12297 12279 12264 12260 12237 12226 12212 12210 12209 12209 12192 12181 12185 12202 12205 12203 12213 12229 12243 12258 12259 12259 12272 12275 12264 12240 12245 12217 12192 12156 12140 12112 12092 12064 12064 12046 12054 12053 12052 12038 12000 12007 12016 12028 12003 11997 12008 12016 12016 12010 12015 12021 12025 12029 12019 12003 11991 11979 11940 11914 11876 11859 11844 11836 11849 11863 11887 11896 11899 11914 11909 11901 11901 11913 11895 11871 11891 11922 11953 11955 11980 12001 12029 12032 12008 12000 11991 11988 11956 11923 11909 11878 11860 11858 11851 11877 11887 11895 11885 11875 11872 11885 11913 11948 11968 11979 11978 12004 12015 12002 11999 12002 12016 12020 11992 11985 11995 12004 12001 11988 11965 11977 11961 11953 11974 11981 11993 11996 11980 11972 11958 11955 11987 12021 12062 12070 12078 12107 12120 12120 12124 12125 12132 12136 12113 12116 12120 12125 12124 12134 12119 12116 12104 12097 12092 12087 12087 12073 12067 12065 12052 12054 12066 12066 12064 12055 12066 12085 12096 12117 12143 12169 12188 12165 12161 12156 12156 12156 12156 12150 12146 12132 12130 12121 12126 12141 12159 12186 12197 12206 12211 12193 12204 12197 12202 12196 12217 12247 12257 12271 12278 12298 12302 12303 12296 12278 12278 12286 12285 12279 12275 12264 12254 12253 12229 12218 12198 12194 12160 12145 12130 12126 12152 12164 12178 12196 12208 12247 12258 12260 12244 12249 12250 12238 12214 12213 12203 12208 12186 12166 12158 12144 12121 12123 12105 12101 12082 12070 12060 12020 12007 12004 12036 12071 12094 12112 12139 12163 12171 12175 12165 12151 12133 12107 12083 12070 12063 12056 12045 12013 12007 11990 11984 11973 11972 11981 11994 11963 11939 11914 11883 11881 11891 11915 11930 11931 11953 11949 11962 11967 11984 11991 11986 11976 11964 11934 11927 11923 11905 11886 11866 11862 11830 11832 11856 11872 11880 11876 11858 11841 11818 11808 11811 11837 11889 11887 11880 11886 11916 11932 11941 11938 11934 11936 11923 11906 11897 11892 11903 11889 11881 11871 11861 11857 11856 11867 11873 11883 11879 11868 11865 11847 11833 11869 11901 11927 11929 11948 11978 11992 12002 12012 12015 12019 12027 12020 12010 12014 12008 12010 12000 11989 11984 11981 11977 11974 11971 11986 11979 11981 11966 11943 11942 11959 11975 12016 12019 12030 12048 12073 12081 12085 12098 12103 12114 12101 12094 12101 12104 12108 12085 12085 12079 12075 12065 12065 12064 12068 12050 12026 12011 11990 11996 12045 12071 12101 12112 12146 12171 12208 12217 12223 12237 12238 12230 12215 12207 12189 12182 12170 12166 12166 12157 12140 12136 12129 12130 12119 12128 12111 12089 12066 12081 12085 12123 12143 12173 12165 12175 12187 12184 12179 12180 12198 12219 12222 12206 12199 12192 12179 12177 12164 12148 12138 12128 12124 12109 12107 12117 12119 12094 12082 12062 12053 12042 12046 12064 12071 12066 12049 12065 12088 12105 12120 12143 12161 12166 12148 12121 12110 12098 12100 12080 12070 12061 12045 12042 12030 12021 12042 12053 12061 12030 12005 11990 11980 11986 12011 12003 12023 12015 12023 12048 12064 12084 12082 12087 12087 12073 12055 12033 12025 12014 12006 12001 11993 11981 11965 11959 11945 11954 11937 11913 11876 11859 11838 11827 11845 11853 11863 11872 11891 11924 11936 11950 11953 11962 11958 11953 11934 11919 11903 11907 11896 11891 11879 11864 11854 11846 11851 11851 11855 11846 11820 11782 11772 11773 11757 11775 11783 11803 11803 11839 11865 11890 11894 11903 11904 11917 11878 11866 11861 11855 11848 11845 11847 11837 11819 11818 11810 11828 11831 11815 11810 11794 11762 11759 11760 11794 11817 11830 11842 11862 11894 11912 11925 11929 11940 11950 11939 11933 11924 11909 11909 11907 11893 11890 11885 11875 11871 11877 11887 11902 11902 11899 11892 11881 11867 11884 11881 11900 11911 11911 11940 11971 11999 12016 12023 12029 12031 12034 12031 12013 12001 11992 11994 11983 11967 11972 11948 11935 11933 11930 11938 11938 11933 11912 11896 11886 11900 11920 11936 11949 11935 11970 11992 12008 12015 12017 12024 12019 12002 11985 11992 11984 11982 11972 11960 11950 11937 11929 11939 11947 11956 11955 11940 11921 11909 11888 11915 11925 11932 11940 11947 11987 12010 12028 12046 12059 12067 12063 12049 12034 12020 12013 12010 11997 11984 11977 11970 11956 11951 11963 11987 11991 11985 11950 11932 11920 11912 11927 11944 11961 11959 11957 11978 11999 12012 12038 12044 12046 12051 12037 12013 12004 11997 11994 11988 11984 11976 11963 11946 11950 11951 11958 11942 11920 11888 11879 11854 11887 11929 11956 11992 12020 12040 12054 12059 12055 12045 12044 12031 12020 11993 11988 11981 11984 11976 11963 11958 11958 11937 11933 11928 11927 11924 11909 11891 11862 11850 11840 11837 11860 11882 11902 11913 11923 11947 11951 11963 11961 11957 11945 11918 11901 11907 11903 11902 11884 11869 11864 11852 11835 11851 11892 11912 11916 11865 11844 11824 11810 11799 11833 11857 11855 11866 11900 11930 11956 11978 12002 12001 11993 11973 11947 11941 11905 11904 11883 11870 11862 11836 11818 11817 11828 11831 11816 11804 11794 11786 11772 11752 11758 11764 11785 11807 11818 11839 11891 11901 11904 11892 11883 11891 11868 11833 11815 11798 11787 11772 11774 11752 11746 11759 11770 11787 11802 11820 11840 11851 11841 11828 11828 11828 11856 11887 11897 11909 11944 11979 11980 11969 11977 11980 11981 11984 11967 11955 11954 11951 11941 11928 11913 11906 11913 11907 11922 11950 11977 11993 11994 11970 11970 11956 11976 12018 12080 12150 12218 12269 12314 12342 12337 12345 12336 12321 12315 12303 12281 12288 12289 12289 12287 12282 12263 12255 12242 12239 12245 12249 12238 12228 12207 12195 12187 12217 12250 12251 12250 12265 12287 12290 12291 12290 12285 12292 12290 12284 12274 12279 12284 12274 12275 12272 12265 12250 12234 12233 12222 12215 12213 12198 12183 12172 12174 12204 12240 12273 12285 12291 12294 12307 12295 12294 12285 12293 12298 12269 12277 12263 12276 12254 12252 12242 12234 12222 12195 12183 12164 12156 12152 12126 12100 12069 12063 12058 12059 12058 12054 12065 12091 12103 12103 12105 12104 12103 12100 12105 12065 12057 12044 12023 12008 12000 11971 11959 11950 11923 11925 11933 11950 11947 11945 11917 11907 11893 11908 11945 11961 11962 11986 12039 12049 12036 12020 12007 12011 11990 11973 11963 11939 11915 11909 11880 11867 11866 11841 11834 11816 11814 11822 11823 11825 11810 11789 11776 11792 11819 11839 11835 11842 11876 11894 11891 11881 11878 11901 11905 11891 11877 11878 11867 11862 11851 11849 11833 11821 11822 11833 11839 11833 11839 11838 11827 11805 11797 11815 11837 11875 11890 11901 11928 11952 11968 11976 11970 11980 11993 11996 11973 11972 11973 11965 11960 11952 11960 11952 11941 11945 11941 11943 11961 11968 11963 11954 11936 11929 11953 11968 11986 11991 11996 12029 12047 12057 12056 12073 12088 12106 12087 12085 12087 12094 12081 12077 12079 12088 12074 12067 12068 12074 12064 12063 12050 12037 12024 12011 12034 12066 12082 12092 12108 12132 12146 12156 12164 12160 12169 12170 12156 12155 12147 12151 12144 12148 12152 12142 12153 12132 12137 12137 12137 12145 12138 12127 12108 12106 12082 12080 12088 12107 12100 12108 12144 12167 12192 12216 12232 12249 12255 12238 12223 12213 12206 12201 12177 12185 12173 12152 12155 12142 12147 12149 12160 12150 12135 12121 12098 12086 12076 12072 12058 12061 12068 12091 12123 12141 12147 12169 12169 12184 12156 12138 12119 12115 12096 12083 12062 12062 12034 12030 12016 12029 12026 12007 11975 11948 11924 11901 11904 11934 11958 11977 11974 11978 12001 12024 12027 12033 12034 12015 12010 11989 11959 11944 11931 11912 11892 11875 11858 11838 11833 11828 11834 11831 11823 11794 11772 11759 11747 11765 11797 11820 11828 11845 11871 11912 11912 11933 11928 11936 11905 11886 11851 11825 11832 11810 11799 11770 11762 11754 11747 11770 11783 11796 11804 11788 11774 11746 11726 11732 11774 11781 11791 11803 11835 11849 11877 11877 11899 11907 11912 11911 11886 11875 11869 11867 11851 11839 11834 11818 11815 11809 11832 11858 11866 11861 11846 11835 11812 11812 11846 11888 11889 11907 11928 11955 11977 12000 12016 12021 12038 12048 12032 12025 12034 12035 12021 12031 12018 12000 12008 12000 11987 12000 12029 12024 12023 12005 12004 11994 11996 12001 12007 12012 12011 12052 12071 12111 12128 12137 12170 12179 12163 12160 12145 12158 12149 12145 12146 12134 12127 12123 12121 12098 12107 12106 12097 12084 12072 12066 12062 12083 12093 12096 12116 12126 12152 12168 12175 12178 12202 12197 12196 12182 12180 12175 12179 12176 12167 12160 12156 12153 12150 12142 12126 12119 12110 12108 12093 12067 12065 12069 12077 12086 12093 12115 12130 12142 12150 12153 12151 12167 12183 12150 12133 12118 12126 12103 12101 12099 12078 12064 12038 12033 12013 11990 11991 12000 11984 11947 11924 11956 11995 12008 12006 12021 12038 12057 12043 12036 12025 12038 12050 12029 12008 11987 11975 11948 11930 11914 11902 11884 11876 11866 11859 11858 11872 11876 11850 11839 11827 11824 11824 11827 11823 11857 11899 11922 11926 11924 11921 11928 11923 11892 11876 11856 11836 11814 11778 11770 11753 11732 11713 11683 11690 11705 11743 11754 11761 11763 11740 11732 11742 11770 11813 11824 11854 11855 11864 11854 11834 11830 11832 11836 11816 11797 11785 11777 11756 11740 11709 11667 11635 11618 11624 11621 11656 11682 11672 11672 11646 11645 11660 11685 11692 11707 11706 11720 11738 11740 11737 11768 11774 11763 11748 11728 11735 11734 11734 11718 11700 11690 11670 11676 11696 11713 11729 11747 11751 11741 11732 11723 11735 11746 11766 11771 11793 11811 11834 11850 11856 11870 11885 11888 11878 11883 11875 11875 11876 11876 11874 11876 11866 11876 11874 11881 11887 11894 11906 11904 11914 11898 11882 11890 11916 11931 11933 11956 11979 12002 12006 12004 12012 12029 12030 12021 12012 12015 12007 12011 12012 12023 12014 12007 12019 12002 12014 12013 12013 11992 11989 11981 11981 11998 12005 12018 12033 12035 12051 12078 12099 12096 12109 12103 12113 12084 12090 12085 12075 12072 12074 12071 12064 12059 12046 12046 12026 12031 12019 12004 11983 11969 11963 11988 12024 12099 12166 12232 12301 12343 12355 12324 12310 12309 12304 12280 12282 12253 12242 12235 12216 12205 12196 12178 12165 12140 12111 12094 12097 12082 12079 12087 12064 12088 12125 12144 12165 12182 12178 12191 12175 12154 12158 12161 12188 12160 12145 12126 12107 12094 12073 12066 12052 12042 12015 11992 11978 11978 11991 11986 11979 11975 11980 12007 12051 12089 12098 12106 12106 12104 12087 12097 12095 12112 12105 12081 12054 12040 12025 12005 11999 11986 11971 11946 11921 11892 11887 11887 11895 11897 11891 11868 11856 11864 11882 11911 11935 11950 11945 11959 11941 11930 11926 11932 11931 11912 11901 11880 11859 11846 11838 11829 11835 11803 11782 11756 11754 11754 11782 11786 11798 11795 11786 11785 11821 11866 11901 11917 11931 11938 11931 11916 11913 11918 11935 11911 11905 11883 11863 11846 11850 11837 11821 11799 11773 11766 11759 11759 11771 11773 11768 11772 11775 11771 11783 11805 11816 11837 11814 11823 11831 11838 11827 11835 11834 11854 11842 11805 11788 11778 11776 11759 11741 11729 11698 11687 11716 11748 11765 11790 11792 11794 11790 11798 11805 11820 11829 11829 11826 11844 11884 11912 11931 11947 11949 11952 11929 11915 11900 11877 11874 11843 11815 11792 11776 11768 11777 11817 11824 11859 11882 11888 11889 11893 11886 11883 11898 11906 11900 11903 11924 11951 11965 11973 11983 12003 12013 11993 11973 11943 11925 11909 11895 11882 11872 11856 11854 11874 11905 11925 11955 11957 11955 11941 11944 11926 11919 11923 11935 11931 11944 11957 11992 12016 12021 12030 12025 12022 11993 11982 11965 11960 11958 11948 11941 11932 11932 11928 11939 11956 11967 11996 11997 11980 11965 11958 11967 11986 11990 12003 11993 12018 12024 12031 12024 12030 12029 12045 12046 12029 12022 12015 12009 12006 12007 12011 12002 11995 11982 11975 11978 11986 11988 11967 11962 11964 11962 11968 11971 11971 11976 11993 12000 12006 12009 11997 11992 11984 11970 11963 11951 11944 11938 11929 11921 11928 11914 11916 11892 11893 11897 11887 11879 11861 11840 11826 11833 11833 11845 11872 11864 11864 11884 11890 11897 11896 11889 11861 11852 11846 11821 11811 11806 11803 11798 11799 11787 11790 11781 11789 11787 11798 11799 11809 11807 11785 11749 11740 11753 11775 11811 11825 11821 11824 11831 11837 11828 11822 11831 11840 11848 11835 11820 11813 11812 11794 11789 11787 11798 11789 11779 11782 11788 11808 11829 11832 11833 11829 11815 11798 11808 11802 11813 11820 11844 11851 11848 11860 11855 11871 11881 11877 11860 11861 11849 11837 11839 11835 11839 11831 11826 11821 11830 11854 11858 11872 11865 11875 11852 11850 11867 11863 11869 11891 11925 11940 11951 11956 11955 11974 11969 11966 11960 11955 11954 11945 11937 11942 11939 11936 11928 11914 11915 11911 11925 11929 11920 11903 11903 11890 11889 11904 11895 11908 11920 11943 11966 11962 11963 11978 11984 11985 11971 11961 11971 11961 11946 11948 11954 11940 11930 11922 11920 11919 11913 11920 11925 11888 11881 11875 11863 11851 11865 11863 11865 11871 11879 11901 11904 11901 11905 11909 11920 11900 11893 11873 11855 11845 11811 11805 11791 11777 11767 11761 11786 11799 11809 11802 11803 11756 11723 11703 11717 11732 11737 11754 11784 11803 11806 11800 11799 11796 11800 11792 11760 11729 11709 11681 11670 11636 11626 11605 11578 11581 11618 11642 11666 11697 11696 11695 11660 11615 11612 11629 11635 11632 11626 11657 11661 11678 11682 11698 11715 11731 11717 11682 11675 11667 11658 11642 11618 11609 11593 11566 11574 11603 11622 11646 11646 11640 11611 11576 11564 11562 11577 11596 11586 11604 11637 11644 11663 11674 11693 11712 11721 11708 11674 11649 11642 11625 11607 11599 11597 11591 11609 11623 11647 11695 11711 11735 11729 11750 11729 11709 11711 11720 11743 11750 11782 11800 11802 11826 11816 11823 11844 11837 11835 11823 11818 11805 11798 11801 11790 11787 11787 11787 11789 11803 11816 11826 11816 11804 11795 11798 11806 11820 11816 11822 11829 11854 11866 11864 11874 11897 11911 11914 11903 11904 11898 11905 11888 11886 11875 11874 11864 11859 11855 11852 11861 11884 11892 11890 11864 11851 11848 11857 11854 11845 11854 11861 11882 11890 11880 11902 11913 11940 11933 11903 11904 11903 11889 11872 11860 11847 11834 11805 11806 11820 11850 11882 11923 11919 11918 11896 11873 11866 11861 11847 11842 11838 11859 11868 11890 11904 11928 11944 11955 11929 11916 11896 11891 11865 11849 11835 11803 11774 11780 11796 11820 11836 11861 11854 11840 11814 11803 11813 11826 11812 11795 11789 11796 11815 11820 11830 11838 11841 11845 11826 11793 11789 11773 11754 11723 11697 11666 11640 11632 11657 11665 11679 11687 11678 11658 11660 11653 11653 11650 11639 11629 11646 11663 11664 11670 11663 11674 11696 11706 11694 11668 11651 11627 11582 11556 11521 11499 11498 11501 11537 11567 11592 11604 11602 11598 11582 11547 11531 11539 11535 11542 11550 11567 11583 11590 11597 11624 11628 11638 11637 11612 11579 11548 11515 11492 11474 11458 11450 11453 11467 11499 11534 11563 11581 11576 11570 11542 11523 11507 11516 11522 11533 11552 11575 11591 11599 11602 11625 11634 11617 11600 11587 11576 11559 11536 11532 11501 11494 11516 11526 11556 11587 11623 11628 11613 11610 11584 11605 11619 11633 11627 11648 11680 11693 11717 11725 11746 11765 11786 11768 11759 11746 11724 11720 11720 11708 11704 11698 11696 11715 11743 11787 11808 11819 11827 11805 11810 11793 11796 11807 11815 11817 11837 11864 11861 11855 11856 11863 11881 11882 11863 11873 11868 11873 11860 11843 11854 11844 11842 11835 11835 11834 11842 11848 11848 11860 11850 11833 11843 11855 11852 11847 11848 11869 11871 11891 11885 11886 11905 11911 11895 11885 11881 11875 11865 11854 11843 11829 11818 11816 11824 11816 11856 11869 11871 11858 11842 11840 11832 11856 11850 11849 11856 11877 11893 11894 11897 11892 11892 11901 11880 11869 11858 11854 11848 11813 11800 11768 11753 11733 11748 11768 11786 11806 11810 11796 11789 11752 11767 11760 11748 11741 11732 11746 11739 11749 11759 11780 11791 11792 11780 11757 11733 11723 11702 11673 11640 11621 11609 11606 11629 11638 11664 11678 11693 11673 11648 11634 11630 11640 11646 11648 11648 11653 11659 11672 11679 11688 11698 11704 11702 11681 11679 11662 11654 11641 11646 11626 11596 11574 11568 11579 11600 11620 11642 11649 11650 11658 11636 11631 11631 11651 11658 11662 11655 11661 11678 11682 11685 11693 11713 11730 11728 11708 11699 11710 11713 11692 11690 11687 11674 11654 11657 11662 11678 11697 11719 11722 11714 11702 11688 11694 11707 11720 11735 11746 11780 11822 11839 11847 11846 11853 11856 11851 11844 11837 11842 11845 11852 11845 11843 11842 11842 11828 11830 11836 11838 11851 11830 11823 11816 11818 11816 11835 11848 11836 11850 11872 11873 11877 11893 11885 11900 11891 11891 11879 11876 11873 11861 11848 11840 11842 11838 11831 11838 11866 11870 11886 11883 11877 11867 11842 11841 11853 11859 11872 11877 11887 11890 11920 11925 11920 11919 11927 11929 11915 11895 11891 11878 11857 11870 11844 11839 11830 11815 11817 11819 11847 11878 11886 11873 11851 11830 11819 11822 11822 11822 11818 11856 11874 11896 11903 11936 11948 11946 11925 11918 11881 11859 11832 11824 11799 11798 11781 11759 11766 11781 11798 11825 11828 11830 11786 11765 11753 11743 11769 11784 11785 11800 11817 11825 11820 11825 11816 11835 11828 11799 11781 11750 11740 11731 11715 11693 11677 11660 11645 11645 11665 11702 11725 11764 11780 11783 11761 11732 11709 11709 11699 11694 11691 11698 11701 11722 11733 11763 11771 11786 11786 11754 11723 11700 11690 11676 11664 11652 11633 11621 11617 11640 11665 11689 11697 11693 11658 11633 11617 11613 11629 11638 11642 11645 11658 11680 11697 11703 11717 11731 11748 11722 11697 11679 11673 11666 11651 11653 11647 11644 11630 11627 11651 11681 11709 11737 11722 11692 11675 11666 11673 11695 11712 11723 11756 11781 11792 11808 11816 11832 11837 11842 11838 11832 11818 11815 11812 11815 11823 11822 11805 11794 11806 11818 11864 11903 11948 11982 12002 12023 12043 12109 12202 12322 12448 12526 12589 12645 12690 12758 12820 12894 12969 13014 13061 13082 13089 13095 13103 13102 13145 13175 13199 13209 13231 13236 13241 13257 13260 13241 13244 13241 13228 13233 13211 13207 13202 13183 13181 13174 13168 13123 13048 12902 12815 12797 12799 12787 12774 12763 12746 12768 12774 12774 12769 12780 12838 12872 12895 12939 12972 12992 13019 12987 12947 12922 12863 12846 12834 12811 12801 12788 12772 12755 12749 12733 12734 12756 12735 12721 12702 12685 12682 12651 12628 12609 12597 12598 12548 12560 12532 12527 12516 12518 12492 12465 12462 12458 12499 12538 12531 12463 12477 12488 12490 12492 12530 12593 12647 12660 12672 12673 12661 12662 12665 12631 12593 12538 12487 12467 12434 12401 12340 12318 12340 12382 12414 12428 12461 12521 12571 12600 12620 12650 12641 12616 12600 12580 12554 12521 12485 12463 12435 12390 12381 12385 12403 12414 12414 12394 12381 12365 12368 12370 12360 12341 12339 12333 12338 12325 12334 12334 12333 12343 12361 12349 12304 12296 12275 12263 12242 12245 12235 12238 12243 12254 12261 12275 12278 12283 12261 12260 12259 12253 12253 12252 12258 12262 12299 12354 12426 12479 12526 12508 12466 12393 12396 12421 12402 12388 12367 12348 12266 12196 12216 12199 12057 12168 12427 12553 12640 12704 12730 12757 12769 12758 12736 12724 12737 12728 12732 12747 12747 12780 12776 12809 12821 12813 12819 12803 12811 12818 12825 12850 12868 12885 12904 12934 12968 12985 13008 13020 13021 13020 13038 13044 13054 13066 13053 13068 13086 13077 13075 13088 13098 13129 13135 13155 13159 13156 13176 13182 13191 13197 13210 13225 13242 13255 13268 13283 13299 13316 13311 13309 13307 13300 13282 13280 13272 13280 13309 13321 13325 13335 13343 13373 13413 13423 13446 13470 13480 13482 13468 13463 13464 13471 13469 13470 13478 13492 13491 13512 13515 13530 13524 13512 13503 13489 13483 13448 13434 13427 13431 13424 13434 13422 13424 13433 13427 13417 13398 13381 13370 13315 13290 13265 13257 13237 13226 13210 13207 13191 13184 13187 13207 13198 13214 13221 13225 13214 13194 13165 13146 13134 13115 13098 13082 13073 13059 13055 13051 13053 13060 13062 13049 13018 12978 12930 12926 12898 12899 12889 12884 12900 12904 12909 12915 12920 12927 12938 12925 12905 12866 12852 12829 12808 12823 12829 12831 12832 12831 12811 12806 12792 12794 12788 12776 12758 12715 12706 12706 12698 12693 12698 12699 12684 12693 12683 12664 12660 12665 12677 12668 12661 12668 12673 12657 12651 12645 12656 12651 12655 12667 12671 12677 12696 12724 12737 12731 12724 12706 12673 12666 12643 12638 12633 12631 12631 12636 12657 12664 12659 12670 12650 12616 12595 12586 12571 12563 12574 12578 12588 12611 12634 12653 12649 12656 12646 12630 12613 12598 12596 12587 12579 12584 12599 12606 12604 12613 12605 12602 12601 12603 12594 12585 12562 12556 12549 12564 12568 12565 12569 12573 12560 12552 12550 12551 12559 12559 12564 12562 12550 12521 12482 12459 12434 12402 12393 12373 12379 12382 12383 12375 12349 12308 12248 12193 12165 12138 12106 12086 12053 12059 12053 12070 12081 12062 12057 12039 12015 11991 11966 11963 11952 11985 12018 12050 12062 12060 12055 12043 12023 12020 11990 11964 11945 11938 11953 11942 11930 11921 11894 11872 11852 11828 11805 11788 11787 11787 11788 11780 11776 11758 11751 11737 11723 11690 11622 11494 11372 11309 11299 11308 11327 11331 11323 11307 11285 11266 11276 11276 11291 11288 11301 11314 11315 11334 11330 11309 11287 11273 11242 11226 11196 11177 11176 11183 11195 11222 11240 11263 11242 11229 11214 11191 11159 11140 11120 11142 11156 11173 11211 11269 11328 11343 11361 11371 11373 11371 11338 11323 11326 11351 11394 11438 11461 11448 11427 11425 11429 11438 11428 11430 11415 11402 11381 11392 11398 11381 11367 11368 11344 11366 11356 11354 11351 11347 11351 11384 11421 11442 11416 11424 11426 11432 11428 11437 11416 11408 11431 11459 11480 11471 11443 11440 11426 11428 11437 11428 11424 11427 11426 11450 11474 11506 11508 11492 11497 11488 11483 11474 11462 11443 11444 11447 11447 11460 11460 11436 11429 11421 11424 11426 11425 11417 11404 11394 11379 11403 11458 11489 11491 11495 11518 11572 11623 11643 11636 11648 11718 11814 11894 11845 11789 11677 11587 11617 11695 11758 11790 11821 11842 11808 11762 11725 11749 11811 11855 11876 11927 11959 12012 12057 12092 12099 12133 12160 12197 12275 12363 12381 12415 12472 12512 12529 12532 12528 12535 12524 12496 12489 12426 12398 12388 12384 12396 12394 12388 12337 12318 12299 12284 12275 12261 12224 12185 12169 12136 12115 12094 12084 12083 12082 12083 12082 12074 12072 12049 12032 11986 11949 11902 11897 11883 11884 11907 11926 11941 11966 12089 12239 12289 12265 12227 12177 12126 12091 12077 12060 12043 12043 12024 12001 12005 12012 12027 12034 12026 12016 12008 12014 12014 12017 12042 12091 12139 12179 12193 12198 12174 12139 12089 12039 12010 11975 11961 11934 11924 11915 11921 11952 11980 12002 12031 12051 12052 12059 12045 12050 12070 12129 12161 12139 12150 12144 12125 12107 12104 12097 12067 12034 11981 11952 11933 11917 11919 11935 11960 12007 12040 12080 12116 12161 12176 12205 12234 12258 12277 12281 12266 12246 12223 12201 12193 12179 12157 12121 12095 12058 12052 12068 12118 12188 12226 12235 12262 12276 12300 12328 12364 12398 12393 12370 12354 12339 12311 12278 12247 12238 12202 12174 12153 12128 12102 12096 12110 12157 12204 12249 12277 12300 12311 12326 12318 12331 12334 12320 12309 12300 12268 12237 12199 12160 12139 12110 12086 12052 12023 11978 11969 11991 12012 12051 12075 12084 12088 12083 12078 12091 12094 12092 12080 12068 12034 12003 11967 11939 11910 11868 11829 11787 11748 11705 11659 11639 11636 11667 11733 11791 11844 11858 11858 11845 11812 11811 11789 11763 11753 11731 11701 11680 11647 11644 11648 11648 11592 11537 11491 11447 11446 11441 11476 11500 11546 11571 11581 11600 11604 11604 11610 11595 11539 11502 11461 11407 11369 11342 11338 11361 11370 11345 11301 11282 11245 11224 11193 11193 11227 11257 11291 11300 11322 11329 11318 11313 11314 11309 11280 11250 11207 11157 11137 11124 11148 11151 11123 11093 11077 11059 11059 11087 11108 11147 11181 11200 11228 11253 11261 11283 11338 11381 11394 11403 11403 11379 11348 11324 11303 11287 11268 11244 11212 11196 11177 11186 11220 11278 11368 11420 11472 11497 11505 11533 11551 11569 11601 11603 11597 11599 11595 11584 11576 11564 11568 11551 11528 11505 11483 11453 11420 11413 11415 11438 11449 11473 11471 11487 11487 11470 11494 11484 11484 11478 11465 11450 11423 11412 11405 11414 11410 11371 11363 11345 11301 11281 11287 11282 11304 11310 11332 11347 11379 11403 11408 11427 11430 11413 11394 11358 11335 11301 11266 11265 11277 11289 11274 11237 11218 11191 11190 11238 11250 11271 11307 11328 11364 11377 11396 11398 11418 11420 11409 11380 11378 11333 11286 11227 11222 11240 11254 11240 11196 11158 11134 11150 11186 11233 11335 11382 11410 11461 11490 11508 11520 11520 11535 11523 11512 11492 11467 11425 11386 11356 11362 11339 11305 11263 11204 11185 11194 11224 11249 11270 11301 11283 11254 11233 11233 11239 11271 11268 11240 11220 11198 11146 11120 11121 11138 11149 11114 11056 11008 10985 10997 11007 11016 11045 11098 11141 11189 11207 11191 11167 11150 11155 11142 11131 11096 11081 11043 11020 11008 11050 11070 11045 11003 10950 10921 10913 10931 10960 11009 11054 11107 11147 11167 11188 11179 11162 11153 11154 11145 11127 11129 11110 11084 11078 11089 11122 11126 11073 11040 11016 11015 11020 11049 11055 11099 11127 11170 11167 11170 11169 11185 11204 11195 11193 11183 11179 11165 11148 11141 11142 11157 11155 11123 11095 11072 11078 11075 11109 11131 11171 11210 11258 11266 11270 11288 11296 11320 11293 11312 11302 11282 11270 11266 11258 11260 11262 11250 11233 11211 11204 11203 11223 11245 11274 11334 11372 11403 11416 11421 11423 11421 11425 11427 11418 11417 11403 11365 11355 11355 11366 11350 11328 11304 11288 11271 11295 11330 11341 11368 11412 11437 11458 11457 11466 11474 11490 11498 11485 11488 11475 11441 11413 11394 11381 11379 11371 11327 11309 11273 11275 11306 11346 11388 11427 11465 11485 11494 11491 11484 11474 11478 11462 11447 11434 11422 11396 11372 11368 11384 11396 11385 11328 11309 11277 11282 11288 11310 11328 11377 11399 11428 11430 11433 11432 11431 11441 11419 11399 11382 11358 11329 11325 11322 11344 11353 11345 11325 11299 11275 11253 11251 11264 11295 11347 11386 11423 11441 11442 11440 11458 11472 11480 11467 11446 11417 11385 11370 11371 11379 11381 11369 11336 11316 11290 11282 11297 11323 11318 11334 11365 11378 11405 11416 11411 11384 11385 11381 11374 11370 11351 11330 11309 11307 11304 11312 11294 11268 11257 11228 11220 11215 11238 11256 11289 11314 11327 11352 11365 11379 11374 11370 11360 11371 11369 11361 11355 11345 11328 11317 11318 11310 11279 11279 11252 11255 11282 11325 11373 11405 11426 11454 11478 11485 11503 11502 11509 11511 11512 11510 11497 11490 11484 11473 11474 11468 11444 11416 11402 11382 11365 11374 11388 11421 11444 11478 11524 11531 11540 11530 11524 11542 11533 11547 11534 11525 11523 11491 11494 11495 11498 11485 11474 11451 11441 11430 11427 11448 11486 11543 11596 11639 11691 11717 11721 11714 11706 11717 11723 11707 11700 11675 11654 11642 11631 11618 11605 11580 11580 11556 11535 11530 11530 11533 11553 11561 11573 11578 11567 11549 11543 11534 11528 11529 11528 11515 11495 11493 11474 11469 11478 11467 11440 11439 11418 11434 11470 11506 11548 11584 11613 11634 11661 11684 11680 11678 11687 11686 11692 11704 11698 11694 11671 11664 11641 11632 11621 11603 11582 11544 11536 11547 11577 11623 11653 11670 11673 11666 11681 11684 11688 11691 11689 11705 11684 11676 11657 11634 11621 11619 11602 11583 11547 11526 11503 11492 11500 11513 11540 11571 11597 11615 11620 11602 11599 11607 11634 11616 11612 11599 11591 11560 11557 11536 11522 11518 11499 11472 11426 11390 11368 11369 11386 11430 11463 11472 11477 11483 11504 11503 11508 11490 11461 11451 11420 11392 11364 11350 11336 11341 11328 11313 11289 11262 11231 11210 11206 11202 11227 11260 11307 11341 11357 11355 11352 11333 11346 11335 11321 11298 11263 11241 11226 11222 11255 11285 11283 11262 11246 11226 11223 11261 11294 11310 11321 11351 11376 11388 11382 11375 11380 11411 11404 11412 11416 11412 11386 11348 11334 11327 11347 11333 11309 11288 11288 11270 11287 11313 11349 11390 11406 11416 11439 11449 11442 11437 11431 11420 11418 11412 11413 11388 11388 11393 11384 11388 11375 11346 11332 11317 11337 11389 11445 11516 11561 11604 11622 11610 11624 11653 11661 11668 11664 11669 11680 11666 11665 11642 11646 11650 11643 11629 11607 11603 11585 11577 11570 11579 11601 11618 11649 11659 11672 11676 11685 11695 11692 11698 11692 11701 11680 11677 11659 11660 11645 11634 11619 11599 11581 11573 11554 11554 11582 11613 11688 11746 11777 11809 11802 11782 11789 11784 11778 11775 11778 11751 11737 11730 11729 11736 11725 11703 11691 11676 11651 11637 11619 11629 11642 11673 11701 11732 11742 11735 11751 11752 11751 11746 11726 11699 11663 11615 11588 11558 11558 11551 11531 11496 11459 11441 11426 11437 11426 11451 11492 11525 11539 11552 11558 11544 11556 11553 11529 11505 11484 11413 11380 11339 11341 11363 11369 11356 11314 11287 11278 11284 11307 11363 11371 11398 11427 11449 11457 11480 11483 11484 11464 11466 11441 11426 11395 11333 11314 11302 11316 11326 11311 11289 11255 11246 11251 11277 11299 11322 11341 11373 11422 11468 11506 11494 11502 11493 11492 11484 11477 11475 11462 11436 11402 11393 11382 11364 11352 11340 11311 11306 11317 11347 11399 11441 11466 11471 11477 11488 11493 11509 11507 11515 11514 11505 11483 11464 11477 11478 11461 11446 11421 11421 11412 11396 11405 11435 11462 11499 11552 11588 11635 11677 11707 11744 11774 11792 11795 11795 11792 11773 11778 11770 11762 11761 11731 11725 11696 11685 11671 11672 11695 11725 11735 11759 11772 11780 11783 11774 11789 11787 11783 11789 11789 11790 11772 11770 11762 11748 11740 11728 11722 11696 11688 11681 11719 11731 11768 11806 11836 11849 11846 11864 11856 11872 11862 11856 11850 11864 11844 11822 11797 11790 11786 11779 11756 11737 11739 11720 11720 11733 11748 11743 11753 11787 11817 11849 11860 11858 11862 11869 11850 11855 11836 11828 11807 11790 11786 11779 11755 11746 11734 11712 11704 11690 11713 11732 11744 11750 11743 11733 11728 11742 11753 11761 11765 11746 11744 11741 11722 11711 11703 11704 11742 11818 11914 12007 12104 12186 12284 12359 12416 12494 12551 12637 12736 12910 13044 13144 13248 13531 13708 13826 13913 13960 13970 13958 13959 13956 13943 13949 13937 13984 14096 14486 14740 14866 14870 14859 14846 14836 14828 14808 14793 14778 14768 14750 14734 14777 14819 14831 14821 14820 14814 14801 14814 14821 14802 14815 14821 14813 14808 14801 14766 14745 14722 14699 14722 14727 14698 14684 14640 14587 14561 14512 14488 14471 14431 14405 14380 14344 14288 14228 14159 14113 14070 14039 13993 13968 13929 13901 13871 13838 13818 13774 13707 13641 13578 13538 13496 13455 13435 13388 13341 13304 13265 13222 13195 13151 13103 13081 13060 13067 13079 13083 13079 13057 13059 13037 13011 12972 12925 12865 12802 12770 12735 12717 12679 12658 12638 12597 12586 12570 12578 12582 12591 12601 12610 12626 12634 12637 12644 12642 12640 12609 12591 12561 12527 12495 12455 12429 12394 12368 12345 12329 12306 12313 12325 12336 12371 12417 12452 12478 12483 12511 12497 12509 12490 12473 12455 12419 12400 12382 12351 12335 12310 12275 12242 12215 12188 12170 12177 12179 12212 12278 12338 12396 12443 12482 12509 12538 12542 12543 12526 12532 12511 12491 12467 12448 12431 12401 12371 12338 12309 12267 12235 12251 12305 12353 12383 12393 12398 12421 12418 12423 12430 12450 12413 12394 12387 12362 12337 12315 12283 12268 12244 12219 12186 12159 12125 12103 12103 12103 12115 12118 12133 12142 12150 12174 12177 12195 12179 12165 12152 12119 12094 12081 12060 12047 12034 12010 11997 11984 11942 11915 11892 11886 11894 11939 11986 12021 12053 12070 12082 12096 12098 12098 12080 12071 12037 11993 11981 11963 11935 11924 11922 11907 11887 11869 11860 11878 11872 11876 11899 11910 11921 11923 11929 11933 11933 11950 11948 11942 11902 11882 11848 11827 11801 11781 11763 11752 11734 11714 11690 11672 11650 11639 11636 11666 11685 11708 11727 11757 11760 11766 11759 11761 11766 11743 11708 11679 11648 11647 11632 11621 11601 11590 11569 11538 11597 11666 11731 11798 11823 11836 11833 11856 11865 11845 11849 11859 11845 11827 11812 11776 11748 11727 11729 11712 11701 11691 11673 11665 11648 11653 11657 11656 11674 11666 11680 11686 11706 11725 11747 11770 11768 11775 11774 11761 11737 11739 11704 11704 11679 11676 11662 11650 11636 11614 11624 11652 11678 11724 11775 11784 11786 11786 11780 11771 11788 11792 11789 11797 11785 11768 11757 11764 11754 11747 11737 11718 11701 11683 11657 11679 11697 11730 11772 11804 11856 11880 11895 11890 11889 11887 11891 11887 11874 11869 11849 11822 11810 11797 11784 11758 11746 11714 11697 11709 11745 11752 11753 11767 11782 11818 11831 11814 11812 11845 11853 11846 11841 11833 11816 11797 11789 11770 11766 11750 11734 11709 11687 11674 11657 11657 11689 11714 11758 11787 11829 11838 11844 11837 11848 11836 11829 11821 11793 11784 11746 11733 11732 11749 11761 11737 11712 11694 11688 11741 11775 11780 11826 11886 11920 11934 11934 11939 11932 11946 11943 11926 11928 11904 11866 11842 11800 11791 11787 11802 11787 11761 11752 11733 11750 11776 11803 11822 11856 11884 11895 11886 11891 11883 11882 11894 11890 11879 11859 11824 11800 11774 11746 11741 11749 11730 11721 11681 11670 11673 11695 11739 11751 11776 11811 11809 11810 11820 11844 11864 11878 11891 11886 11871 11818 11790 11763 11741 11741 11738 11701 11678 11658 11651 11668 11700 11737 11743 11752 11757 11775 11792 11814 11807 11840 11834 11837 11839 11817 11789 11754 11738 11722 11709 11694 11693 11698 11699 11728 11755 11842 11926 12004 12096 12179 12270 12389 12489 12592 12706 12818 12955 13095 13228 13342 13433 13475 13461 13452 13467 13518 13589 13621 13621 13621 13668 13740 13773 13827 13845 13873 13883 13887 13891 13879 13871 13858 13862 13858 13870 13907 13920 13967 13986 13999 14003 14034 14044 14074 14114 14142 14150 14150 14163 14170 14169 14178 14185 14194 14212 14226 14223 14218 14205 14194 14175 14176 14150 14143 14103 14072 14055 14043 14039 14031 14033 14035 14031 14029 14019 14019 14002 13975 13973 13948 13933 13912 13898 13875 13869 13850 13829 13807 13785 13753 13720 13684 13648 13640 13644 13660 13675 13686 13686 13681 13686 13679 13680 13671 13651 13628 13622 13579 13552 13532 13496 13475 13447 13412 13382 13358 13313 13281 13270 13265 13275 13277 13293 13284 13284 13280 13277 13287 13290 13255 13219 13177 13127 13082 13061 13035 13014 12984 12954 12937 12918 12893 12877 12880 12875 12885 12878 12885 12903 12907 12921 12939 12978 13000 12999 12988 12947 12891 12835 12816 12798 12777 12758 12726 12706 12684 12683 12696 12714 12720 12736 12752 12793 12809 12855 12878 12916 12915 12912 12907 12887 12867 12814 12775 12742 12718 12695 12670 12658 12629 12608 12612 12626 12651 12681 12691 12694 12710 12728 12741 12748 12782 12776 12778 12767 12752 12738 12728 12696 12687 12661 12635 12614 12600 12581 12554 12563 12560 12575 12595 12617 12630 12629 12644 12642 12646 12667 12669 12679 12684 12671 12647 12646 12631 12617 12596 12571 12551 12518 12499 12492 12481 12486 12478 12491 12483 12485 12478 12465 12440 12457 12480 12499 12510 12523 12508 12495 12482 12459 12448 12439 12432 12403 12377 12356 12328 12310 12308 12316 12349 12375 12406 12422 12427 12453 12447 12470 12459 12457 12440 12421 12394 12362 12345 12330 12313 12302 12276 12258 12216 12180 12157 12174 12172 12213 12245 12290 12323 12369 12384 12387 12394 12376 12355 12336 12305 12286 12247 12214 12199 12194 12186 12178 12142 12122 12076 12063 12070 12111 12135 12197 12235 12270 12304 12325 12340 12345 12351 12343 12319 12289 12262 12226 12195 12183 12193 12214 12199 12190 12158 12126 12105 12138 12172 12198 12220 12245 12267 12281 12328 12346 12366 12392 12392 12371 12333 12294 12262 12234 12208 12201 12187 12161 12139 12118 12102 12077 12083 12096 12145 12186 12226 12261 12288 12306 12317 12330 12335 12329 12315 12283 12237 12216 12198 12163 12140 12141 12121 12109 12088 12085 12065 12066 12061 12091 12123 12150 12189 12210 12214 12222 12223 12211 12205 12190 12175 12143 12105 12076 12080 12085 12084 12076 12047 12037 12016 12035 12043 12063 12080 12102 12111 12109 12115 12131 12136 12146 12154 12148 12121 12089 12049 12018 12000 12002 12006 12002 11983 11969 11945 11939 11919 11927 11936 11970 11994 12028 12052 12061 12080 12088 12120 12134 12127 12128 12100 12058 12037 12009 11996 11989 11989 11978 11954 11942 11930 11926 11975 12050 12110 12179 12237 12252 12247 12248 12240 12230 12222 12223 12222 12194 12186 12159 12140 12122 12126 12109 12109 12087 12084 12072 12071 12110 12147 12178 12200 12210 12210 12200 12217 12212 12223 12226 12226 12227 12230 12209 12197 12174 12164 12162 12154 12144 12133 12123 12111 12123 12162 12219 12270 12323 12364 12381 12378 12391 12388 12376 12380 12383 12372 12371 12350 12339 12337 12309 12305 12291 12282 12276 12255 12249 12236 12263 12273 12272 12290 12332 12336 12340 12328 12328 12328 12342 12342 12341 12349 12341 12308 12303 12291 12276 12260 12240 12218 12191 12176 12176 12197 12241 12263 12290 12335 12355 12351 12349 12328 12311 12315 12307 12285 12274 12244 12222 12194 12171 12153 12134 12114 12085 12064 12026 11991 11973 11973 12003 12039 12078 12090 12109 12115 12132 12120 12101 12079 12027 11983 11944 11892 11865 11858 11860 11877 11864 11845 11819 11795 11779 11774 11799 11826 11877 11923 11942 11955 11946 11932 11931 11943 11926 11893 11828 11776 11725 11707 11711 11720 11738 11742 11716 11696 11691 11740 11777 11814 11820 11826 11820 11823 11825 11851 11830 11855 11846 11822 11799 11765 11716 11668 11629 11631 11652 11671 11679 11644 11633 11636 11677 11720 11760 11811 11817 11791 11784 11790 11791 11795 11824 11807 11777 11748 11712 11666 11647 11624 11601 11601 11615 11600 11571 11565 11585 11617 11692 11714 11741 11765 11767 11767 11746 11723 11711 11718 11708 11689 11649 11621 11579 11568 11568 11600 11614 11613 11581 11552 11549 11570 11601 11673 11710 11759 11786 11819 11833 11847 11848 11820 11805 11794 11766 11731 11711 11673 11660 11644 11665 11695 11728 11718 11695 11660 11663 11678 11723 11759 11809 11849 11885 11913 11913 11901 11907 11890 11890 11871 11831 11817 11795 11767 11754 11760 11783 11813 11831 11810 11797 11770 11774 11791 11841 11872 11912 11953 11974 11990 12004 12017 12015 12024 11997 11969 11946 11898 11874 11856 11853 11881 11899 11914 11889 11880 11863 11864 11890 11924 11943 11967 11984 11996 12002 11992 11990 11987 11991 11953 11928 11877 11841 11807 11797 11805 11841 11863 11865 11865 11830 11806 11808 11821 11844 11887 11916 11941 11957 11959 11963 11967 11983 11986 11965 11932 11879 11823 11789 11787 11816 11822 11850 11857 11830 11804 11799 11818 11869 11883 11921 11961 11996 12022 12039 12043 12029 12037 12027 12010 11984 11911 11851 11784 11758 11746 11778 11804 11819 11794 11775 11771 11790 11823 11863 11863 11884 11901 11916 11930 11945 11926 11913 11877 11841 11810 11784 11736 11672 11649 11679 11710 11731 11734 11721 11713 11709 11740 11780 11815 11840 11832 11831 11823 11851 11834 11847 11893 11920 11900 11877 11849 11804 11763 11714 11697 11704 11714 11692 11663 11623 11615 11636 11672 11702 11729 11756 11748 11732 11722 11704 11678 11700 11692 11663 11631 11612 11592 11581 11601 11615 11613 11614 11593 11550 11544 11548 11603 11653 11697 11729 11761 11784 11786 11760 11736 11730 11738 11728 11707 11686 11675 11643 11635 11666 11707 11729 11699 11651 11628 11604 11622 11645 11682 11721 11769 11814 11839 11853 11867 11884 11872 11888 11892 11879 11855 11839 11826 11797 11816 11862 11887 11913 11888 11856 11828 11828 11864 11897 11929 11965 12024 12082 12101 12098 12095 12080 12081 12082 12092 12069 12068 12048 12039 12030 12032 12033 12037 12018 11997 11967 11951 11961 11968 11990 12034 12076 12094 12115 12112 12104 12092 12103 12096 12093 12086 12072 12049 12045 12030 12035 12024 12011 11999 11981 11957 11949 11930 11941 11954 11975 12023 12042 12059 12059 12081 12090 12082 12076 12058 12030 11994 11972 11952 11935 11933 11959 11960 11933 11906 11892 11871 11877 11882 11900 11931 11947 11963 11955 11970 11966 11992 12002 11976 11917 11866 11822 11789 11775 11793 11831 11852 11848 11809 11791 11776 11761 11755 11755 11768 11805 11822 11845 11863 11870 11862 11885 11881 11861 11821 11757 11703 11661 11649 11666 11702 11723 11731 11713 11699 11688 11695 11706 11708 11710 11728 11760 11757 11765 11794 11774 11779 11771 11753 11710 11665 11610 11579 11573 11587 11628 11653 11653 11632 11605 11615 11637 11690 11692 11701 11704 11733 11752 11765 11757 11750 11762 11752 11754 11736 11710 11689 11650 11640 11660 11677 11693 11686 11667 11651 11637 11652 11685 11730 11745 11787 11818 11833 11849 11861 11838 11856 11859 11850 11843 11827 11814 11791 11768 11774 11793 11792 11767 11761 11748 11732 11736 11758 11790 11800 11809 11831 11849 11843 11845 11846 11878 11871 11866 11862 11842 11824 11811 11797 11802 11807 11826 11814 11788 11774 11765 11793 11830 11875 11933 11986 12010 12029 12020 12009 12010 12016 12009 11996 11978 11957 11940 11924 11894 11898 11892 11885 11845 11825 11806 11801 11791 11806 11815 11849 11898 11910 11937 11941 11937 11925 11939 11937 11916 11901 11877 11851 11828 11818 11837 11834 11810 11768 11742 11727 11723 11730 11722 11745 11782 11828 11868 11869 11843 11809 11813 11796 11785 11761 11753 11724 11705 11698 11731 11752 11774 11743 11704 11679 11665 11659 11683 11696 11729 11746 11798 11833 11844 11851 11835 11825 11824 11805 11786 11789 11760 11732 11732 11774 11817 11835 11815 11765 11741 11731 11729 11740 11765 11788 11838 11882 11915 11928 11932 11928 11922 11920 11892 11878 11869 11836 11813 11799 11811 11855 11882 11890 11866 11811 11781 11781 11816 11822 11851 11881 11923 11942 11951 11955 11946 11927 11906 11893 11861 11831 11800 11786 11767 11777 11818 11816 11811 11778 11735 11703 11699 11709 11746 11764 11796 11836 11867 11897 11893 11895 11888 11888 11859 11830 11814 11781 11770 11743 11752 11770 11809 11816 11787 11759 11715 11704 11710 11719 11732 11764 11799 11827 11854 11874 11858 11856 11866 11825 11809 11774 11742 11712 11695 11707 11729 11749 11758 11739 11714 11675 11668 11668 11684 11708 11759 11835 11890 11936 11925 11918 11915 11916 11907 11880 11845 11828 11797 11785 11782 11802 11829 11851 11849 11818 11798 11772 11763 11768 11775 11808 11850 11916 11954 11982 11971 11967 11965 11961 11946 11923 11913 11883 11854 11835 11840 11869 11888 11897 11869 11848 11800 11796 11794 11804 11821 11882 11981 12076 12158 12204 12213 12218 12227 12219 12202 12183 12150 12122 12091 12073 12066 12083 12085 12074 12057 12003 12001 12002 12042 12072 12129 12193 12240 12280 12288 12247 12227 12215 12199 12171 12149 12120 12098 12069 12066 12083 12098 12090 12069 12053 12012 12000 11981 11990 12007 12033 12088 12141 12156 12162 12172 12161 12166 12165 12145 12121 12095 12066 12046 12031 12042 12077 12099 12104 12104 12091 12075 12071 12090 12103 12117 12149 12189 12227 12258 12270 12279 12284 12277 12266 12241 12207 12178 12138 12117 12097 12114 12128 12142 12120 12101 12062 12060 12042 12039 12044 12053 12083 12109 12116 12121 12115 12122 12134 12117 12074 12044 11991 11962 11944 11933 11949 11972 11990 11952 11944 11916 11910 11907 11900 11900 11931 11961 11992 12004 12000 11998 11991 12001 11993 11958 11917 11869 11828 11802 11811 11809 11840 11833 11811 11793 11760 11746 11740 11740 11731 11763 11787 11820 11850 11861 11857 11830 11840 11820 11776 11715 11676 11635 11616 11635 11690 11721 11733 11702 11673 11665 11679 11678 11684 11705 11745 11778 11809 11842 11835 11827 11820 11836 11816 11769 11741 11687 11665 11660 11678 11734 11761 11776 11749 11725 11707 11712 11725 11743 11770 11814 11865 11899 11930 11943 11960 11954 11975 11957 11952 11914 11890 11867 11853 11856 11882 11910 11904 11886 11871 11855 11864 11890 11894 11910 11946 11998 12035 12082 12089 12092 12089 12089 12099 12091 12082 12074 12043 12034 12021 12022 12023 12043 12048 12022 12006 11989 12005 12021 12069 12101 12124 12146 12154 12152 12154 12156 12180 12193 12193 12176 12177 12163 12144 12141 12129 12131 12134 12106 12103 12091 12070 12064 12069 12075 12080 12095 12119 12129 12152 12149 12160 12183 12195 12183 12175 12170 12153 12128 12117 12107 12093 12109 12098 12068 12052 12037 12032 12047 12080 12116 12143 12155 12172 12172 12155 12149 12166 12166 12158 12146 12132 12102 12074 12039 12020 12012 12021 12022 11991 11962 11931 11923 11931 11953 11977 12008 12018 12026 12030 12030 12028 12027 12043 12017 11994 11974 11939 11909 11881 11855 11861 11867 11865 11846 11819 11794 11787 11823 11894 11966 12019 12071 12081 12078 12044 12030 12012 12024 12012 11979 11957 11934 11892 11862 11851 11866 11853 11830 11784 11763 11734 11719 11733 11770 11818 11875 11916 11975 11995 11976 11948 11909 11904 11879 11863 11835 11818 11788 11763 11768 11796 11826 11813 11781 11741 11703 11699 11743 11786 11837 11874 11920 11954 11977 11981 11941 11920 11907 11899 11882 11872 11832 11803 11778 11774 11781 11806 11828 11804 11753 11730 11722 11771 11802 11810 11829 11829 11868 11881 11911 11882 11850 11826 11845 11841 11826 11810 11784 11769 11747 11755 11785 11804 11807 11771 11730 11697 11713 11784 11818 11847 11864 11890 11932 11949 11954 11930 11914 11915 11877 11859 11836 11809 11798 11776 11782 11802 11839 11851 11836 11806 11774 11768 11778 11778 11799 11836 11886 11946 11978 12012 11991 11983 11967 11959 11938 11915 11887 11860 11848 11830 11863 11882 11898 11886 11878 11835 11808 11806 11821 11853 11898 11952 11991 12011 12019 12004 12000 12017 12035 12051 12027 12002 11977 11944 11938 11936 11952 11956 11944 11932 11903 11883 11879 11886 11938 11988 12051 12081 12108 12110 12107 12117 12121 12120 12102 12091 12052 12018 11992 11978 11986 11998 11992 11960 11938 11920 11904 11904 11915 11939 11996 12036 12068 12105 12135 12134 12122 12111 12125 12108 12096 12072 12035 11996 11984 11983 12004 12024 12000 11981 11945 11954 11982 12014 12028 12033 12044 12057 12065 12067 12071 12065 12074 12081 12062 12044 12021 11981 11938 11903 11911 11935 11972 11958 11932 11905 11888 11899 11917 11919 11940 11964 12004 12019 12033 12026 12018 11999 11999 11986 11967 11913 11857 11807 11782 11792 11808 11827 11810 11779 11760 11731 11753 11767 11800 11801 11806 11847 11870 11882 11887 11880 11862 11870 11845 11818 11793 11739 11686 11645 11666 11672 11689 11697 11664 11630 11626 11633 11667 11711 11699 11690 11718 11745 11759 11766 11748 11743 11748 11764 11729 11728 11691 11627 11599 11611 11640 11669 11704 11691 11675 11647 11645 11653 11684 11709 11719 11743 11774 11800 11829 11829 11841 11840 11849 11845 11835 11811 11762 11730 11697 11683 11722 11737 11730 11707 11682 11685 11729 11801 11874 11931 11974 12002 12037 12060 12048 12032 12017 12019 12008 11999 11985 11950 11912 11882 11869 11886 11885 11875 11844 11821 11798 11806 11831 11848 11888 11900 11913 11935 11950 11958 11952 11966 11984 11960 11956 11942 11907 11884 11868 11861 11898 11935 11951 11923 11907 11898 11901 11945 11971 12003 12024 12020 12023 12028 12023 12025 12029 12021 12028 12008 11988 11965 11936 11891 11881 11876 11908 11924 11898 11869 11854 11845 11858 11888 11911 11946 11974 11968 11985 11973 11954 11950 11976 11966 11965 11938 11918 11880 11842 11819 11837 11857 11886 11891 11859 11840 11816 11824 11842 11877 11916 11929 11943 11987 11997 11980 11976 11978 11994 11972 11948 11920 11881 11849 11818 11839 11861 11876 11870 11834 11802 11794 11793 11852 11890 11902 11905 11928 11949 11945 11959 11953 11974 11966 11954 11937 11905 11851 11807 11772 11787 11811 11840 11833 11780 11759 11747 11790 11853 11898 11922 11929 11955 11959 11976 11992 11994 12012 12008 11976 11955 11922 11860 11827 11807 11813 11845 11841 11836 11790 11766 11742 11738 11755 11738 11733 11750 11776 11784 11804 11816 11813 11807 11814 11819 11782 11742 11672 11616 11576 11595 11628 11661 11683 11678 11670 11639 11645 11662 11669 11663 11690 11723 11748 11769 11773 11783 11784 11780 11770 11758 11716 11657 11603 11565 11564 11596 11628 11629 11613 11556 11552 11553 11567 11593 11597 11620 11665 11703 11743 11749 11758 11721 11715 11708 11687 11621 11572 11515 11495 11511 11566 11603 11633 11633 11608 11610 11596 11612 11610 11628 11669 11696 11725 11751 11773 11770 11769 11788 11795 11789 11759 11705 11665 11620 11614 11643 11680 11713 11727 11709 11694 11673 11679 11683 11692 11737 11783 11819 11861 11877 11896 11912 11900 11909 11903 11869 11818 11778 11727 11694 11700 11749 11777 11805 11798 11785 11759 11733 11717 11710 11723 11746 11794 11851 11885 11909 11907 11897 11890 11880 11856 11803 11752 11708 11661 11664 11710 11751 11776 11805 11782 11759 11718 11696 11690 11684 11714 11757 11802 11841 11881 11889 11883 11892 11880 11863 11811 11753 11720 11669 11650 11686 11741 11787 11785 11767 11730 11686 11671 11690 11680 11693 11707 11752 11799 11843 11848 11879 11850 11849 11820 11772 11725 11663 11630 11620 11658 11706 11754 11780 11771 11754 11684 11662 11674 11699 11748 11810 11833 11893 11922 11930 11913 11904 11882 11836 11777 11707 11671 11631 11620 11659 11710 11762 11790 11788 11750 11696 11639 11651 11672 11719 11769 11807 11853 11868 11885 11881 11871 11849 11805 11762 11687 11640 11601 11564 11560 11592 11642 11685 11698 11689 11631 11566 11562 11572 11589 11641 11691 11747 11814 11873 11880 11863 11837 11806 11736 11674 11608 11571 11525 11513 11572 11630 11676 11693 11656 11631 11567 11525 11518 11536 11545 11565 11616 11630 11659 11657 11655 11666 11654 11578 11516 11454 11407 11380 11368 11402 11445 11499 11520 11506 11469 11454 11443 11493 11545 11582 11619 11667 11723 11755 11775 11762 11738 11724 11697 11634 11562 11499 11460 11432 11443 11489 11550 11571 11571 11556 11540 11500 11472 11488 11505 11546 11579 11633 11674 11694 11680 11666 11671 11671 11654 11604 11552 11516 11468 11493 11540 11584 11620 11626 11621 11602 11576 11563 11543 11559 11597 11651 11688 11735 11768 11774 11793 11781 11801 11797 11756 11705 11653 11607 11585 11612 11651 11678 11702 11693 11645 11634 11621 11611 11609 11618 11665 11734 11792 11835 11858 11889 11888 11905 11891 11874 11850 11808 11755 11717 11693 11708 11726 11736 11709 11671 11654 11639 11640 11651 11700 11776 11832 11879 11880 11879 11872 11892 11914 11905 11893 11857 11789 11743 11702 11714 11718 11760 11769 11740 11692 11671 11663 11682 11725 11727 11759 11801 11840 11877 11890 11867 11849 11849 11825 11802 11770 11713 11651 11640 11675 11720 11737 11716 11665 11625 11600 11617 11663 11683 11699 11723 11754 11783 11807 11828 11847 11828 11831 11811 11783 11724 11663 11588 11573 11614 11657 11713 11745 11710 11674 11653 11664 11704 11763 11774 11773 11775 11784 11792 11797 11789 11790 11786 11774 11756 11700 11640 11553 11513 11542 11597 11655 11688 11682 11664 11633 11643 11654 11680 11669 11661 11689 11718 11757 11783 11777 11766 11748 11739 11717 11670 11589 11514 11479 11496 11523 11542 11579 11567 11529 11490 11477 11505 11528 11533 11560 11589 11638 11679 11691 11682 11660 11655 11646 11621 11581 11511 11437 11406 11429 11464 11482 11499 11471 11432 11403 11378 11386 11386 11376 11386 11408 11455 11473 11490 11500 11499 11504 11509 11516 11452 11373 11317 11294 11300 11335 11388 11428 11437 11410 11393 11369 11374 11356 11370 11404 11440 11471 11519 11551 11543 11541 11538 11562 11556 11508 11454 11385 11351 11361 11432 11493 11550 11578 11552 11539 11522 11515 11521 11518 11544 11607 11666 11708 11735 11745 11743 11738 11749 11752 11709 11662 11610 11567 11541 11540 11589 11644 11684 11688 11658 11640 11619 11595 11593 11612 11644 11692 11743 11772 11787 11819 11806 11795 11805 11789 11750 11724 11703 11668 11653 11687 11742 11788 11808 11814 11796 11776 11763 11759 11765 11806 11847 11923 11994 12035 12067 12071 12075 12072 12057 12047 12031 11995 11956 11923 11899 11898 11907 11909 11903 11869 11846 11825 11836 11895 11967 12034 12092 12126 12125 12129 12127 12107 12088 12069 12033 11998 11950 11905 11865 11852 11872 11909 11920 11907 11882 11855 11822 11798 11826 11839 11867 11897 11948 11978 11999 12003 11990 11968 11952 11912 11845 11785 11730 11703 11702 11736 11764 11788 11779 11748 11695 11648 11670 11701 11725 11747 11787 11825 11824 11830 11814 11799 11791 11770 11723 11676 11624 11579 11544 11539 11587 11619 11640 11628 11597 11528 11482 11482 11490 11513 11566 11610 11646 11698 11705 11718 11723 11687 11642 11590 11540 11479 11441 11415 11424 11467 11500 11529 11540 11491 11424 11373 11360 11382 11429 11482 11522 11580 11627 11634 11652 11662 11636 11612 11580 11545 11519 11478 11447 11437 11471 11497 11533 11545 11518 11470 11436 11411 11428 11451 11490 11536 11568 11608 11634 11656 11645 11634 11648 11635 11615 11574 11538 11516 11490 11508 11559 11609 11638 11622 11575 11542 11512 11525 11561 11612 11652 11696 11746 11777 11807 11819 11807 11808 11807 11799 11777 11758 11723 11702 11680 11698 11703 11729 11718 11669 11643 11619 11616 11627 11670 11708 11736 11761 11774 11789 11776 11771 11785 11790 11783 11757 11736 11714 11674 11661 11659 11692 11720 11711 11662 11613 11600 11587 11586 11626 11687 11756 11811 11843 11890 11884 11876 11848 11836 11801 11767 11738 11691 11660 11636 11657 11684 11711 11704 11637 11600 11577 11587 11648 11718 11791 11863 11916 11942 11947 11926 11907 11887 11866 11841 11798 11749 11700 11673 11671 11713 11754 11785 11766 11709 11651 11644 11672 11725 11764 11807 11853 11898 11925 11936 11923 11898 11862 11835 11806 11764 11731 11683 11661 11642 11664 11683 11700 11689 11627 11573 11539 11542 11591 11637 11716 11790 11825 11830 11841 11825 11783 11728 11705 11682 11666 11640 11618 11589 11571 11581 11592 11594 11577 11515 11458 11433 11416 11449 11496 11527 11578 11605 11614 11634 11627 11604 11555 11546 11510 11491 11457 11423 11384 11408 11436 11462 11492 11492 11440 11395 11357 11352 11374 11422 11473 11530 11567 11592 11599 11592 11570 11553 11534 11505 11464 11415 11399 11353 11338 11386 11433 11487 11492 11445 11397 11370 11344 11350 11379 11437 11485 11523 11570 11585 11610 11610 11593 11586 11586 11558 11518 11496 11469 11450 11451 11491 11534 11567 11549 11512 11471 11463 11471 11502 11564 11615 11659 11681 11690 11700 11690 11675 11673 11681 11682 11664 11633 11609 11584 11561 11591 11618 11649 11668 11619 11596 11567 11570 11612 11679 11727 11779 11814 11836 11831 11819 11807 11819 11830 11828 11804 11772 11758 11728 11709 11702 11732 11762 11778 11729 11699 11665 11666 11673 11702 11763 11822 11887 11935 11970 11963 11945 11920 11904 11876 11862 11829 11802 11763 11742 11751 11757 11810 11826 11804 11741 11714 11679 11673 11667 11675 11711 11750 11749 11753 11734 11707 11670 11635 11614 11560 11539 11521 11508 11509 11537 11577 11615 11623 11595 11548 11525 11528 11571 11617 11642 11674 11702 11730 11759 11767 11758 11745 11731 11736 11727 11694 11675 11638 11642 11667 11688 11705 11702 11661 11615 11571 11548 11548 11569 11614 11644 11692 11725 11759 11762 11764 11736 11716 11697 11670 11634 11590 11560 11530 11516 11559 11585 11613 11593 11537 11478 11442 11443 11439 11471 11518 11595 11685 11755 11804 11819 11784 11734 11682 11648 11620 11574 11550 11500 11479 11506 11554 11579 11584 11513 11450 11412 11407 11419 11424 11445 11505 11551 11589 11627 11667 11664 11621 11572 11541 11526 11486 11464 11428 11429 11456 11490 11510 11499 11447 11401 11360 11347 11366 11399 11451 11525 11575 11629 11657 11658 11657 11648 11639 11617 11587 11560 11524 11486 11477 11508 11533 11552 11545 11509 11467 11452 11450 11457 11473 11523 11553 11610 11636 11669 11679 11675 11671 11667 11640 11613 11592 11570 11551 11548 11586 11611 11651 11635 11611 11572 11543 11552 11565 11597 11649 11687 11729 11749 11761 11760 11772 11785 11791 11762 11741 11720 11679 11646 11616 11635 11678 11715 11731 11701 11658 11626 11609 11618 11644 11675 11697 11728 11754 11778 11797 11824 11845 11865 11864 11852 11811 11771 11744 11733 11739 11756 11786 11802 11785 11746 11703 11688 11683 11695 11725 11784 11817 11854 11881 11892 11872 11848 11838 11820 11786 11732 11699 11654 11640 11663 11701 11752 11771 11748 11708 11668 11639 11641 11650 11695 11735 11760 11818 11842 11850 11830 11831 11807 11782 11739 11722 11677 11631 11622 11645 11681 11721 11732 11712 11679 11627 11606 11598 11604 11643 11686 11727 11782 11811 11826 11817 11818 11811 11794 11763 11709 11676 11637 11617 11622 11643 11690 11736 11738 11726 11686 11671 11665 11694 11705 11719 11734 11743 11757 11775 11810 11824 11828 11820 11788 11727 11686 11651 11621 11607 11639 11690 11711 11716 11694 11690 11654 11642 11659 11703 11728 11762 11789 11803 11791 11768 11756 11759 11750 11733 11673 11611 11560 11530 11515 11533 11563 11579 11577 11541 11510 11496 11480 11470 11481 11538 11601 11660 11694 11722 11735 11717 11713 11703 11663 11618 11547 11510 11473 11472 11487 11535 11568 11564 11536 11517 11525 11527 11549 11587 11660 11708 11743 11808 11823 11819 11799 11792 11779 11737 11699 11622 11585 11556 11573 11618 11653 11658 11626 11602 11582 11582 11616 11645 11682 11712 11749 11789 11810 11830 11828 11824 11832 11823 11811 11769 11724 11687 11664 11642 11701 11752 11780 11779 11739 11737 11713 11710 11707 11728 11750 11783 11828 11852 11876 11884 11875 11881 11876 11881 11844 11810 11779 11747 11733 11760 11799 11847 11872 11880 11858 11859 11856 11845 11834 11871 11892 11923 11954 11977 11995 12004 12018 12028 12046 12034 12015 12002 11979 11956 11943 11956 11977 12007 12013 11988 11965 11932 11924 11942 11983 12043 12095 12139 12168 12223 12273 12311 12319 12305 12278 12270 12262 12241 12218 12214 12195 12214 12239 12244 12216 12182 12160 12130 12137 12171 12197 12247 12274 12326 12358 12394 12413 12435 12425 12414 12373 12345 12298 12252 12215 12187 12166 12165 12164 12142 12110 12060 12030 12025 12026 12052 12080 12099 12124 12146 12139 12152 12151 12128 12108 12053 12001 11938 11898 11860 11851 11859 11886 11902 11863 11804 11751 11705 11692 11703 11741 11774 11813 11838 11843 11849 11840 11830 11820 11773 11726 11669 11611 11573 11550 11553 11613 11652 11690 11676 11644 11588 11559 11547 11568 11597 11637 11678 11709 11755 11771 11791 11816 11814 11772 11703 11639 11575 11512 11497 11528 11577 11612 11661 11656 11621 11589 11548 11536 11558 11596 11642 11672 11698 11710 11719 11718 11728 11741 11715 11677 11619 11558 11517 11495 11508 11534 11582 11600 11614 11578 11562 11529 11524 11531 11541 11586 11632 11675 11726 11740 11740 11733 11717 11732 11733 11710 11679 11641 11615 11621 11628 11675 11704 11721 11687 11677 11664 11681 11717 11754 11805 11843 11885 11914 11922 11932 11923 11924 11926 11917 11920 11903 11889 11863 11845 11837 11847 11870 11886 11853 11830 11832 11826 11827 11833 11848 11887 11926 11974 11996 11988 11974 11965 11968 11976 11978 11964 11942 11919 11891 11892 11910 11927 11923 11900 11882 11864 11854 11849 11856 11866 11909 11990 12046 12104 12139 12163 12153 12168 12193 12222 12210 12185 12154 12115 12088 12079 12086 12090 12062 12042 12026 12007 11975 11960 11952 11976 12011 12041 12055 12085 12080 12058 12052 12029 12014 11973 11909 11865 11833 11837 11865 11881 11896 11868 11846 11836 11837 11861 11883 11938 11980 12030 12081 12084 12087 12058 12036 12017 12001 11982 11935 11863 11821 11786 11818 11860 11890 11918 11905 11883 11886 11897 11928 11947 11956 11978 12005 12026 12032 12046 12054 12038 12032 12010 11981 11926 11867 11812 11775 11758 11795 11820 11858 11874 11845 11845 11868 11869 11890 11915 11956 11990 12024 12059 12113 12143 12142 12124 12106 12084 12040 11991 11957 11920 11898 11888 11905 11921 11930 11911 11902 11898 11895 11927 11966 12015 12063 12100 12135 12166 12197 12206 12188 12176 12172 12145 12091 12065 12038 12035 12012 12003 11998 11992 11969 11958 11946 11943 11966 11999 12043 12083 12124 12167 12198 12202 12217 12206 12195 12177 12142 12092 12064 12044 12024 12008 11998 11989 11963 11959 11942 11930 11934 11968 12013 12051 12096 12131 12163 12180 12189 12175 12157 12150 12113 12076 12029 11993 11943 11921 11910 11921 11936 11926 11923 11906 11889 11897 11902 11920 11947 11962 11984 11994 11995 12002 12014 12011 12006 11981 11906 11855 11799 11765 11750 11759 11778 11790 11796 11784 11760 11744 11740 11750 11777 11798 11842 11866 11894 11908 11910 11916 11917 11934 11903 11832 11773 11717 11678 11671 11689 11733 11767 11786 11780 11785 11792 11805 11810 11840 11871 11921 11952 11974 11994 12006 12031 12025 12046 12031 11999 11944 11875 11845 11820 11838 11873 11908 11928 11945 11933 11931 11930 11931 11950 11985 12028 12058 12107 12143 12185 12215 12208 12207 12195 12159 12102 12060 12019 11993 11978 11996 12024 12059 12043 12035 12016 12015 12029 12056 12096 12136 12191 12234 12271 12286 12301 12309 12292 12284 12252 12226 12191 12165 12139 12113 12111 12113 12139 12136 12120 12118 12094 12092 12115 12142 12166 12186 12196 12203 12220 12225 12223 12216 12205 12181 12152 12114 12080 12049 12040 12020 12044 12041 12039 12022 12003 11966 11953 11992 12025 12056 12077 12107 12123 12137 12151 12157 12169 12175 12148 12100 12062 12019 11992 11980 11983 11997 12013 12018 11982 11956 11931 11977 12005 12020 12036 12059 12068 12086 12083 12083 12076 12074 12035 11994 11960 11903 11868 11840 11841 11880 11906 11937 11939 11921 11874 11842 11853 11904 11945 11996 12023 12073 12076 12084 12078 12075 12049 12017 11972 11920 11883 11842 11815 11812 11837 11866 11878 11892 11839 11785 11746 11751 11762 11801 11839 11866 11906 11945 11987 12010 12008 11976 11955 11929 11898 11856 11826 11793 11800 11820 11855 11890 11902 11858 11823 11782 11753 11768 11819 11867 11904 11953 11988 12027 12048 12042 12020 12001 11981 11949 11914 11889 11871 11828 11820 11817 11862 11882 11860 11810 11779 11748 11763 11795 11829 11875 11909 11937 11956 11974 11971 11932 11922 11921 11909 11874 11868 11831 11813 11798 11833 11853 11890 11871 11834 11794 11781 11793 11798 11836 11883 11916 11937 11951 11974 11969 11978 11955 11963 11962 11933 11925 11903 11893 11868 11871 11889 11926 11942 11905 11870 11846 11856 11900 11935 11982 11997 12032 12039 12056 12067 12066 12059 12040 12025 12025 12005 11968 11957 11942 11923 11949 11979 11998 11968 11934 11910 11896 11912 11951 12002 12037 12062 12085 12087 12093 12085 12086 12080 12064 12045 12014 11975 11963 11945 11918 11955 11973 12000 11983 11952 11889 11871 11876 11902 11939 11973 11991 12004 12025 12019 12021 12021 12018 11998 11955 11907 11869 11837 11817 11812 11848 11895 11937 11928 11879 11844 11822 11828 11847 11866 11893 11923 11938 11943 11950 11943 11925 11901 11871 11847 11800 11763 11720 11701 11694 11735 11794 11811 11835 11780 11731 11697 11693 11736 11779 11804 11807 11821 11828 11843 11842 11844 11814 11806 11796 11801 11757 11705 11668 11649 11688 11721 11762 11788 11763 11707 11666 11641 11662 11694 11735 11786 11810 11852 11865 11890 11882 11849 11812 11807 11787 11758 11728 11693 11666 11677 11716 11745 11781 11770 11725 11701 11682 11671 11726 11776 11825 11847 11889 11912 11931 11923 11895 11883 11885 11881 11861 11843 11830 11789 11771 11793 11825 11820 11801 11762 11732 11721 11722 11735 11747 11794 11837 11894 11921 11950 11968 11952 11953 11955 11954 11939 11923 11915 11898 11887 11885 11893 11909 11911 11876 11853 11844 11834 11843 11863 11879 11898 11923 11952 11966 11948 11943 11933 11937 11925 11909 11899 11904 11876 11867 11853 11851 11864 11858 11823 11800 11780 11768 11772 11806 11834 11869 11894 11942 11957 11964 11951 11952 11958 11959 11962 11941 11920 11898 11874 11865 11867 11885 11906 11902 11869 11848 11832 11848 11896 11939 11978 11983 12001 11978 11965 11946 11934 11929 11915 11892 11868 11835 11793 11784 11768 11791 11806 11814 11781 11750 11701 11678 11701 11731 11754 11781 11817 11831 11829 11815 11805 11784 11764 11745 11731 11692 11657 11620 11605 11609 11638 11644 11633 11621 11581 11539 11537 11558 11607 11630 11667 11680 11709 11693 11659 11656 11637 11630 11642 11630 11596 11558 11511 11497 11508 11522 11537 11541 11545 11506 11479 11467 11475 11499 11530 11569 11586 11603 11579 11564 11560 11545 11547 11543 11529 11493 11454 11414 11409 11420 11438 11450 11453 11439 11415 11386 11389 11429 11474 11492 11536 11561 11583 11569 11578 11562 11549 11554 11540 11515 11491 11471 11432 11425 11455 11492 11481 11504 11482 11465 11454 11441 11464 11481 11500 11542 11585 11612 11630 11637 11639 11640 11642 11641 11617 11611 11583 11575 11562 11571 11590 11612 11614 11603 11582 11546 11548 11575 11620 11647 11681 11692 11719 11726 11723 11732 11743 11738 11732 11729 11711 11687 11670 11665 11670 11708 11715 11748 11728 11718 11709 11706 11737 11746 11764 11798 11797 11814 11812 11808 11805 11803 11799 11806 11790 11753 11745 11724 11703 11716 11706 11729 11748 11731 11715 11696 11687 11705 11741 11770 11817 11838 11845 11850 11866 11855 11853 11849 11832 11805 11773 11739 11733 11708 11695 11696 11720 11729 11712 11700 11687 11706 11735 11773 11811 11840 11846 11851 11852 11843 11833 11832 11824 11808 11781 11740 11705 11676 11649 11670 11685 11698 11701 11676 11647 11627 11617 11637 11681 11735 11760 11783 11769 11744 11737 11732 11761 11827 11861 11847 11796 11742 11718 11693 11702 11740 11804 11874 11974 12061 12117 12166 12210 12270 12341 12399 12457 12485 12531 12565 12601 12610 12627 12667 12711 12752 12776 12827 12850 12874 12888 12909 12929 12980 13026 13166 13231 13266 13272 13266 13256 13246 13207 13165 13134 13137 13124 13115 13110 13086 13078 13101 13096 13110 13107 13107 13098 13090 13091 13102 13104 13140 13150 13174 13195 13201 13189 13178 13181 13169 13207 13222 13232 13231 13206 13179 13154 13134 13106 13081 13054 13035 13006 12989 12963 12954 12972 13000 13040 13060 13081 13076 13067 13071 13070 13087 13114 13165 13217 13243 13259 13240 13194 13169 13135 13093 13050 13012 12973 12930 12901 12871 12867 12882 12994 13110 13159 13202 13209 13181 13181 13170 13175 13167 13161 13162 13149 13134 13098 13066 13036 12981 12923 12882 12849 12817 12776 12757 12727 12717 12715 12741 12793 12837 12836 12811 12802 12779 12786 12769 12782 12783 12807 12806 12802 12798 12782 12739 12674 12626 12579 12553 12544 12525 12505 12491 12471 12473 12445 12435 12438 12442 12444 12445 12443 12456 12471 12486 12491 12502 12528 12537 12542 12518 12482 12434 12383 12341 12303 12286 12261 12246 12232 12216 12190 12172 12130 12099 12077 12069 12068 12085 12093 12106 12110 12129 12137 12149 12144 12121 12101 12078 12071 12076 12063 12059 12029 12015 11979 11957 11945 11920 11877 11858 11826 11824 11814 11802 11783 11797 11797 11831 11879 11904 11869 11852 11818 11805 11792 11790 11795 11800 11787 11784 11778 11768 11752 11727 11673 11634 11601 11582 11577 11564 11564 11542 11522 11510 11506 11482 11441 11431 11445 11475 11527 11536 11520 11506 11498 11500 11489 11473 11440 11407 11377 11346 11320 11321 11287 11265 11241 11223 11210 11216 11213 11189 11177 11180 11171 11157 11125 11122 11096 11108 11152 11192 11235 11206 11160 11160 11167 11167 11173 11159 11158 11139 11119 11099 11088 11071 11048 11004 10976 10996 11025 11054 11072 11094 11090 11071 11048 11055 11034 11018 11036 11080 11121 11127 11124 11134 11142 11148 11165 11162 11173 11150 11113 11085 11052 11056 11053 11054 11042 11037 11067 11104 11121 11131 11124 11127 11107 11094 11085 11083 11086 11104 11170 11211 11204 11208 11217 11217 11198 11192 11193 11194 11206 11195 11174 11175 11165 11163 11157 11139 11095 11077 11085 11115 11136 11165 11188 11165 11144 11115 11138 11185 11267 11333 11344 11344 11328 11328 11320 11313 11303 11312 11310 11292 11272 11261 11245 11213 11186 11146 11128 11129 11161 11193 11213 11234 11230 11244 11219 11199 11166 11123 11149 11180 11196 11204 11214 11243 11247 11257 11255 11267 11269 11245 11188 11154 11107 11104 11092 11099 11081 11062 11078 11107 11137 11173 11163 11150 11119 11089 11067 11060 11054 11071 11106 11158 11159 11159 11168 11182 11170 11143 11132 11127 11109 11077 11056 11016 10997 10995 11002 11012 11032 11052 11026 11024 11032 11022 11024 11007 10993 10965 10961 10950 10974 11014 11012 10973 10966 10996 11014 11033 11036 11047 11056 11050 11024 11007 10996 10965 10919 10880 10888 10917 10948 10994 11026 11045 11047 11046 11048 11043 11006 10980 10965 11008 11057 11057 11044 11057 11078 11084 11089 11092 11087 11065 11040 11017 11004 10983 10984 10993 10999 10976 10971 10985 11001 11005 10996 10994 11009 11002 10981 10968 10959 10966 10995 11054 11095 11079 11035 10989 10966 10964 10985 10995 11002 11003 10980 10966 10966 10949 10927 10871 10844 10855 10883 10932 10959 10992 11010 11018 11008 10997 10992 10939 10904 10897 10930 10955 10964 10970 11005 11030 11037 11049 11043 11049 11033 11003 10991 10968 10969 10977 10979 10966 10956 10994 11016 11065 11091 11097 11085 11082 11091 11105 11106 11090 11075 11067 11083 11114 11124 11116 11118 11128 11116 11131 11126 11119 11119 11106 11100 11073 11057 11044 11021 11036 11035 11013 11043 11089 11123 11174 11197 11210 11203 11183 11174 11183 11186 11167 11165 11169 11188 11200 11212 11252 11274 11279 11294 11288 11317 11301 11278 11251 11211 11198 11215 11227 11230 11238 11258 11271 11293 11326 11340 11356 11364 11334 11303 11286 11284 11302 11331 11389 11386 11383 11383 11373 11369 11360 11368 11366 11360 11330 11309 11277 11270 11256 11249 11248 11243 11251 11281 11311 11340 11342 11332 11342 11348 11338 11323 11313 11299 11300 11333 11353 11342 11342 11337 11320 11321 11315 11319 11312 11332 11306 11265 11240 11223 11225 11232 11250 11217 11205 11199 11226 11255 11267 11290 11290 11271 11255 11255 11253 11270 11300 11327 11292 11276 11271 11276 11279 11286 11283 11277 11266 11257 11246 11205 11175 11138 11101 11096 11106 11111 11161 11190 11207 11224 11221 11244 11309 11427 11552 11739 11923 12011 12133 12251 12308 12318 12331 12346 12402 12475 12527 12526 12469 12390 12287 12178 12072 11989 11935 11865 11801 11748 11710 11710 11684 11666 11613 11531 11495 11448 11414 11400 11414 11463 11494 11504 11497 11513 11525 11521 11486 11462 11457 11461 11450 11420 11368 11368 11361 11354 11359 11374 11397 11405 11403 11415 11420 11420 11420 11401 11377 11368 11347 11343 11372 11417 11427 11416 11386 11410 11416 11426 11451 11455 11478 11468 11444 11417 11390 11375 11370 11344 11310 11317 11348 11389 11440 11474 11505 11515 11503 11498 11496 11491 11509 11512 11556 11561 11532 11526 11521 11524 11544 11545 11542 11540 11553 11531 11521 11506 11508 11495 11467 11444 11438 11450 11471 11510 11534 11571 11584 11581 11565 11542 11535 11530 11518 11547 11607 11633 11630 11647 11655 11653 11667 11681 11707 11739 11772 11733 11701 11663 11650 11644 11629 11616 11608 11617 11650 11674 11698 11705 11702 11696 11654 11614 11592 11596 11621 11680 11687 11705 11718 11737 11749 11751 11768 11772 11795 11776 11736 11706 11689 11674 11666 11668 11664 11669 11686 11689 11690 11699 11680 11656 11629 11597 11575 11567 11583 11650 11712 11730 11710 11698 11719 11738 11743 11713 11687 11666 11615 11585 11556 11547 11549 11559 11577 11594 11612 11641 11666 11664 11632 11597 11588 11567 11542 11536 11530 11540 11579 11644 11680 11692 11678 11693 11693 11677 11632 11617 11597 11580 11582 11583 11579 11576 11563 11569 11555 11559 11559 11573 11557 11553 11556 11544 11533 11507 11484 11475 11490 11521 11604 11665 11668 11645 11612 11587 11563 11549 11558 11566 11559 11553 11536 11512 11511 11515 11528 11523 11493 11448 11440 11464 11493 11514 11528 11543 11529 11508 11509 11495 11536 11603 11712 11743 11704 11646 11640 11630 11630 11630 11625 11624 11607 11585 11577 11567 11566 11558 11532 11486 11447 11460 11491 11523 11553 11556 11554 11535 11517 11499 11501 11555 11635 11748 11795 11766 11728 11718 11698 11685 11687 11678 11690 11667 11655 11636 11626 11626 11607 11567 11535 11536 11541 11568 11585 11608 11626 11641 11628 11593 11578 11587 11634 11674 11729 11733 11744 11752 11737 11738 11729 11741 11754 11745 11719 11700 11706 11689 11664 11640 11616 11598 11619 11630 11665 11674 11695 11712 11702 11682 11673 11657 11641 11680 11757 11831 11833 11821 11824 11801 11788 11776 11774 11803 11800 11804 11758 11714 11685 11682 11691 11677 11670 11687 11707 11736 11768 11796 11806 11801 11763 11724 11702 11699 11720 11804 11881 11903 11869 11851 11833 11842 11839 11847 11854 11851 11812 11748 11721 11690 11686 11656 11662 11681 11694 11728 11753 11787 11796 11811 11784 11737 11710 11696 11711 11751 11824 11869 11851 11829 11809 11803 11807 11794 11778 11765 11735 11719 11690 11682 11692 11693 11702 11700 11695 11702 11734 11754 11772 11769 11721 11685 11659 11632 11623 11643 11699 11816 11870 11866 11846 11830 11828 11823 11810 11774 11762 11744 11712 11680 11686 11714 11725 11719 11702 11702 11684 11705 11718 11729 11695 11670 11630 11610 11582 11584 11590 11662 11752 11831 11827 11813 11793 11787 11741 11692 11661 11661 11649 11620 11598 11584 11588 11597 11596 11589 11586 11593 11603 11580 11577 11585 11578 11567 11540 11528 11517 11551 11620 11701 11734 11719 11716 11680 11640 11616 11608 11612 11612 11586 11554 11550 11563 11564 11563 11548 11538 11545 11548 11536 11526 11537 11551 11560 11531 11521 11509 11511 11569 11659 11735 11741 11716 11690 11643 11602 11597 11590 11603 11595 11569 11553 11527 11524 11522 11529 11504 11514 11490 11474 11493 11523 11529 11544 11521 11511 11504 11490 11496 11507 11542 11581 11564 11534 11550 11579 11598 11599 11608 11628 11624 11621 11597 11574 11576 11581 11581 11514 11477 11500 11538 11585 11603 11638 11655 11643 11615 11603 11597 11607 11644 11693 11712 11679 11670 11677 11687 11684 11693 11714 11729 11743 11735 11704 11687 11693 11675 11642 11605 11586 11607 11632 11661 11686 11696 11708 11703 11689 11661 11649 11633 11631 11687 11737 11746 11737 11740 11756 11744 11749 11762 11786 11789 11755 11706 11665 11658 11663 11671 11656 11643 11650 11674 11700 11730 11735 11746 11730 11690 11639 11608 11603 11625 11678 11736 11743 11726 11734 11734 11730 11728 11737 11728 11704 11651 11619 11589 11574 11591 11603 11575 11553 11556 11588 11616 11635 11629 11598 11571 11529 11504 11483 11492 11494 11545 11598 11623 11603 11604 11622 11587 11542 11540 11529 11530 11520 11501 11484 11466 11467 11476 11487 11472 11449 11424 11416 11426 11447 11463 11476 11471 11444 11409 11398 11403 11440 11508 11581 11585 11511 11466 11452 11454 11463 11451 11469 11488 11448 11424 11405 11403 11410 11410 11352 11283 11288 11311 11338 11368 11376 11405 11388 11362 11346 11343 11347 11396 11426 11471 11467 11421 11421 11412 11419 11423 11420 11424 11428 11433 11411 11378 11331 11299 11277 11247 11244 11249 11287 11319 11341 11370 11380 11363 11355 11345 11330 11302 11276 11329 11396 11396 11376 11368 11378 11386 11386 11397 11407 11440 11432 11399 11377 11339 11324 11324 11302 11289 11288 11310 11326 11341 11352 11360 11368 11347 11352 11313 11256 11253 11306 11376 11414 11405 11412 11414 11415 11413 11410 11425 11439 11433 11382 11323 11296 11282 11278 11279 11268 11276 11294 11317 11357 11395 11428 11460 11465 11422 11385 11352 11355 11389 11441 11490 11505 11505 11540 11559 11579 11619 11661 11677 11659 11606 11565 11530 11514 11512 11526 11536 11553 11599 11641 11708 11764 11811 11829 11776 11741 11687 11685 11747 11883 11998 12058 12108 12137 12172 12211 12230 12236 12215 12211 12224 12244 12296 12326 12383 12435 12467 12533 12550 12579 12584 12605 12612 12616 12607 12607 12604 12636 12671 12715 12756 12791 12834 12853 12886 12916 12949 12970 12964 13002 13021 13067 13104 13152 13179 13246 13269 13303 13319 13336 13345 13373 13390 13432 13556 13605 13697 13799 13899 13782 13745 13768 13795 13811 13841 13864 13932 13978 13984 14012 14067 14148 14251 14345 14437 14428 14429 14444 14474 14525 14544 14570 14572 14541 14492 14435 14372 14320 14301 14311 14291 14282 14260 14248 14213 14160 14099 13980 13901 13839 13814 13770 13733 13713 13685 13669 13660 13639 13615 13562 13485 13415 13362 13339 13347 13353 13363 13394 13421 13439 13463 13502 13520 13531 13511 13468 13443 13405 13389 13413 13427 13449 13461 13495 13513 13553 13569 13599 13632 13649 13678 13688 13682 13697 13734 13735 13758 13773 13808 13812 13800 13752 13745 13771 13817 13860 13868 13832 13806 13788 13763 13704 13656 13604 13582 13512 13629 13660 13649 13602 13568 13567 13558 13572 13589 13603 13596 13526 13521 13498 13524 13549 13556 13619 13656 13682 13693 13714 13699 13703 13757 13874 13953 14004 14035 14082 14097 14119 14102 14078 14019 13982 13966 13938 13950 13938 13950 13951 13965 13960 13994 14017 14021 14058 14077 14099 14122 14129 14133 14124 14126 14102 14070 14025 13998 13953 13945 13912 13881 13857 13844 13829 13819 13818 13784 13799 13803 13788 13793 13803 13819 13814 13811 13816 13800 13787 13783 13788 13814 13869 13893 13931 13972 14011 14018 14033 14043 14058 14081 14098 14099 14101 14115 14127 14146 14160 14173 14171 14179 14208 14204 14212 14211 14214 14214 14231 14252 14275 14306 14347 14399 14449 14489 14515 14554 14571 14555 14512 14466 14424 14398 14376 14349 14309 14307 14303 14298 14291 14313 14309 14295 14270 14253 14219 14211 14199 14195 14196 14190 14161 14163 14152 14117 14093 14087 14036 13987 13926 13882 13839 13823 13803 13779 13785 13753 13768 13763 13778 13775 13779 13733 13692 13660 13638 13594 13565 13518 13526 13460 13450 13412 13415 13402 13422 13416 13425 13407 13441 13475 13470 13482 13490 13465 13428 13441 13450 13458 13444 13371 13221 13117 13043 13059 13012 12968 13007 13120 13225 13333 13415 13548 13677 13791 13856 13865 13879 13877 13897 13922 13943 13966 14019 14037 14023 14011 14009 14003 13973 13914 13871 13852 13851 13800 13769 13756 13731 13704 13695 13693 13678 13670 13674 13680 13671 13665 13579 13310 13269 13251 13247 13293 13335 13365 13374 13420 13422 13459 13445 13449 13441 13436 13420 13428 13411 13421 13423 13448 13480 13545 13588 13644 13684 13737 13773 13814 13830 13855 13856 13866 13873 13871 13859 13874 13868 13870 13888 13896 13923 13934 13988 14096 14178 14248 14294 14336 14368 14390 14411 14413 14418 14409 14376 14377 14367 14351 14330 14326 14308 14297 14269 14267 14268 14280 14306 14304 14302 14308 14316 14329 14311 14323 14328 14322 14315 14312 14300 14311 14303 14314 14311 14309 14306 14287 14261 14198 14096 14018 13969 13937 13933 13931 13910 13917 13902 13925 13916 13912 13940 13904 13888 13870 13859 13849 13851 13845 13843 13836 13844 13826 13821 13828 13825 13814 13816 13810 13788 13769 13768 13736 13709 13667 13662 13648 13712 13851 13977 14038 14066 14077 14084 14053 14017 13979 13935 14005 14015 13980 13959 13939 13922 13900 13881 13865 13853 13819 13764 13715 13661 13621 13592 13575 13569 13568 13558 13547 13531 13516 13509 13511 13467 13416 13377 13335 13288 13279 13271 13272 13272 13307 13323 13368 13410 13444 13505 13517 13498 13442 13424 13399 13355 13369 13395 13397 13390 13378 13382 13381 13393 13395 13346 13285 13213 13165 13134 13107 13084 13051 13026 13008 12994 12994 12982 12936 12850 12759 12666 12610 12621 12619 12615 12619 12618 12616 12629 12645 12668 12695 12673 12645 12593 12535 12459 12444 12454 12477 12505 12511 12546 12553 12572 12589 12600 12582 12561 12563 12585 12620 12646 12668 12669 12650 12626 12590 12555 12529 12500 12429 12383 12320 12279 12250 12204 12154 12234 12325 12433 12538 12550 12565 12552 12511 12474 12446 12439 12448 12480 12489 12521 12500 12459 12401 12327 12276 12224 12172 12135 12113 12087 12060 12044 12004 11965 11989 12043 12115 12209 12267 12279 12255 12252 12246 12259 12276 12300 12316 12383 12413 12424 12405 12363 12332 12285 12227 12188 12172 12148 12130 12120 12123 12104 12095 12084 12115 12180 12254 12316 12351 12342 12334 12328 12322 12333 12335 12344 12342 12339 12331 12315 12306 12277 12263 12236 12206 12185 12172 12160 12145 12144 12134 12127 12117 12100 12068 12030 12096 12185 12275 12356 12374 12369 12369 12363 12345 12353 12363 12369 12366 12345 12319 12284 12282 12280 12273 12248 12212 12200 12189 12172 12172 12157 12147 12126 12097 12066 12033 12011 12026 12118 12207 12295 12301 12296 12289 12279 12262 12220 12204 12178 12171 12161 12148 12116 12103 12090 12074 12054 12026 11981 11954 11907 11877 11862 11829 11823 11799 11775 11751 11723 11715 11723 11746 11782 11770 11746 11735 11727 11703 11712 11714 11709 11716 11703 11674 11665 11651 11637 11599 11536 11493 11457 11445 11442 11434 11440 11417 11417 11400 11380 11366 11360 11328 11319 11348 11378 11389 11391 11391 11399 11396 11392 11396 11402 11410 11371 11326 11260 11228 11209 11200 11170 11169 11152 11161 11173 11180 11189 11205 11188 11123 11076 11036 11035 11055 11100 11179 11198 11200 11201 11218 11233 11228 11235 11238 11219 11193 11165 11157 11155 11155 11165 11145 11121 11119 11131 11154 11173 11168 11157 11120 11101 11088 11087 11098 11124 11178 11214 11237 11246 11259 11273 11277 11261 11268 11274 11284 11299 11283 11285 11268 11272 11261 11257 11246 11239 11243 11238 11261 11274 11288 11300 11279 11262 11255 11265 11277 11312 11361 11381 11398 11385 11397 11393 11414 11398 11402 11403 11416 11411 11413 11410 11415 11410 11400 11384 11365 11363 11362 11382 11401 11412 11416 11387 11402 11385 11377 11379 11410 11420 11431 11430 11436 11457 11476 11478 11480 11484 11493 11494 11482 11467 11460 11441 11423 11398 11386 11372 11382 11403 11419 11446 11448 11468 11464 11462 11435 11418 11398 11386 11396 11404 11405 11404 11409 11433 11447 11446 11475 11485 11488 11472 11446 11418 11396 11378 11372 11343 11316 11306 11311 11339 11372 11417 11465 11460 11446 11427 11404 11380 11378 11403 11427 11455 11460 11460 11479 11511 11526 11530 11519 11520 11525 11506 11484 11468 11457 11434 11426 11412 11392 11398 11419 11447 11470 11506 11541 11537 11531 11513 11498 11492 11497 11523 11535 11529 11555 11561 11561 11569 11578 11598 11617 11620 11615 11620 11606 11594 11583 11593 11575 11535 11509 11511 11541 11559 11587 11595 11590 11574 11547 11557 11571 11601 11656 11685 11683 11673 11668 11652 11650 11652 11652 11648 11636 11630 11618 11611 11596 11571 11544 11514 11496 11499 11518 11537 11540 11557 11563 11537 11504 11493 11484 11448 11448 11439 11443 11448 11482 11505 11512 11520 11550 11549 11531 11507 11507 11479 11433 11397 11376 11357 11341 11344 11342 11368 11410 11443 11474 11487 11491 11460 11406 11371 11342 11355 11386 11403 11417 11448 11477 11507 11500 11496 11490 11480 11439 11408 11360 11332 11323 11317 11312 11316 11333 11364 11405 11431 11467 11479 11449 11403 11378 11340 11326 11338 11364 11397 11429 11449 11458 11474 11490 11507 11495 11478 11477 11450 11419 11390 11365 11372 11376 11377 11379 11399 11433 11462 11500 11504 11516 11511 11504 11485 11472 11466 11485 11510 11558 11590 11594 11599 11604 11591 11572 11583 11594 11602 11594 11570 11549 11548 11535 11540 11551 11572 11583 11590 11619 11653 11671 11699 11707 11689 11675 11675 11663 11666 11668 11689 11696 11691 11691 11712 11732 11738 11754 11752 11754 11734 11730 11715 11709 11703 11689 11690 11666 11653 11674 11698 11723 11738 11770 11752 11732 11722 11725 11730 11751 11782 11814 11823 11806 11823 11805 11813 11806 11818 11847 11849 11838 11824 11822 11824 11818 11801 11795 11783 11789 11793 11816 11829 11858 11855 11865 11845 11832 11829 11822 11831 11838 11883 11901 11888 11886 11899 11914 11922 11930 11926 11931 11928 11920 11910 11909 11900 11885 11881 11866 11861 11865 11878 11896 11912 11928 11921 11899 11888 11862 11864 11873 11903 11935 11948 11943 11941 11927 11934 11942 11925 11939 11942 11923 11896 11887 11868 11854 11856 11852 11845 11835 11830 11852 11871 11902 11921 11904 11880 11862 11859 11850 11851 11871 11890 11899 11901 11907 11914 11927 11938 11944 11935 11916 11902 11902 11880 11887 11874 11878 11866 11850 11844 11847 11853 11872 11879 11871 11858 11823 11805 11798 11810 11817 11842 11876 11869 11870 11874 11875 11890 11880 11861 11857 11842 11826 11814 11818 11810 11801 11790 11784 11764 11765 11803 11840 11838 11839 11823 11804 11785 11767 11760 11752 11763 11787 11806 11822 11827 11837 11857 11856 11842 11815 11804 11786 11771 11767 11751 11738 11736 11720 11709 11705 11706 11718 11740 11718 11728 11751 11776 11774 11765 11761 11756 11744 11753 11768 11769 11768 11787 11793 11784 11797 11803 11795 11798 11791 11773 11748 11744 11729 11729 11728 11737 11721 11718 11733 11755 11798 11810 11818 11810 11799 11777 11770 11792 11816 11849 11875 11867 11865 11858 11875 11893 11890 11895 11908 11900 11889 11871 11868 11870 11872 11859 11827 11815 11834 11861 11898 11916 11945 11961 11946 11932 11923 11921 11946 11962 11987 11982 11975 11957 11975 11996 12027 12036 12031 12023 12027 12016 12014 12006 11998 11983 11984 11972 11967 11978 11996 12005 12031 12049 12052 12049 12036 12044 12036 12047 12059 12067 12082 12081 12079 12088 12082 12088 12090 12094 12100 12098 12091 12079 12081 12082 12084 12083 12072 12070 12048 12055 12069 12102 12127 12134 12129 12113 12103 12105 12109 12123 12131 12145 12148 12140 12149 12160 12174 12171 12175 12164 12162 12158 12154 12142 12142 12135 12126 12124 12125 12116 12123 12138 12150 12147 12124 12106 12085 12074 12071 12063 12086 12100 12100 12111 12112 12111 12110 12114 12111 12095 12083 12076 12041 12023 12013 12014 11986 11992 11979 11970 11959 11977 11996 12014 12027 12001 11976 11943 11911 11905 11898 11895 11916 11924 11925 11913 11940 11947 11957 11950 11922 11894 11894 11877 11839 11820 11809 11797 11801 11792 11787 11791 11814 11849 11850 11844 11826 11824 11800 11767 11745 11751 11782 11822 11834 11848 11864 11881 11881 11894 11875 11837 11825 11820 11783 11743 11731 11714 11723 11725 11698 11700 11723 11759 11787 11801 11804 11779 11752 11726 11708 11705 11721 11750 11788 11789 11801 11828 11849 11872 11860 11841 11822 11815 11795 11780 11754 11748 11764 11755 11763 11775 11785 11811 11837 11849 11849 11857 11858 11825 11822 11802 11812 11818 11860 11888 11900 11905 11920 11941 11950 11934 11921 11931 11934 11930 11913 11915 11920 11911 11914 11906 11897 11901 11913 11933 11940 11946 11964 11955 11940 11947 11942 11935 11949 11952 11982 11986 11997 12006 11991 12001 11996 11994 12006 12007 11999 12002 12001 12003 11998 11997 11983 11973 11979 11977 11995 12008 12030 12044 12038 12028 12027 12020 12044 12052 12058 12079 12093 12093 12104 12105 12104 12103 12109 12094 12102 12103 12096 12101 12103 12103 12126 12109 12111 12081 12076 12062 12080 12101 12109 12106 12095 12107 12146 12170 12166 12166 12171 12162 12156 12144 12149 12154 12139 12157 12156 12147 12140 12124 12112 12097 12086 12055 12020 12005 12005 12011 12049 12075 12112 12127 12120 12106 12075 12057 12057 12075 12088 12082 12086 12072 12112 12120 12129 12125 12118 12124 12099 12074 12058 12037 12023 11995 11956 11917 11908 11932 11958 11974 12010 12022 12021 12004 11978 11979 11951 11966 11994 12039 12033 12020 12029 12044 12070 12059 12059 12061 12057 12022 11991 11970 11954 11933 11904 11911 11897 11917 11925 11952 11965 11991 12012 12006 11982 11968 11956 11950 11940 11960 11978 11978 11983 12010 12025 12026 12026 12039 12040 12041 12028 12012 11994 11971 11954 11944 11930 11906 11935 11967 11992 12013 12046 12047 12039 12019 12034 12034 12029 12051 12062 12050 12061 12077 12104 12114 12139 12153 12155 12148 12144 12139 12127 12115 12105 12107 12106 12087 12084 12085 12087 12101 12126 12138 12143 12123 12116 12106 12113 12119 12128 12142 12156 12153 12173 12178 12185 12186 12199 12203 12190 12201 12189 12195 12181 12181 12181 12166 12153 12159 12166 12167 12195 12214 12193 12190 12186 12178 12199 12202 12208 12213 12228 12235 12226 12246 12253 12251 12252 12258 12248 12254 12246 12240 12247 12238 12227 12215 12204 12204 12223 12222 12231 12230 12218 12210 12203 12211 12212 12206 12213 12234 12235 12247 12243 12258 12253 12263 12251 12261 12264 12257 12249 12255 12250 12233 12221 12213 12200 12189 12195 12198 12208 12235 12243 12232 12222 12216 12214 12213 12204 12204 12213 12234 12231 12250 12257 12256 12252 12247 12259 12256 12249 12246 12229 12223 12218 12186 12187 12166 12149 12142 12166 12171 12194 12214 12231 12239 12221 12195 12184 12151 12141 12139 12156 12163 12170 12187 12191 12210 12210 12228 12223 12220 12196 12178 12147 12119 12109 12093 12100 12078 12067 12060 12060 12080 12112 12139 12145 12101 12077 12069 12058 12064 12070 12066 12069 12066 12073 12094 12091 12111 12107 12109 12083 12066 12032 12031 12025 12010 12003 12000 11964 11965 11981 11995 12013 12026 12017 11990 11975 11970 11961 11973 11995 11993 12017 12008 12017 12019 12031 12034 12050 12037 12049 12022 12018 12011 12007 11997 11989 11980 11979 11970 11962 11974 11987 12019 12006 11993 11972 11966 11956 11945 11951 11954 11978 11993 11992 12020 12014 12031 12035 12049 12042 12046 12042 12043 12027 12017 12015 12017 12011 11996 11983 11995 12009 12042 12053 12064 12054 12042 12032 12029 12027 12041 12056 12056 12066 12081 12097 12130 12159 12177 12191 12194 12174 12173 12155 12143 12127 12132 12114 12136 12211 12313 12390 12458 12506 12539 12567 12627 12676 12738 12839 12927 13001 13047 13102 13138 13172 13206 13242 13266 13297 13326 13340 13345 13352 13375 13412 13458 13496 13553 13599 13650 13695 13754 13800 13852 13900 13945 13974 13981 13990 13978 13981 13992 13994 13992 14004 13987 13996 13993 14007 14020 14031 14031 14013 13991 13960 13926 13881 13847 13825 13790 13763 13748 13732 13704 13680 13660 13646 13617 13617 13625 13617 13601 13606 13586 13591 13579 13581 13574 13588 13589 13579 13576 13557 13508 13476 13432 13379 13337 13297 13273 13253 13230 13225 13199 13191 13179 13152 13146 13124 13117 13107 13093 13086 13096 13092 13082 13085 13102 13110 13136 13145 13138 13115 13075 13025 12987 12936 12887 12856 12837 12808 12802 12804 12806 12811 12799 12795 12777 12724 12685 12666 12661 12662 12655 12655 12658 12663 12670 12679 12687 12707 12690 12655 12596 12543 12501 12469 12430 12403 12371 12358 12361 12376 12385 12417 12420 12390 12340 12298 12262 12238 12247 12262 12276 12262 12263 12284 12298 12307 12320 12337 12315 12283 12241 12200 12180 12152 12127 12108 12101 12078 12080 12088 12089 12121 12106 12075 12041 12018 11991 11988 11977 12000 12024 12047 12081 12145 12188 12232 12273 12246 12236 12205 12173 12150 12148 12193 12286 12416 12550 12662 12792 12938 13051 13162 13247 13346 13424 13480 13496 13532 13587 13611 13645 13678 13728 13780 13856 13901 13932 13945 13956 13951 13981 14009 14049 14085 14138 14149 14172 14205 14256 14311 14381 14420 14438 14457 14469 14508 14584 14676 14883 15013 