13084 13108 13132 12909 12964 12979 12991 13004 13017 13020 13018 13012 13007 13008 12994 13005 12994 12984 12977 12974 12988 12985 12987 12998 12999 13013 13009 13024 13031 13026 13026 13024 13010 12994 12982 12965 12954 12945 12963 12977 12998 12984 13012 13010 13025 13037 13035 13038 13046 13042 13047 13023 13012 12995 12992 12982 12960 12947 12936 12925 12915 12904 12890 12888 12892 12890 12897 12897 12900 12891 12901 12872 12868 12838 12828 12826 12816 12808 12808 12802 12806 12793 12784 12784 12782 12782 12790 12791 12781 12787 12761 12759 12756 12754 12751 12752 12769 12762 12759 12772 12777 12770 12770 12773 12776 12777 12779 12783 12773 12764 12752 12751 12739 12725 12710 12703 12690 12705 12703 12693 12699 12694 12691 12705 12696 12705 12707 12697 12691 12700 12709 12692 12701 12706 12703 12709 12723 12738 12737 12756 12759 12770 12776 12774 12782 12785 12766 12761 12763 12765 12756 12769 12766 12758 12763 12757 12753 12754 12739 12752 12759 12770 12771 12770 12766 12766 12771 12763 12770 12775 12764 12769 12766 12765 12764 12773 12762 12773 12761 12770 12767 12762 12765 12756 12744 12736 12720 12705 12702 12697 12708 12698 12681 12710 12707 12717 12735 12744 12754 12746 12766 12752 12739 12734 12731 12721 12720 12712 12695 12700 12690 12687 12685 12705 12703 12724 12733 12758 12757 12750 12745 12735 12720 12714 12715 12722 12698 12705 12692 12686 12678 12669 12665 12663 12665 12649 12641 12618 12601 12581 12560 12539 12521 12504 12501 12487 12477 12466 12462 12456 12447 12450 12441 12421 12399 12360 12341 12312 12304 12285 12289 12272 12261 12255 12246 12246 12255 12248 12252 12249 12255 12242 12216 12197 12175 12149 12145 12129 12128 12122 12123 12115 12113 12119 12123 12128 12135 12133 12137 12136 12124 12099 12079 12048 12012 12007 11991 11979 11971 11979 11962 11969 11971 11984 11989 11983 11999 12020 12031 12053 12035 12015 11998 11976 11959 11951 11961 11968 11969 11970 11969 11967 11976 11982 11986 11992 11986 11996 12010 12025 12011 11993 11983 11964 11948 11932 11916 11916 11905 11904 11892 11922 11936 11958 11982 12010 12032 12043 12050 12021 12008 12008 12010 11995 12019 11991 11975 11986 11984 11981 11996 12010 12006 12022 12041 12082 12094 12088 12082 12061 12063 12095 12114 12154 12171 12229 12251 12263 12277 12294 12294 12298 12288 12264 12259 12247 12239 12217 12188 12176 12160 12179 12190 12215 12233 12263 12293 12331 12335 12357 12377 12389 12376 12374 12360 12325 12308 12278 12251 12242 12216 12210 12180 12179 12191 12196 12197 12228 12247 12246 12251 12250 12241 12213 12188 12196 12201 12182 12186 12178 12178 12179 12168 12165 12161 12168 12136 12132 12103 12071 12052 11999 11931 11876 11837 11806 11792 11790 11779 11780 11783 11786 11805 11819 11830 11834 11843 11868 11887 11900 11926 11957 11971 12003 12020 12026 12053 12052 12085 12102 12118 12140 12154 12155 12176 12166 12149 12167 12181 12185 12187 12194 12206 12209 12227 12230 12246 12251 12259 12266 12288 12306 12296 12309 12309 12330 12345 12358 12361 12368 12380 12391 12399 12396 12401 12411 12427 12430 12421 12415 12411 12409 12405 12416 12423 12422 12419 12421 12431 12430 12448 12446 12446 12459 12460 12434 12432 12423 12415 12406 12406 12407 12415 12407 12421 12419 12423 12443 12438 12448 12433 12431 12420 12414 12414 12407 12412 12406 12411 12424 12428 12430 12426 12429 12436 12448 12457 12460 12473 12460 12445 12450 12443 12434 12429 12435 12431 12430 12428 12430 12436 12426 12435 12426 12429 12427 12432 12429 12420 12405 12395 12366 12351 12328 12324 12329 12313 12311 12302 12303 12303 12313 12324 12340 12340 12333 12324 12316 12291 12291 12269 12278 12267 12269 12265 12277 12280 12286 12287 12285 12282 12263 12275 12256 12236 12224 12210 12196 12178 12179 12171 12176 12181 12191 12203 12190 12194 12206 12212 12219 12217 12233 12241 12239 12239 12235 12229 12238 12227 12233 12242 12232 12248 12256 12258 12262 12269 12274 12274 12306 12331 12335 12337 12352 12343 12335 12314 12304 12305 12305 12299 12284 12286 12278 12268 12267 12258 12254 12263 12255 12263 12267 12261 12253 12249 12240 12231 12221 12223 12221 12226 12239 12245 12259 12272 12283 12294 12300 12317 12322 12342 12336 12332 12314 12303 12299 12295 12289 12284 12290 12279 12290 12297 12298 12303 12292 12307 12311 12319 12318 12318 12320 12318 12319 12305 12294 12269 12258 12261 12256 12259 12257 12264 12275 12272 12286 12297 12300 12303 12317 12321 12325 12316 12306 12290 12283 12273 12275 12262 12256 12259 12247 12252 12249 12242 12242 12242 12242 12241 12238 12248 12222 12194 12171 12144 12117 12102 12108 12111 12126 12136 12158 12177 12189 12196 12222 12237 12246 12238 12236 12209 12176 12163 12146 12114 12098 12094 12089 12076 12072 12051 12038 12028 12031 12041 12049 12045 12056 12069 12055 12029 12010 11993 11977 11965 11980 11970 11970 11972 11983 11990 11989 12027 12051 12062 12078 12095 12122 12116 12097 12073 12048 12035 12020 12001 12009 11998 12004 12008 11998 12006 12005 12012 12010 12024 12019 12027 12005 11973 11938 11905 11900 11875 11866 11857 11858 11862 11867 11869 11887 11901 11922 11956 11969 11988 11995 11973 11963 11952 11940 11922 11924 11936 11932 11934 11941 11938 11954 11965 11978 11987 12004 11988 11955 11927 11896 11880 11858 11840 11831 11822 11823 11819 11814 11807 11803 11812 11833 11843 11866 11900 11906 11907 11916 11924 11934 11941 11955 11965 11976 11985 11982 12000 11998 12015 12010 12023 12040 12029 12016 11988 11954 11939 11934 11951 11961 11956 11944 11941 11953 11959 11963 11963 11980 11997 12017 12031 12015 11988 11974 11971 11964 11968 11975 11983 12004 11998 12011 12014 12036 12040 12043 12065 12058 12039 12020 12010 12002 11987 11954 11929 11915 11912 11910 11893 11890 11894 11908 11920 11927 11934 11922 11919 11904 11904 11897 11895 11905 11901 11907 11912 11924 11929 11938 11946 11971 11966 11972 11983 11976 11975 11964 11947 11928 11925 11918 11910 11903 11911 11915 11911 11920 11927 11933 11934 11944 11936 11908 11891 11867 11846 11824 11807 11794 11803 11804 11781 11794 11793 11786 11799 11804 11818 11823 11814 11786 11770 11754 11747 11747 11745 11748 11752 11759 11742 11759 11751 11754 11753 11767 11768 11743 11721 11704 11696 11666 11662 11650 11640 11642 11637 11639 11650 11670 11680 11694 11707 11722 11737 11732 11736 11728 11718 11714 11707 11709 11714 11706 11711 11715 11702 11700 11704 11712 11720 11732 11742 11736 11739 11744 11731 11729 11753 11793 11837 11884 11912 11935 11938 11954 11974 11972 11993 12010 12003 11997 11989 11985 11980 11994 12008 12027 12034 12060 12067 12088 12106 12110 12137 12161 12181 12190 12181 12165 12172 12171 12146 12131 12131 12139 12146 12159 12160 12163 12191 12212 12222 12254 12279 12283 12282 12285 12270 12265 12246 12259 12270 12284 12288 12287 12309 12316 12334 12339 12343 12357 12361 12356 12339 12313 12304 12292 12296 12303 12303 12315 12319 12335 12351 12374 12403 12429 12436 12435 12416 12412 12392 12360 12345 12330 12310 12298 12290 12299 12311 12326 12349 12355 12386 12365 12376 12365 12345 12342 12341 12331 12326 12332 12343 12355 12349 12346 12340 12325 12324 12328 12335 12336 12342 12349 12346 12353 12362 12352 12370 12374 12378 12373 12380 12370 12371 12363 12376 12377 12374 12364 12352 12327 12328 12322 12309 12299 12285 12278 12266 12253 12245 12235 12244 12215 12206 12196 12177 12159 12143 12129 12113 12096 12109 12091 12088 12092 12078 12078 12084 12085 12082 12060 12039 12006 11997 11970 11959 11961 11951 11946 11921 11922 11921 11917 11925 11940 11946 11933 11918 11889 11875 11859 11856 11863 11855 11851 11843 11839 11839 11831 11827 11824 11822 11800 11784 11801 11815 11821 11849 11876 11908 11922 11957 11969 11978 11993 11978 11985 11986 11960 11965 11945 11915 11911 11908 11898 11885 11889 11862 11848 11857 11852 11871 11885 11889 11871 11862 11849 11831 11837 11826 11822 11820 11817 11817 11829 11838 11857 11879 11886 11878 11883 11878 11857 11831 11809 11791 11792 11794 11807 11801 11817 11825 11823 11824 11833 11858 11858 11849 11825 11819 11808 11831 11848 11865 11886 11882 11881 11893 11888 11892 11906 11906 11901 11883 11880 11882 11876 11873 11886 11884 11891 11900 11908 11921 11932 11937 11945 11957 11966 11973 11974 11970 11969 11957 11954 11965 11948 11952 11959 11943 11951 11953 11962 11975 11982 11998 11992 11981 11969 11975 11973 11972 11976 11962 11976 11970 11980 11995 12024 12027 12027 12027 12030 12010 11993 11983 11964 11963 11962 11965 11974 11990 12002 12015 12021 12023 12023 12042 12039 12029 12006 11992 11968 11955 11951 11949 11955 11950 11955 11949 11950 11955 11962 11959 11946 11934 11920 11906 11898 11917 11914 11924 11922 11922 11923 11935 11927 11937 11928 11936 11934 11927 11926 11927 11905 11911 11912 11901 11905 11905 11904 11879 11892 11886 11908 11920 11937 11919 11917 11895 11883 11871 11863 11861 11853 11860 11869 11871 11887 11910 11918 11930 11934 11916 11892 11875 11863 11840 11824 11815 11813 11819 11826 11835 11838 11834 11830 11842 11836 11817 11805 11777 11764 11741 11747 11753 11755 11781 11774 11761 11762 11756 11764 11763 11758 11734 11718 11706 11693 11692 11708 11702 11723 11702 11709 11722 11709 11733 11747 11751 11761 11757 11747 11754 11749 11759 11766 11764 11762 11759 11768 11762 11766 11758 11775 11789 11805 11804 11812 11802 11804 11784 11779 11789 11791 11813 11814 11799 11814 11826 11845 11861 11877 11891 11882 11868 11861 11862 11856 11857 11856 11845 11854 11859 11867 11885 11907 11925 11934 11945 11943 11950 11949 11937 11930 11931 11932 11938 11942 11954 11966 11978 11986 11995 11997 11996 11993 11984 11980 11968 11951 11955 11953 11975 11983 11995 11998 11989 12006 12004 12005 12008 11987 11978 11975 11951 11962 11965 11982 11989 11988 11999 12011 12000 11993 11998 11992 11994 11983 11984 11996 11998 11987 11995 12001 12000 12016 12022 12032 12048 12063 12086 12105 12145 12139 12141 12134 12122 12113 12126 12136 12118 12115 12123 12112 12113 12124 12123 12134 12127 12112 12097 12089 12084 12082 12065 12038 12024 12008 12022 12045 12060 12094 12136 12179 12198 12203 12189 12173 12167 12168 12184 12183 12193 12179 12210 12203 12205 12225 12255 12256 12253 12256 12280 12293 12299 12294 12281 12266 12280 12289 12291 12297 12282 12298 12291 12277 12245 12231 12233 12234 12246 12245 12266 12277 12293 12315 12319 12326 12343 12354 12369 12360 12355 12346 12333 12340 12350 12353 12371 12377 12384 12399 12427 12451 12473 12497 12525 12547 12538 12563 12567 12572 12581 12595 12612 12617 12634 12633 12645 12646 12659 12655 12647 12626 12618 12609 12588 12568 12574 12579 12578 12580 12609 12624 12636 12654 12668 12680 12675 12677 12669 12669 12673 12683 12685 12692 12703 12708 12719 12702 12718 12732 12723 12718 12718 12689 12698 12680 12676 12660 12657 12652 12640 12651 12669 12652 12651 12645 12638 12613 12591 12572 12579 12551 12560 12541 12538 12540 12542 12528 12524 12528 12523 12511 12495 12480 12470 12443 12432 12422 12417 12413 12401 12381 12383 12390 12376 12381 12373 12373 12358 12330 12309 12306 12288 12284 12287 12283 12274 12286 12286 12288 12294 12307 12312 12280 12267 12252 12248 12237 12237 12223 12207 12196 12196 12188 12198 12201 12205 12207 12189 12165 12141 12114 12095 12080 12070 12055 12040 12021 12029 12034 12050 12059 12089 12104 12076 12023 11982 11960 11963 11968 11989 12006 12011 12032 12046 12049 11999 11946 11924 11880 11858 11840 11832 11777 11719 11705 11713 11721 11736 11777 11811 11838 11853 11874 11875 11851 11840 11839 11830 11808 11822 11831 11824 11823 11816 11815 11828 11830 11828 11803 11766 11751 11724 11718 11727 11731 11725 11717 11706 11713 11712 11720 11737 11723 11718 11704 11710 11696 11674 11669 11669 11686 11692 11719 11744 11756 11748 11723 11698 11673 11634 11615 11608 11578 11573 11576 11564 11570 11580 11589 11615 11621 11631 11633 11621 11597 11589 11597 11608 11624 11628 11631 11635 11625 11602 11603 11627 11637 11669 11673 11653 11627 11613 11604 11611 11621 11637 11643 11659 11684 11690 11707 11732 11752 11750 11753 11735 11721 11720 11711 11707 11712 11734 11746 11773 11798 11822 11836 11846 11839 11835 11845 11843 11864 11859 11862 11875 11886 11882 11889 11899 11913 11933 11945 11939 11942 11929 11927 11941 11951 11969 11967 11979 11972 11980 11988 12002 11994 12009 12010 12019 11997 11982 11994 12014 12036 12073 12086 12118 12151 12172 12181 12185 12198 12199 12188 12185 12171 12155 12136 12112 12101 12091 12075 12083 12075 12072 12059 12041 12030 11975 11986 11976 11980 11972 11969 11970 11976 11984 11986 11975 11964 11945 11915 11900 11885 11881 11902 11900 11907 11921 11926 11957 11969 11990 11985 11959 11931 11937 11922 11917 11905 11902 11904 11891 11899 11907 11901 11901 11908 11907 11898 11884 11879 11864 11845 11855 11859 11854 11879 11890 11913 11910 11928 11936 11939 11925 11910 11907 11895 11898 11893 11890 11891 11898 11916 11915 11914 11923 11924 11930 11928 11922 11913 11916 11922 11923 11921 11905 11925 11941 11945 11959 11976 11998 11995 11994 11979 11974 11958 11950 11954 11957 11953 11951 11956 11952 11952 11955 11964 11966 11974 11966 11954 11944 11937 11927 11920 11912 11905 11895 11880 11894 11899 11900 11892 11905 11900 11885 11865 11846 11824 11817 11808 11799 11809 11801 11810 11801 11826 11822 11832 11833 11820 11790 11773 11750 11728 11715 11701 11684 11671 11651 11641 11626 11610 11607 11594 11586 11548 11529 11491 11470 11469 11457 11456 11470 11470 11461 11457 11468 11480 11490 11487 11449 11407 11368 11343 11326 11311 11284 11268 11237 11240 11230 11210 11201 11207 11203 11225 11215 11201 11169 11161 11159 11175 11160 11151 11143 11153 11215 11244 11289 11302 11332 11349 11372 11364 11360 11335 11343 11350 11357 11368 11381 11394 11411 11427 11438 11458 11478 11490 11501 11486 11462 11464 11459 11469 11475 11485 11501 11514 11527 11537 11543 11555 11570 11574 11571 11549 11532 11530 11526 11525 11533 11547 11545 11559 11571 11581 11418 11408 11395 11373 11354 11342 11326 11323 11315 11293 11294 11283 11289 11287 11258 11217 11194 11181 11217 11261 11306 11337 11354 11376 11383 11387 11410 11428 11461 11483 11484 11478 11474 11471 11476 11491 11522 11552 11587 11606 11643 11659 11690 11718 11751 11777 11795 11793 11796 11781 11777 11779 11782 11783 11793 11794 11803 11795 11800 11807 11810 11812 11824 11822 11797 11799 11783 11786 11794 11818 11809 11831 11845 11855 11866 11872 11877 11877 11882 11890 11874 11852 11847 11834 11823 11816 11825 11825 11816 11815 11813 11815 11828 11837 11848 11858 11855 11844 11833 11830 11818 11824 11827 11825 11828 11841 11837 11841 11846 11859 11876 11878 11891 11892 11889 11903 11903 11918 11932 11959 11987 12009 12022 12047 12064 12078 12099 12113 12136 12140 12139 12130 12132 12133 12129 12132 12129 12112 12118 12116 12122 12135 12129 12124 12118 12105 12083 12067 12067 12046 12030 12022 12025 12013 12018 12018 12013 12017 12016 12027 12029 12009 11998 11989 11962 11959 11945 11938 11945 11943 11947 11943 11948 11957 11966 11990 11976 11981 11964 11954 11933 11921 11898 11903 11895 11881 11880 11881 11872 11878 11888 11886 11901 11904 11912 11912 11903 11895 11861 11853 11835 11839 11832 11824 11843 11823 11830 11827 11827 11837 11828 11812 11800 11773 11747 11718 11683 11666 11661 11677 11697 11716 11715 11687 11685 11672 11675 11678 11672 11676 11664 11619 11595 11581 11556 11540 11518 11508 11486 11500 11473 11445 11445 11447 11424 11426 11405 11376 11340 11321 11286 11272 11259 11238 11242 11222 11217 11213 11207 11213 11203 11198 11201 11186 11153 11130 11125 11113 11108 11091 11081 11070 11081 11100 11145 11191 11264 11310 11355 11386 11416 11418 11415 11429 11436 11437 11460 11473 11482 11505 11502 11507 11540 11559 11585 11602 11599 11600 11604 11607 11608 11601 11618 11632 11643 11651 11673 11686 11702 11720 11729 11729 11717 11701 11688 11671 11670 11658 11653 11673 11663 11680 11686 11691 11705 11724 11724 11740 11745 11730 11723 11735 11757 11765 11758 11737 11721 11722 11728 11732 11733 11741 11731 11721 11723 11712 11726 11732 11734 11730 11734 11749 11776 11802 11835 11869 11908 11938 11971 12015 12076 12113 12163 12214 12249 12268 12296 12330 12336 12347 12377 12396 12391 12389 12392 12388 12389 12375 12371 12366 12346 12332 12323 12324 12311 12302 12304 12300 12298 12282 12316 12303 12312 12300 12291 12274 12247 12229 12219 12210 12200 12209 12189 12186 12171 12178 12179 12160 12149 12122 12107 12065 12051 12037 12031 12043 12072 12098 12099 12109 12117 12127 12139 12149 12151 12141 12121 12104 12071 12049 12028 12009 11989 11980 11953 11938 11922 11899 11899 11914 11915 11934 11938 11935 11930 11904 11895 11885 11872 11858 11841 11846 11838 11839 11836 11865 11887 11906 11925 11916 11904 11871 11859 11857 11840 11820 11827 11816 11879 11935 11983 12009 12045 12093 12130 12168 12185 12207 12220 12248 12268 12295 12338 12375 12407 12418 12433 12447 12438 12449 12463 12486 12469 12476 12494 12491 12501 12524 12527 12537 12547 12559 12571 12583 12574 12570 12566 12570 12589 12600 12610 12608 12610 12595 12604 12609 12605 12604 12612 12612 12624 12620 12612 12613 12607 12618 12612 12629 12627 12640 12656 12668 12671 12684 12674 12681 12693 12699 12700 12701 12684 12696 12699 12720 12723 12737 12732 12725 12708 12708 12671 12677 12666 12657 12644 12649 12626 12606 12606 12591 12595 12598 12609 12605 12618 12629 12638 12656 12676 12702 12720 12736 12748 12754 12740 12756 12750 12755 12760 12772 12778 12793 12781 12776 12778 12761 12757 12758 12755 12744 12708 12676 12665 12634 12630 12613 12601 12603 12616 12621 12630 12648 12644 12642 12639 12613 12579 12534 12500 12468 12430 12410 12394 12362 12342 12334 12312 12308 12308 12311 12300 12272 12254 12232 12217 12211 12208 12217 12218 12225 12208 12187 12175 12157 12136 12118 12104 12070 12032 12000 11972 11960 11973 11988 11973 11947 11931 11923 11910 11879 11887 11867 11840 11791 11738 11700 11661 11635 11613 11609 11605 11614 11622 11646 11682 11719 11758 11790 11785 11757 11732 11713 11708 11717 11729 11762 11785 11805 11818 11852 11865 11877 11895 11914 11918 11902 11882 11881 11880 11887 11896 11916 11916 11938 11958 11986 12002 12016 12052 12079 12093 12096 12096 12114 12125 12131 12159 12166 12182 12205 12225 12242 12258 12271 12287 12295 12278 12265 12272 12254 12256 12262 12270 12293 12297 12296 12307 12314 12336 12350 12342 12342 12331 12313 12317 12329 12333 12334 12340 12335 12348 12353 12337 12340 12338 12345 12352 12341 12322 12346 12371 12365 12377 12405 12395 12403 12428 12438 12455 12461 12467 12470 12456 12448 12435 12411 12399 12396 12382 12370 12357 12339 12329 12323 12316 12304 12300 12305 12278 12244 12227 12203 12185 12187 12166 12181 12173 12160 12136 12149 12139 12127 12125 12116 12098 12077 12065 12043 12009 12003 11990 11972 11966 11964 11944 11935 11925 11935 11936 11911 11881 11863 11835 11809 11794 11778 11764 11742 11723 11712 11703 11704 11698 11683 11676 11648 11612 11576 11537 11499 11454 11443 11408 11387 11382 11383 11391 11394 11409 11433 11477 11507 11527 11537 11569 11599 11640 11641 11602 10507 10388 10379 10419 10547 10621 10673 10689 10714 10711 10712 10692 10657 10628 10633 10639 10674 10705 10712 10728 10740 10583 10596 10649 10669 10673 10634 10641 10640 10635 10635 10648 10658 10656 10654 10662 10649 10648 10631 10610 10594 10591 10591 10561 10531 10489 10424 10397 10361 10358 10362 10363 10388 10366 10349 10345 10365 10367 10381 10410 10434 10448 10315 10229 10285 10348 10410 10451 10414 10387 10377 10333 10278 10232 10193 10146 10133 10110 10084 10061 10041 10027 10004 9945 10064 10296 10322 10339 10400 10474 10746 10812 10940 11002 10997 11000 10979 10947 10925 10911 10885 10866 10851 10831 10825 10812 10813 10813 10807 10789 10763 10704 10644 10597 10551 10508 10485 10456 10441 10419 10399 10388 10399 10462 10484 10558 10591 10617 10615 10565 10463 10382 10343 10294 10260 10225 10199 10172 10156 10160 10167 10163 10111 9993 9934 9897 9860 9846 9818 9791 9761 9739 9743 9738 9754 9788 9883 9994 10112 10216 10282 10328 10356 10361 10339 10310 10299 10264 10246 10231 10213 10201 10222 10258 10292 10310 10308 10319 10317 10327 10343 10366 10373 10370 10385 10414 10393 10403 10430 10460 10461 10469 10532 10730 10624 10825 10929 10994 11025 11036 11045 11078 11104 11116 11139 11157 11173 11184 11187 11189 11188 11185 11186 11181 11185 11164 11168 11148 11149 11129 11125 11096 11081 11050 11035 11007 11000 10990 10955 10874 10811 10757 10712 10660 10614 10588 10584 10600 10637 10665 10680 10693 10712 10732 10749 10755 10758 10752 10761 10755 10770 10790 10794 10800 10768 10745 10741 10743 10738 10760 10779 10794 10801 10787 10797 10783 10797 10818 10808 10823 10815 10807 10800 10780 10764 10727 10689 10646 10636 10611 10609 10612 10625 10635 10631 10645 10645 10647 10659 10622 10587 10548 10514 10488 10442 10411 10377 10347 10327 10293 10269 10249 10225 10197 10152 10141 10139 10143 10135 10129 10109 10084 10055 10042 10008 9988 9965 9939 9936 9910 9895 9880 9883 9909 9910 9918 9922 9918 9913 9910 9916 9917 9912 9890 9871 9839 9829 9822 9835 9858 9873 9877 9883 9875 9845 9843 9816 9777 9741 9700 9669 9648 9621 9612 9613 9612 9625 9634 9653 9688 9722 9724 9724 9724 9724 9728 9729 9753 9771 9806 9838 9892 9928 9963 9995 9999 10002 9982 9984 9969 9963 9964 9965 9978 9975 9993 10014 12856 12887 12923 12989 13103 13137 13149 13143 13131 13118 13105 13091 13068 13062 13047 13051 13047 13042 13044 13112 13174 13235 13286 13300 13324 13350 13363 13348 13330 13328 13304 13221 13101 12947 12827 12741 12743 12805 12887 12891 12905 13030 13200 13298 13376 13397 13419 13431 13431 13365 13346 13377 13455 13423 13394 13465 13549 13607 13675 13738 13764 13829 13844 13853 13846 13834 13831 13819 13802 13792 13772 13790 13791 13807 13813 13824 13831 13838 13833 13838 13828 13815 13806 13792 13786 13794 13807 13838 13860 13857 13869 13873 13886 13881 13909 13933 13969 14003 14008 14030 14032 14020 14003 13974 13967 13939 13934 13932 13925 13904 13912 13902 13890 13885 13879 13867 13852 13836 13838 13816 13820 13812 13803 13807 13805 13794 13795 13792 13776 13777 13758 13750 13756 13765 13770 13766 13769 13755 13737 13732 13725 13700 13686 13655 13646 13615 13593 13580 13579 13581 13572 13560 13545 13529 13522 13513 13495 13495 13477 13467 13436 13405 13397 13366 13354 13346 13331 13307 13326 13310 13305 13309 13289 13283 13282 13241 13220 13211 13213 13218 13219 13213 13202 13209 13219 13234 13250 13285 13316 13324 13335 13333 13328 13315 13319 13304 13299 13294 13284 13288 13283 13278 13264 13283 13268 13262 13247 13248 13244 13258 13257 13264 13304 13344 13404 13500 13544 13580 13576 13589 13585 13602 13645 13699 13732 13790 13846 13877 13910 13915 13914 13914 13898 13869 13850 13837 13815 13810 13806 13819 13829 13842 13878 13894 13905 13908 13902 13889 13898 13862 13850 13847 13853 13846 13828 13818 13804 13815 13836 13872 13890 13925 13933 13938 13957 13947 13936 13922 13899 13867 13845 13824 13815 13814 13813 13795 13768 13745 13719 13675 13652 13628 13634 13640 13624 13616 13614 13595 13594 13572 13565 13534 13516 13492 13469 13464 13458 13438 13411 13396 13376 13348 13332 13315 13285 13237 13197 13160 13128 13123 13116 13094 13085 13090 13070 13055 13042 13039 13022 13010 13018 13028 13020 12998 12979 12955 12934 12913 12891 12873 12865 12843 12820 12793 12765 12767 12769 12761 12762 12758 12757 12750 12757 12727 12716 12720 12716 12734 12765 12772 12769 12745 12713 12702 12689 12671 12654 12647 12628 12598 12576 12560 12568 12571 12575 12553 12559 12553 12549 12536 12531 12532 12525 12542 12572 12604 12610 12609 12597 12584 12551 12525 12518 12496 12473 12463 12438 12410 12398 12408 12421 12442 12438 12436 12432 12421 12426 12407 12399 12402 12418 12452 12485 12488 12485 12484 12480 12473 12458 12445 12427 12401 12388 12356 12337 12336 12345 12357 12365 12376 12385 12397 12402 12403 12367 12366 12367 12400 12431 12461 12465 12461 12461 12451 12450 12441 12446 12425 12403 12376 12359 12336 12324 12334 12349 12348 12354 12365 12370 12366 12363 12365 12349 12356 12376 12394 12414 12425 12429 12406 12391 12394 12387 12392 12389 12385 12375 12350 12320 12306 12313 12331 12341 12347 12366 12366 12368 12382 12374 12376 12392 12406 12434 12450 12437 12430 12420 12414 12415 12398 12392 12392 12384 12366 12350 12336 12332 12333 12349 12350 12348 12363 12366 12376 12366 12370 12362 12355 12367 12403 12433 12419 12421 12417 12385 12384 12378 12366 12374 12349 12345 12326 12304 12303 12313 12310 12310 12302 12304 12310 12316 12316 12311 12303 12307 12331 12367 12392 12409 12393 12359 12339 12328 12327 12315 12316 12307 12290 12282 12267 12257 12269 12273 12284 12281 12287 12284 12276 12278 12270 12260 12286 12309 12335 12368 12372 12366 12353 12326 12310 12309 12297 12287 12275 12258 12234 12211 12207 12221 12244 12246 12260 12272 12274 12268 12259 12247 12243 12264 12281 12299 12320 12346 12349 12349 12331 12340 12322 12327 12300 12292 12260 12232 12217 12204 12209 12230 12235 12231 12234 12252 12242 12246 12236 12239 12253 12283 12303 12322 12321 12318 12292 12286 12284 12266 12265 12259 12250 12202 12202 12173 12174 12177 12180 12189 12187 12197 12198 12212 12203 12210 12208 12233 12287 12301 12296 12298 12281 12266 12246 12242 12237 12225 12214 12203 12185 12155 12122 12104 12108 12125 12149 12152 12170 12178 12179 12180 12172 12178 12199 12233 12261 12284 12287 12274 12232 12213 12197 12185 12177 12164 12155 12143 12131 12134 12161 12192 12199 12204 12210 12211 12211 12199 12202 12201 12220 12250 12252 12264 12242 12218 12198 12163 12153 12142 12129 12139 12113 12100 12082 12074 12086 12132 12151 12143 12129 12117 12122 12103 12113 12100 12111 12133 12155 12174 12173 12146 12133 12095 12093 12094 12089 12092 12102 12093 12075 12070 12083 12118 12146 12163 12165 12155 12140 12129 12138 12133 12131 12129 12155 12166 12195 12190 12207 12217 12191 12171 12163 12153 12125 12127 12120 12097 12083 12072 12093 12120 12167 12173 12168 12167 12182 12183 12174 12160 12185 12207 12241 12254 12253 12257 12241 12225 12215 12212 12196 12188 12169 12157 12149 12136 12143 12143 12153 12157 12158 12159 12169 12162 12160 12152 12168 12165 12195 12223 12247 12239 12240 12226 12225 12209 12207 12205 12194 12173 12156 12132 12124 12124 12142 12161 12169 12180 12188 12208 12235 12242 12242 12240 12264 12274 12289 12305 12299 12293 12272 12270 12264 12261 12254 12264 12248 12247 12224 12207 12197 12203 12214 12213 12207 12218 12215 12229 12234 12224 12213 12236 12246 12243 12226 12215 12209 12181 12174 12166 12166 12185 12197 12223 12224 12215 12224 12233 12242 12245 12238 12222 12220 12216 12211 12224 12238 12241 12229 12222 12225 12224 12211 12192 12175 12179 12178 12209 12276 12341 12415 12479 12504 12513 12519 12538 12536 12540 12529 12504 12517 12516 12541 12562 12596 12614 12627 12629 12618 12627 12621 12619 12606 12617 12634 12648 12692 12719 12751 12759 12773 12768 12770 12783 12793 12788 12782 12771 12780 12797 12818 12837 12860 12861 12866 12853 12860 12869 12864 12870 12870 12882 12882 12901 12916 12925 12915 12917 12925 12934 12936 12935 12939 12940 12944 12963 12984 12995 13026 13047 13077 13106 13104 13107 13103 13104 13102 13110 13113 13131 13155 13178 13177 13169 13171 13176 13191 13187 13187 13187 13170 13172 13167 13161 13154 13162 13138 13124 13119 13108 13102 13092 13090 13088 13097 13107 13127 13151 13182 13199 13195 13187 13167 13164 13168 13159 13144 13125 13135 13121 13131 13165 13156 13162 13165 13136 13133 13118 13097 13064 13070 13052 13043 13053 13057 13070 13078 13077 13088 13084 13067 13050 13039 13000 12978 12959 12955 12979 12999 13024 13044 13045 13042 13033 13008 12990 12957 12940 12933 12943 12967 12971 12994 13000 12999 12991 12992 12985 12990 12970 12936 12914 12907 12909 12925 12939 12971 12998 13001 13003 12998 13012 12993 12969 12936 12900 12896 12893 12912 12924 12925 12921 12928 12933 12925 12925 12942 12911 12885 12865 12866 12876 12894 12913 12918 12938 12929 12932 12928 12942 12927 12906 12901 12880 12865 12865 12867 12875 12873 12873 12872 12878 12884 12869 12881 12871 12866 12853 12855 12859 12858 12856 12836 12838 12826 12826 12837 12827 12825 12821 12826 12817 12812 12808 12806 12803 12799 12818 12834 12833 12837 12843 12855 12883 12913 12947 12962 12974 12977 12968 12966 12965 12967 12971 12968 12977 13013 13036 13084 13113 13141 13141 13148 13149 13169 13172 13189 13197 13196 13200 13206 13225 13249 13259 13280 13277 13282 13284 13288 13301 13289 13294 13282 13277 13273 13257 13249 13247 13231 13209 13185 13176 13159 13147 13140 13120 13112 13107 13114 13124 13133 13128 13107 13107 13091 13083 13088 13066 13068 13065 13074 13089 13113 13138 13153 13166 13167 13163 13171 13178 13180 13177 13178 13177 13180 13183 13188 13180 13169 13169 13151 13147 13144 13112 13090 13073 13073 13062 13055 13051 13048 13043 13035 13032 13043 13057 13074 13080 13068 13057 13034 13028 13019 13002 12982 13000 13010 13017 13040 13054 13060 13041 13013 12984 12966 12959 12932 12920 12902 12873 12855 12851 12844 12847 12819 12796 12779 12767 12758 12749 12734 12730 12724 12747 12774 12790 12802 12780 12747 12696 12673 12654 12631 12604 12584 12561 12536 12515 12519 12532 12532 12538 12531 12505 12490 12471 12451 12420 12413 12425 12456 12457 12460 12449 12418 12410 12395 12369 12341 12306 12277 12245 12228 12200 12189 12186 12199 12209 12197 12201 12205 12207 12209 12182 12172 12165 12201 12224 12230 12212 12202 12175 12167 12139 12149 12142 12130 12109 12080 12061 12045 12045 12048 12064 12070 12069 12071 12071 12088 12102 12107 12109 12107 12114 12134 12159 12164 12167 12159 12142 12139 12134 12118 12114 12107 12097 12090 12064 12068 12072 12084 12095 12100 12117 12150 12162 12175 12196 12199 12233 12264 12288 12304 12309 12302 12306 12289 12289 12273 12274 12254 12244 12217 12225 12213 12222 12236 12231 12241 12240 12250 12248 12258 12264 12263 12256 12262 12293 12318 12334 12361 12365 12355 12332 12328 12318 12310 12288 12285 12258 12249 12232 12238 12258 12267 12269 12251 12261 12271 12272 12279 12269 12280 12287 12312 12335 12343 12340 12332 12299 12273 12264 12249 12241 12233 12221 12213 12191 12186 12202 12226 12231 12244 12242 12239 12213 12202 12174 12171 12144 12148 12181 12192 12204 12200 12180 12168 12152 12139 12119 12083 12074 12056 12027 11997 11994 11978 11979 11999 11997 11995 12009 12032 12049 12061 12042 12040 12045 12032 12068 12065 12065 12066 12039 12003 11980 11990 11987 12011 11978 11943 11908 11909 11895 11895 11911 11917 11911 11920 11934 11959 11981 11978 11974 11952 11974 11971 11982 11980 11974 11957 11925 11918 11903 11898 11926 11922 11915 11884 11854 11842 11830 11819 11825 11826 11823 11843 11884 11913 11936 11958 11961 11961 11968 11979 11971 11974 11960 11928 11918 11910 11900 11934 11930 11928 11931 11909 11896 11887 11876 11889 11891 11901 11952 11998 12037 12046 12047 12056 12073 12090 12109 12118 12091 12088 12074 12069 12069 12074 12091 12111 12129 12130 12108 12134 12141 12152 12160 12157 12163 12189 12221 12258 12295 12316 12324 12334 12346 12361 12373 12367 12369 12349 12340 12338 12344 12358 12375 12389 12388 12378 12390 12397 12444 12469 12483 12474 12470 12468 12451 12443 12438 12441 12443 12462 12478 12504 12505 12495 12492 12495 12480 12479 12466 12448 12425 12412 12395 12385 12381 12386 12399 12408 12411 12425 12427 12443 12438 12424 12405 12410 12419 12425 12447 12443 12441 12432 12415 12406 12383 12383 12384 12388 12361 12322 12294 12284 12267 12258 12264 12258 12257 12281 12290 12305 12317 12324 12328 12344 12341 12342 12328 12313 12276 12253 12230 12207 12210 12198 12199 12186 12156 12160 12149 12147 12131 12111 12081 12091 12116 12136 12151 12160 12169 12174 12199 12199 12213 12185 12164 12114 12068 12039 12034 12028 12031 12046 12036 12021 12003 11992 12000 12021 12022 11996 11977 11979 11997 12023 12048 12044 12061 12065 12073 12080 12069 12073 12058 12021 11982 11969 11955 11967 11974 11955 11934 11914 11906 11914 11931 11938 11952 11965 11993 11992 11982 11995 11988 11992 12005 12022 12024 12017 12023 12003 11979 11977 11986 11999 12000 11989 11981 11967 11960 11956 11942 11954 11959 11960 11976 12017 12056 12079 12081 12064 12087 12110 12129 12131 12124 12123 12095 12087 12073 12060 12078 12086 12101 12068 12055 12032 12030 12049 12072 12090 12091 12118 12150 12170 12203 12219 12223 12251 12255 12270 12277 12272 12269 12236 12223 12207 12211 12210 12216 12215 12184 12184 12172 12175 12159 12163 12162 12172 12210 12244 12285 12318 12333 12347 12355 12362 12367 12358 12359 12353 12348 12343 12357 12390 12404 12424 12447 12430 12442 12464 12452 12456 12453 12461 12447 12423 12399 12378 12369 12352 12354 12370 12398 12421 12420 12407 12376 12345 12315 12297 12289 12284 12294 12286 12268 12238 12233 12233 12227 12255 12254 12232 12225 12217 12216 12216 12225 12225 12230 12240 12273 12248 12236 12220 12176 12138 12112 12090 12083 12106 12086 12060 12047 12045 12035 12065 12101 12098 12098 12095 12061 12048 12030 12034 12042 12057 12067 12070 12058 12055 12029 12009 11990 11979 11959 11943 11942 11955 11961 11929 11929 11966 11995 12021 12021 12017 12014 12011 12023 12008 11976 11957 11975 11974 11982 11975 11980 11951 11920 11901 11901 11904 11923 11940 11936 11902 11869 11833 11826 11859 11905 11918 11955 11970 11988 12015 12047 12065 12064 12085 12098 12090 12081 12064 12023 11999 11976 11971 11966 11990 12010 12024 12040 12020 12004 12013 12035 12044 12040 12052 12054 12068 12063 12072 12096 12093 12127 12160 12175 12171 12179 12166 12129 12137 12129 12129 12150 12183 12187 12196 12184 12183 12199 12210 12199 12207 12205 12205 12210 12230 12234 12253 12271 12316 12333 12352 12347 12343 12328 12319 12304 12305 12294 12292 12281 12269 12250 12238 12225 12238 12261 12271 12297 12308 12307 12307 12301 12306 12328 12361 12394 12410 12413 12412 12400 12379 12368 12377 12364 12356 12347 12333 12322 12309 12290 12308 12352 12372 12372 12361 12369 12368 12352 12332 12321 12332 12354 12367 12382 12373 12364 12353 12326 12309 12288 12295 12294 12269 12244 12208 12171 12166 12167 12192 12202 12202 12234 12246 12270 12276 12300 12314 12305 12305 12311 12302 12286 12259 12228 12194 12180 12169 12154 12144 12165 12153 12117 12080 12077 12092 12107 12089 12081 12107 12125 12148 12152 12170 12179 12195 12216 12234 12203 12175 12139 12091 12057 12041 12054 12073 12095 12098 12088 12077 12075 12095 12105 12101 12083 12079 12100 12117 12153 12158 12173 12167 12190 12193 12197 12176 12172 12125 12078 12062 12063 12071 12109 12141 12165 12166 12167 12200 12229 12291 12313 12310 12289 12263 12244 12224 12225 12232 12252 12287 12311 12321 12330 12327 12315 12290 12288 12272 12251 12234 12219 12196 12184 12180 12189 12206 12219 12229 12226 12250 12280 12294 12287 12275 12281 12310 12319 12344 12354 12370 12379 12369 12372 12360 12367 12353 12343 12314 12293 12277 12271 12271 12272 12293 12314 12316 12340 12348 12350 12348 12346 12357 12380 12392 12403 12397 12387 12376 12359 12338 12337 12327 12328 12346 12347 12322 12296 12293 12292 12293 12318 12312 12314 12326 12347 12354 12366 12361 12385 12399 12415 12413 12404 12399 12369 12348 12319 12298 12298 12300 12312 12309 12287 12271 12277 12304 12303 12310 12305 12324 12336 12367 12387 12394 12390 12405 12430 12444 12456 12444 12442 12422 12386 12359 12333 12332 12329 12334 12326 12296 12283 12299 12309 12324 12339 12345 12326 12334 12353 12368 12366 12374 12379 12405 12419 12427 12437 12427 12409 12387 12355 12330 12306 12293 12293 12277 12247 12232 12236 12236 12244 12256 12262 12269 12271 12254 12232 12231 12254 12262 12289 12306 12320 12322 12296 12271 12257 12249 12262 12260 12250 12238 12210 12185 12175 12183 12196 12202 12217 12199 12210 12213 12228 12247 12275 12285 12302 12303 12318 12306 12289 12271 12243 12227 12226 12229 12238 12252 12259 12238 12214 12196 12205 12241 12262 12265 12284 12291 12299 12296 12306 12329 12335 12363 12378 12366 12362 12371 12349 12334 12327 12319 12305 12312 12311 12296 12272 12256 12258 12260 12263 12272 12286 12310 12329 12341 12360 12367 12373 12390 12419 12439 12443 12439 12420 12399 12378 12373 12352 12344 12343 12350 12325 12301 12297 12309 12337 12355 12362 12370 12374 12391 12403 12418 12419 12426 12451 12475 12488 12473 12479 12456 12427 12393 12377 12366 12358 12370 12350 12328 12301 12315 12323 12342 12370 12379 12391 12394 12398 12387 12400 12393 12389 12421 12437 12435 12435 12430 12414 12399 12385 12374 12355 12322 12305 12277 12240 12219 12220 12241 12264 12244 12259 12276 12297 12322 12331 12327 12320 12326 12335 12340 12321 12294 12268 12242 12241 12251 12275 12309 12342 12314 12270 12246 12237 12230 12238 12244 12257 12281 12333 12352 12365 12367 12389 12395 12395 12396 12376 12351 12344 12312 12290 12263 12251 12261 12283 12280 12245 12232 12218 12210 12207 12209 12202 12222 12259 12292 12313 12332 12339 12343 12374 12394 12389 12379 12354 12333 12292 12276 12270 12261 12279 12289 12266 12253 12239 12244 12250 12261 12257 12247 12248 12267 12291 12311 12334 12349 12354 12384 12414 12420 12415 12418 12379 12350 12328 12305 12306 12291 12308 12294 12285 12270 12277 12296 12299 12307 12302 12314 12320 12318 12328 12315 12315 12333 12360 12379 12404 12400 12404 12376 12376 12361 12349 12341 12323 12309 12301 12287 12275 12281 12304 12312 12316 12324 12355 12390 12421 12427 12424 12404 12430 12462 12493 12520 12520 12526 12506 12500 12477 12474 12461 12463 12463 12428 12420 12413 12413 12416 12434 12432 12441 12454 12468 12476 12487 12479 12485 12512 12530 12543 12546 12539 12536 12505 12480 12483 12461 12456 12454 12471 12467 12445 12444 12438 12441 12434 12428 12425 12429 12442 12455 12467 12476 12485 12495 12508 12526 12525 12509 12498 12501 12480 12469 12462 12444 12444 12458 12433 12436 12419 12412 12418 12419 12408 12396 12393 12410 12424 12442 12438 12427 12454 12484 12501 12503 12503 12487 12460 12421 12397 12379 12358 12349 12339 12314 12292 12274 12271 12280 12283 12288 12301 12319 12314 12307 12328 12321 12327 12333 12350 12357 12359 12352 12340 12316 12301 12277 12252 12232 12237 12245 12203 12179 12157 12173 12176 12194 12207 12228 12264 12297 12328 12315 12297 12306 12342 12331 12325 12299 12285 12258 12236 12213 12214 12226 12220 12201 12156 12105 12077 12065 12068 12062 12050 12085 12136 12172 12205 12214 12238 12252 12251 12258 12268 12255 12242 12208 12193 12187 12182 12185 12211 12229 12243 12278 12328 12376 12428 12480 12523 12579 12623 12675 12731 12793 12832 12872 12906 12957 12990 13024 13065 13088 13139 13185 13221 13259 13279 13317 13343 13365 13386 13420 13449 13483 13520 13550 13584 13615 13639 13667 13672 13686 13692 13704 13752 13768 13799 13830 13846 13858 13861 13854 13842 13836 13837 13828 13824 13839 13856 13876 13885 13888 13887 13862 13859 13831 13820 13802 13785 13789 13814 13822 13866 13881 13875 13875 13877 13863 13847 13820 13786 13762 13727 13707 13681 13649 13648 13663 13664 13667 13663 13656 13646 13620 13586 13563 13560 13564 13584 13599 13595 13574 13542 13511 13469 13441 13407 13368 13313 13259 13209 13155 13128 13126 13135 13149 13150 13126 13102 13101 13076 13059 13023 13013 13023 13024 13022 12995 12970 12932 12893 12845 12820 12792 12775 12740 12676 12613 12548 12491 12468 12466 12459 12444 12455 12480 12510 12518 12513 12501 12502 12504 12504 12491 12466 12414 12368 12319 12293 12267 12249 12241 12234 12193 12139 12085 12063 12104 12126 12144 12164 12177 12201 12217 12226 12236 12247 12255 12245 12223 12187 12142 12093 12055 12027 11996 12001 11998 12018 12024 12005 11976 11928 11902 11882 11883 11905 11965 12024 12107 12163 12200 12211 12201 12186 12173 12158 12116 12105 12106 12149 12220 12318 12433 12567 12709 12804 12868 12918 12952 12983 13004 13021 13026 13032 13029 13060 13079 13113 13126 13160 13177 13206 13238 13266 13280 13277 13278 13273 13271 13260 13265 13267 13254 13245 13255 13264 13276 13289 13286 13298 13289 13292 13281 13274 13264 13263 13263 13243 13236 13241 13236 13221 13207 13210 13208 13200 13200 13184 13168 13152 13132 13120 13110 13103 13084 13077 13067 13068 13073 13081 13071 13056 13053 13045 13030 13012 13003 12992 12982 12974 12983 12979 12978 12962 12955 12936 12939 12924 12921 12919 12908 12903 12898 12870 12874 12882 12868 12846 12827 12821 12810 12795 12794 12788 12782 12790 12791 12785 12792 12795 12770 12747 12739 12729 12714 12721 12708 12722 12743 12760 12783 12787 12780 12767 12734 12711 12659 12653 12655 12638 12633 12638 12653 12665 12686 12698 12702 12666 12639 12596 12570 12583 12579 12584 12582 12601 12617 12638 12659 12677 12681 12686 12650 12617 12590 12556 12534 12519 12501 12504 12509 12516 12528 12514 12516 12502 12484 12466 12447 12409 12395 12381 12374 12390 12394 12410 12406 12391 12389 12379 12384 12384 12361 12345 12303 12288 12292 12298 12284 12288 12270 12261 12240 12253 12248 12255 12260 12270 12264 12239 12220 12213 12214 12205 12206 12232 12237 12209 12210 12201 12214 12236 12238 12208 12193 12175 12172 12172 12169 12154 12158 12157 12182 12223 12264 12293 12323 12339 12338 12317 12325 12307 12298 12309 12327 12381 12468 12557 12666 12753 12819 12863 12891 12905 12875 12855 12833 12798 12794 12767 12760 12751 12742 12756 12773 12798 12817 12817 12783 12745 12704 12666 12641 12622 12596 12558 12531 12505 12506 12498 12532 12540 12562 12557 12563 12555 12547 12546 12534 12552 12590 12626 12636 12635 12626 12602 12567 12551 12530 12520 12474 12448 12409 12386 12351 12350 12367 12374 12385 12378 12396 12415 12436 12450 12427 12422 12451 12496 12539 12549 12526 12504 12468 12440 12411 12406 12379 12383 12368 12331 12312 12280 12285 12293 12310 12314 12327 12353 12352 12371 12376 12369 12386 12429 12453 12462 12460 12447 12432 12388 12369 12353 12328 12314 12313 12306 12280 12262 12249 12259 12257 12267 12268 12262 12274 12290 12308 12306 12283 12283 12315 12333 12382 12383 12384 12353 12304 12266 12245 12232 12201 12206 12179 12156 12120 12102 12099 12104 12127 12155 12148 12155 12162 12188 12209 12192 12197 12249 12297 12332 12346 12329 12306 12266 12256 12219 12190 12157 12158 12159 12123 12110 12103 12103 12142 12160 12171 12185 12200 12217 12213 12199 12174 12170 12218 12250 12282 12284 12282 12263 12237 12225 12203 12196 12203 12187 12158 12139 12107 12090 12100 12130 12142 12145 12143 12140 12151 12140 12142 12132 12136 12157 12189 12211 12197 12212 12200 12168 12134 12110 12092 12090 12091 12089 12073 12050 12038 12031 12035 12046 12044 12049 12076 12091 12099 12122 12117 12136 12173 12197 12200 12180 12175 12146 12108 12079 12054 12058 12071 12088 12106 12097 12072 12066 12065 12060 12058 12057 12065 12084 12104 12105 12122 12117 12112 12156 12183 12194 12193 12165 12128 12090 12063 12054 12042 12069 12071 12075 12050 12018 11988 11976 12020 12070 12088 12093 12107 12135 12136 12126 12123 12131 12164 12187 12207 12196 12193 12159 12109 12071 12053 12039 12036 12061 12070 12074 12051 12042 12038 12061 12100 12153 12172 12170 12153 12151 12149 12139 12138 12168 12197 12210 12230 12216 12216 12194 12175 12162 12139 12119 12119 12132 12121 12122 12101 12108 12115 12157 12194 12211 12215 12231 12239 12236 12222 12204 12219 12257 12276 12298 12292 12287 12271 12249 12237 12232 12226 12221 12195 12160 12146 12115 12103 12086 12099 12091 12101 12128 12126 12147 12175 12183 12154 12165 12198 12204 12229 12238 12221 12218 12195 12179 12151 12144 12144 12109 12090 12057 12029 12010 12012 12019 12047 12086 12096 12112 12132 12148 12155 12146 12120 12149 12153 12165 12177 12163 12152 12122 12111 12093 12090 12081 12072 12036 12011 11978 11949 11931 11924 11935 11963 11966 11976 12002 12023 12046 12059 12050 12034 12049 12061 12071 12062 12054 12045 12024 11979 11964 11957 11950 11977 11995 11972 11931 11882 11866 11867 11878 11914 11930 11948 11949 11948 11962 11960 11953 11963 11962 11974 11954 11954 11920 11884 11851 11824 11817 11831 11856 11882 11902 11902 11869 11822 11819 11806 11823 11830 11849 11882 11907 11938 11969 11968 11999 12007 12018 12033 12032 12008 11978 11938 11906 11894 11895 11920 11941 11982 12000 11988 11987 11980 11972 11980 11985 11987 11996 12042 12066 12085 12098 12112 12120 12140 12161 12197 12207 12195 12178 12160 12128 12124 12112 12116 12116 12119 12117 12110 12097 12105 12100 12101 12119 12111 12112 12112 12118 12108 12127 12139 12178 12193 12223 12238 12235 12239 12224 12206 12206 12192 12187 12197 12192 12196 12190 12182 12181 12183 12184 12190 12212 12210 12221 12227 12210 12220 12218 12220 12256 12279 12302 12315 12320 12300 12288 12283 12261 12248 12244 12242 12260 12271 12269 12266 12257 12276 12294 12310 12325 12319 12328 12332 12325 12312 12313 12312 12324 12364 12377 12389 12387 12379 12363 12343 12324 12302 12286 12269 12249 12214 12187 12170 12150 12154 12189 12227 12235 12243 12252 12249 12242 12218 12201 12213 12233 12246 12261 12260 12262 12237 12217 12191 12199 12188 12169 12170 12141 12101 12086 12060 12069 12082 12112 12125 12124 12144 12147 12158 12147 12137 12138 12160 12176 12186 12195 12177 12168 12151 12134 12115 12106 12107 12117 12129 12143 12137 12105 12104 12105 12131 12148 12150 12158 12157 12150 12153 12143 12142 12163 12185 12208 12224 12208 12212 12197 12188 12153 12152 12138 12142 12132 12134 12138 12123 12117 12129 12138 12149 12146 12143 12142 12141 12146 12146 12156 12148 12191 12226 12245 12265 12267 12246 12200 12178 12151 12144 12134 12147 12145 12140 12117 12112 12105 12123 12160 12179 12176 12166 12161 12160 12152 12147 12149 12172 12209 12248 12261 12256 12253 12233 12179 12169 12149 12136 12124 12130 12137 12106 12093 12093 12101 12110 12121 12130 12138 12144 12141 12159 12164 12158 12169 12198 12225 12224 12237 12234 12222 12188 12143 12125 12107 12092 12098 12104 12106 12088 12070 12069 12092 12112 12155 12151 12140 12142 12139 12137 12145 12137 12150 12191 12210 12228 12227 12223 12206 12176 12141 12137 12127 12132 12140 12157 12166 12154 12148 12146 12160 12212 12230 12222 12213 12211 12211 12220 12198 12199 12226 12272 12296 12302 12300 12298 12285 12256 12236 12215 12212 12204 12197 12194 12185 12161 12150 12150 12181 12207 12214 12223 12235 12258 12287 12300 12317 12335 12368 12390 12424 12441 12470 12470 12458 12441 12435 12417 12411 12397 12394 12373 12357 12347 12339 12342 12363 12383 12376 12387 12384 12377 12378 12373 12362 12382 12429 12474 12488 12483 12478 12441 12431 12407 12405 12393 12387 12365 12354 12338 12328 12324 12326 12350 12372 12371 12377 12365 12374 12366 12362 12360 12380 12409 12453 12475 12467 12460 12438 12420 12408 12389 12370 12358 12341 12336 12304 12283 12272 12272 12285 12302 12309 12320 12333 12340 12316 12312 12307 12304 12334 12355 12385 12386 12381 12366 12351 12319 12306 12292 12277 12257 12232 12205 12189 12176 12175 12193 12203 12227 12229 12224 12212 12210 12203 12208 12206 12213 12225 12243 12262 12261 12249 12241 12200 12202 12183 12189 12184 12186 12202 12168 12155 12132 12128 12125 12149 12163 12175 12196 12197 12212 12227 12227 12223 12258 12290 12305 12303 12294 12284 12258 12233 12221 12218 12214 12208 12200 12200 12187 12162 12153 12144 12147 12159 12170 12154 12171 12173 12171 12173 12179 12197 12221 12246 12253 12244 12225 12210 12185 12165 12168 12167 12167 12177 12183 12186 12175 12171 12170 12189 12190 12202 12213 12249 12260 12259 12271 12258 12273 12305 12332 12362 12365 12370 12354 12333 12320 12313 12297 12295 12296 12287 12275 12264 12265 12259 12253 12247 12259 12264 12271 12280 12289 12289 12286 12302 12335 12359 12374 12393 12407 12399 12388 12362 12354 12339 12351 12331 12337 12336 12332 12307 12308 12308 12331 12349 12345 12349 12343 12350 12356 12351 12338 12365 12388 12423 12432 12445 12439 12410 12391 12372 12358 12348 12350 12345 12335 12318 12302 12291 12303 12302 12324 12329 12318 12319 12326 12331 12331 12319 12338 12343 12378 12400 12413 12409 12410 12371 12354 12341 12329 12320 12308 12294 12271 12257 12233 12221 12233 12251 12256 12253 12254 12243 12232 12220 12217 12208 12246 12264 12285 12311 12325 12315 12308 12268 12239 12229 12193 12185 12174 12170 12151 12130 12129 12121 12151 12173 12175 12175 12169 12178 12164 12159 12152 12149 12176 12200 12210 12219 12212 12210 12182 12166 12151 12129 12125 12104 12107 12104 12085 12072 12073 12069 12095 12118 12145 12170 12189 12196 12191 12167 12165 12174 12204 12234 12264 12262 12250 12230 12227 12213 12199 12189 12186 12174 12151 12134 12112 12104 12088 12111 12132 12143 12149 12155 12154 12169 12166 12163 12162 12197 12217 12241 12249 12234 12228 12208 12197 12187 12186 12176 12176 12172 12163 12134 12122 12129 12174 12225 12269 12301 12331 12344 12376 12355 12357 12368 12386 12420 12440 12437 12435 12422 12405 12386 12371 12349 12339 12323 12308 12303 12274 12259 12264 12249 12260 12267 12273 12284 12276 12274 12263 12255 12266 12275 12300 12318 12339 12330 12327 12298 12251 12231 12217 12202 12218 12221 12227 12215 12206 12208 12228 12233 12270 12283 12290 12266 12262 12246 12237 12213 12208 12235 12279 12305 12316 12330 12306 12275 12251 12228 12207 12173 12154 12133 12119 12086 12080 12077 12110 12136 12160 12175 12202 12212 12192 12171 12143 12133 12157 12181 12213 12217 12205 12187 12151 12130 12107 12116 12091 12094 12056 12023 11984 11954 11935 11941 11967 11984 11994 12029 12020 12044 12073 12076 12067 12080 12091 12084 12098 12075 12067 12030 11998 11979 11967 11945 11953 11962 11969 11955 11919 11888 11870 11887 11891 11904 11919 11924 11927 11925 11927 11934 11932 11955 11982 11980 11947 11939 11901 11859 11836 11828 11835 11848 11867 11897 11903 11896 11891 11892 11919 11920 11928 11908 11937 11952 11955 11957 11962 11956 11995 12038 12065 12070 12070 12060 12017 11974 11951 11929 11918 11915 11911 11900 11888 11872 11873 11865 11898 11924 11933 11926 11923 11923 11928 11910 11914 11914 11939 11967 11997 12006 11994 11984 11943 11924 11901 11891 11897 11898 11910 11918 11893 11903 11893 11915 11955 11970 11982 11979 11983 11961 11971 11986 11975 12004 12022 12037 12050 12052 12047 12027 12007 11988 11969 11965 11964 11958 11950 11927 11909 11907 11932 11997 12054 12109 12127 12139 12146 12127 12129 12146 12167 12210 12221 12248 12254 12249 12227 12206 12182 12155 12137 12110 12094 12083 12048 12027 12019 12043 12068 12086 12095 12110 12109 12103 12097 12087 12094 12131 12152 12171 12171 12173 12145 12133 12104 12080 12053 12035 12033 12025 12004 11986 11980 11967 11967 11987 12004 12024 12043 12070 12075 12057 12051 12072 12112 12124 12142 12153 12134 12117 12096 12077 12060 12058 12056 12055 12040 11996 11976 11969 11943 11974 11989 12006 12039 12083 12102 12105 12120 12108 12099 12121 12153 12176 12193 12188 12157 12149 12122 12102 12092 12089 12081 12074 12078 12033 12010 12001 11995 12014 12050 12055 12061 12076 12097 12108 12123 12115 12139 12184 12204 12215 12199 12192 12148 12142 12114 12121 12116 12106 12100 12097 12078 12074 12067 12065 12083 12099 12116 12104 12103 12112 12118 12117 12116 12128 12176 12201 12236 12234 12231 12207 12172 12147 12141 12133 12141 12128 12119 12101 12094 12076 12078 12089 12121 12122 12114 12118 12122 12130 12125 12122 12124 12154 12190 12217 12249 12244 12242 12222 12197 12173 12153 12136 12135 12117 12097 12080 12069 12073 12086 12107 12121 12142 12166 12169 12163 12157 12147 12143 12152 12186 12211 12228 12235 12227 12213 12191 12186 12170 12167 12151 12130 12114 12080 12069 12061 12068 12085 12100 12114 12111 12131 12129 12135 12126 12142 12143 12166 12196 12222 12214 12208 12201 12180 12159 12148 12141 12128 12118 12109 12105 12056 12042 12025 12039 12075 12080 12093 12096 12110 12099 12102 12096 12100 12113 12135 12152 12168 12155 12152 12126 12093 12074 12067 12068 12054 12038 12027 12013 11996 12005 12006 12013 12026 12023 12024 12025 12018 12021 12017 11998 12005 12046 12074 12092 12098 12078 12039 12009 11981 11966 11963 11947 11950 11936 11928 11905 11889 11893 11901 11925 11917 11912 11932 11944 11958 11958 11968 11971 12012 12044 12075 12081 12062 12051 12008 11962 11942 11942 11924 11916 11916 11910 11895 11882 11868 11870 11898 11918 11923 11922 11919 11943 11951 11964 11978 11990 12026 12045 12077 12078 12077 12048 12031 12011 12006 11976 11952 11941 11922 11909 11890 11890 11896 11922 11962 12004 12037 12035 12050 12040 12020 12022 12037 12069 12095 12111 12116 12119 12110 12091 12081 12075 12057 12054 12054 12020 11992 11971 11947 11955 11982 12009 12019 12035 12062 12079 12094 12103 12092 12093 12141 12152 12174 12181 12178 12167 12143 12126 12112 12112 12099 12109 12101 12084 12063 12050 12055 12053 12081 12090 12110 12134 12144 12150 12160 12155 12150 12180 12211 12254 12252 12262 12253 12233 12209 12199 12212 12184 12193 12186 12165 12154 12145 12131 12142 12159 12171 12179 12182 12198 12196 12201 12189 12186 12214 12251 12270 12283 12285 12278 12264 12239 12225 12210 12198 12186 12175 12155 12131 12119 12113 12104 12131 12143 12158 12173 12163 12142 12137 12124 12137 12156 12183 12205 12224 12209 12210 12196 12182 12156 12147 12123 12105 12076 12039 12016 11973 11969 11957 11977 11993 12016 12030 12052 12054 12069 12068 12041 12048 12061 12070 12068 12073 12064 12054 12020 12006 11993 11978 11968 11958 11960 11944 11894 11856 11821 11815 11848 11861 11874 11896 11926 11931 11942 11952 11949 11968 12008 12013 12021 11998 11972 11941 11893 11869 11853 11849 11849 11860 11863 11877 11874 11870 11879 11926 11959 11959 11940 11962 11952 11953 11951 11939 11936 11971 11993 12005 12028 12030 12036 11985 11940 11909 11882 11878 11861 11868 11853 11828 11806 11795 11818 11837 11870 11892 11910 11904 11896 11890 11875 11877 11911 11953 11974 11960 11947 11938 11907 11888 11874 11858 11837 11805 11806 11783 11768 11737 11743 11780 11809 11861 11878 11918 11952 11961 11963 11941 11929 11957 11975 12008 12012 11999 11968 11945 11927 11895 11889 11902 11912 11923 11905 11871 11866 11857 11865 11903 11927 11937 11959 11994 11990 11992 11981 11976 12003 12020 12041 12048 12034 12031 11996 11972 11962 11942 11939 11929 11937 11938 11905 11880 11847 11851 11864 11874 11869 11893 11907 11925 11929 11931 11929 11958 11991 12002 11989 11965 11948 11906 11878 11855 11845 11837 11855 11860 11866 11846 11838 11826 11850 11877 11879 11897 11929 11946 11945 11957 11946 11955 11982 12001 12013 12019 12018 11993 11970 11921 11901 11898 11897 11897 11896 11894 11873 11852 11851 11868 11898 11922 11951 11962 11960 11975 11970 11954 11967 12007 12029 12052 12053 12049 12043 12014 11989 11976 11966 11952 11967 11985 12003 11981 11971 11952 11975 11994 12004 12012 12021 12047 12060 12050 12019 12019 12044 12079 12100 12099 12100 12086 12055 12037 12029 12024 12016 12009 12007 11971 11940 11929 11907 11925 11946 11986 12009 12041 12066 12067 12095 12076 12096 12116 12146 12172 12168 12157 12162 12138 12122 12106 12091 12088 12077 12068 12068 12055 12033 12024 12018 12038 12060 12055 12077 12091 12092 12104 12109 12102 12108 12151 12165 12182 12174 12156 12127 12096 12076 12062 12054 12036 12042 12038 12019 12006 12004 12013 12040 12056 12056 12035 12026 12033 12020 12026 12012 12034 12054 12075 12082 12082 12073 12053 11998 11966 11962 11951 11931 11938 11945 11933 11915 11896 11885 11904 11933 11945 11954 11965 11951 11952 11949 11958 11969 11987 12012 12030 12043 12039 12034 12009 11991 11953 11923 11908 11899 11903 11891 11878 11844 11851 11853 11887 11919 11936 11973 11996 11985 11967 11958 11953 11968 12005 12034 12054 12050 12051 12020 11998 11974 11975 11961 11943 11911 11899 11873 11855 11846 11852 11886 11911 11940 11959 11988 11990 12000 11986 11969 11975 12009 12028 12049 12037 12023 12012 11995 11969 11960 11953 11953 11941 11909 11892 11877 11876 11868 11884 11902 11923 11946 11974 11988 12003 12017 12012 12033 12045 12062 12057 12035 12035 12029 12025 12013 12017 12006 12013 12030 12032 12015 11997 11972 11978 11974 11982 11984 11975 11992 12003 12008 12004 11991 12023 12052 12068 12081 12083 12060 12048 12002 11977 11958 11944 11934 11943 11939 11922 11900 11903 11885 11870 11878 11891 11887 11915 11915 11931 11946 11945 11950 11971 11987 12007 12016 11998 11966 11926 11876 11841 11830 11839 11856 11868 11883 11869 11863 11854 11853 11864 11877 11876 11875 11895 11893 11899 11884 11881 11870 11912 11931 11948 11949 11952 11934 11889 11843 11818 11810 11805 11821 11853 11867 11864 11856 11841 11846 11878 11901 11905 11899 11886 11875 11878 11870 11870 11876 11911 11927 11934 11936 11922 11902 11891 11862 11845 11824 11840 11858 11850 11831 11800 11797 11802 11818 11850 11861 11897 11941 11956 11972 11971 11965 11969 11994 12023 12054 12066 12049 12039 12015 11991 11979 11988 11973 11976 11974 11937 11916 11911 11912 11925 11949 11973 11986 12013 12028 12033 12043 12043 12050 12079 12092 12120 12112 12115 12090 12076 12070 12049 12045 12039 12035 12027 12023 12008 11988 11969 11982 11987 12003 12016 12033 12060 12060 12084 12091 12097 12118 12158 12180 12176 12170 12148 12120 12085 12068 12052 12040 12028 12016 12013 11999 11976 11961 11980 11994 12017 12042 12073 12104 12136 12142 12136 12134 12176 12190 12213 12212 12207 12173 12116 12066 12039 12011 11981 11971 11962 11938 11920 11902 11897 11902 11920 11931 11920 11896 11896 11889 11909 11912 11923 11925 11948 11957 11955 11940 11907 11871 11827 11785 11756 11745 11759 11774 11774 11768 11747 11730 11755 11764 11796 11819 11827 11819 11804 11764 11747 11740 11736 11764 11779 11789 11799 11796 11775 11748 11716 11709 11694 11663 11652 11663 11662 11637 11614 11620 11635 11673 11690 11712 11720 11734 11725 11698 11672 11670 11673 11698 11726 11721 11708 11688 11654 11623 11609 11615 11602 11610 11607 11598 11567 11551 11541 11551 11593 11620 11637 11657 11679 11677 11688 11696 11677 11686 11699 11723 11728 11719 11704 11676 11647 11638 11626 11634 11649 11687 11689 11666 11654 11637 11655 11673 11700 11717 11730 11750 11768 11781 11779 11783 11799 11826 11859 11875 11880 11881 11852 11841 11825 11826 11816 11805 11807 11811 11813 11782 11766 11760 11780 11803 11823 11847 11873 11892 11897 11900 11904 11898 11920 11960 11983 11984 11995 11973 11954 11951 11930 11924 11915 11916 11914 11923 11906 11911 11915 11921 11938 11966 11951 11953 11961 11964 11969 11961 11970 11991 12038 12073 12083 12076 12057 12032 12001 11986 11977 11972 11969 11951 11954 11937 11922 11913 11923 11934 11963 11966 11971 11977 11972 11988 11989 11977 11985 12015 12051 12064 12067 12077 12061 12024 12009 11976 11950 11946 11929 11921 11911 11883 11881 11874 11896 11919 11965 11983 11994 11979 11983 11967 11957 11962 11995 12021 12048 12045 12051 12045 12018 12005 11977 11967 11944 11918 11902 11883 11858 11844 11831 11846 11872 11886 11894 11917 11932 11931 11926 11908 11917 11943 11958 11968 11976 11969 11951 11910 11904 11882 11866 11866 11844 11804 11786 11752 11726 11719 11721 11745 11761 11781 11818 11840 11854 11872 11871 11864 11884 11904 11914 11934 11913 11901 11890 11859 11850 11826 11820 11825 11827 11811 11789 11762 11749 11748 11773 11783 11815 11831 11868 11881 11889 11892 11883 11896 11929 11955 11956 11965 11960 11940 11936 11911 11917 11911 11913 11918 11906 11921 11900 11888 11871 11874 11884 11892 11886 11902 11910 11923 11934 11943 11943 11982 12003 12014 12026 12002 11988 11980 11983 11961 11967 11953 11951 11939 11918 11914 11895 11889 11882 11898 11898 11911 11925 11943 11952 11955 11966 11956 11960 11998 12032 12064 12072 12060 12056 12037 12017 11996 11980 11978 11974 11969 11960 11941 11938 11941 11952 11959 11957 11970 11977 11979 11976 11975 11982 11980 11991 12028 12058 12066 12065 12056 12041 12012 11991 11982 11959 11956 11944 11927 11919 11904 11874 11888 11913 11931 11929 11940 11949 11972 11966 11965 11958 11982 11994 12039 12048 12058 12044 12043 12003 11960 11945 11916 11899 11900 11888 11873 11854 11837 11814 11841 11882 11896 11922 11910 11892 11868 11877 11874 11864 11884 11912 11930 11932 11915 11923 11887 11855 11822 11786 11769 11755 11762 11749 11733 11702 11685 11683 11698 11727 11740 11758 11768 11767 11736 11735 11709 11730 11748 11772 11793 11797 11766 11741 11707 11678 11668 11666 11663 11648 11657 11648 11627 11628 11641 11653 11666 11670 11669 11680 11708 11702 11710 11696 11679 11697 11724 11728 11738 11737 11737 11700 11688 11680 11675 11691 11703 11738 11718 11678 11664 11672 11686 11711 11741 11754 11781 11792 11807 11811 11811 11806 11815 11828 11857 11882 11868 11868 11852 11821 11811 11793 11787 11803 11808 11805 11803 11788 11764 11772 11789 11797 11814 11839 11863 11868 11886 11897 11895 11902 11950 11965 11981 11986 11980 11964 11933 11929 11922 11925 11923 11921 11917 11918 11909 11895 11893 11916 11930 11943 11949 11968 11973 11985 11982 11987 12005 12023 12049 12067 12101 12081 12077 12071 12054 12040 12036 12035 12021 12015 12008 11981 11984 11974 11982 11984 11993 11980 11986 11981 11975 11963 11966 11968 12005 12026 12072 12084 12076 12065 12032 11985 11953 11926 11910 11901 11880 11880 11851 11821 11816 11821 11844 11871 11882 11883 11882 11876 11865 11854 11851 11870 11885 11900 11915 11905 11895 11871 11816 11768 11722 11708 11703 11711 11717 11709 11696 11663 11673 11696 11726 11734 11734 11723 11712 11705 11713 11721 11724 11750 11770 11782 11783 11780 11742 11701 11669 11637 11604 11583 11575 11582 11606 11590 11571 11574 11607 11658 11712 11744 11731 11742 11713 11685 11647 11617 11624 11648 11655 11668 11664 11652 11623 11587 11554 11560 11544 11548 11528 11528 11512 11492 11479 11467 11467 11493 11491 11500 11526 11551 11579 11577 11555 11557 11597 11613 11632 11624 11613 11590 11563 11541 11526 11522 11536 11548 11539 11530 11511 11502 11513 11526 11556 11592 11610 11635 11647 11674 11701 11706 11701 11733 11760 11772 11781 11780 11770 11754 11728 11708 11707 11704 11710 11721 11740 11733 11721 11720 11745 11764 11786 11808 11811 11827 11826 11838 11841 11853 11865 11886 11913 11938 11955 11945 11934 11917 11899 11899 11893 11885 11889 11890 11889 11879 11864 11871 11893 11905 11908 11922 11930 11936 11944 11931 11940 11944 11979 12009 12036 12042 12035 12033 12007 11985 11967 11968 11966 11963 11958 11942 11926 11930 11925 11943 11955 11963 11968 11969 11974 11974 11964 11972 11959 11990 12033 12047 12063 12053 12037 12006 11985 11954 11935 11909 11910 11885 11860 11834 11827 11810 11826 11847 11871 11890 11883 11884 11895 11906 11908 11900 11939 11959 11981 11978 11982 11961 11932 11912 11869 11845 11799 11780 11759 11749 11727 11705 11695 11702 11740 11767 11797 11818 11838 11833 11797 11782 11765 11788 11813 11817 11848 11840 11830 11819 11779 11769 11772 11755 11743 11699 11689 11659 11629 11632 11646 11650 11668 11687 11679 11690 11689 11692 11693 11660 11651 11679 11706 11724 11722 11707 11691 11659 11646 11629 11620 11631 11639 11634 11611 11584 11580 11578 11599 11634 11659 11680 11685 11705 11707 11727 11733 11732 11737 11769 11785 11801 11792 11792 11776 11753 11728 11723 11729 11729 11735 11742 11740 11725 11719 11725 11753 11775 11805 11821 11844 11854 11855 11849 11861 11870 11897 11920 11951 11954 11947 11951 11939 11929 11915 11910 11901 11907 11900 11899 11884 11882 11892 11899 11921 11930 11942 11944 11944 11959 11962 11963 11963 11982 12004 12039 12060 12073 12076 12039 12028 12006 11995 11975 11968 11960 11936 11925 11913 11904 11904 11911 11904 11914 11918 11919 11931 11927 11922 11917 11945 11973 12004 12021 12025 12021 11993 11952 11930 11916 11882 11878 11864 11867 11837 11822 11799 11814 11825 11848 11849 11841 11845 11841 11850 11855 11866 11857 11882 11902 11915 11922 11908 11905 11857 11817 11781 11761 11762 11766 11772 11780 11763 11763 11744 11764 11808 11838 11865 11856 11848 11831 11834 11842 11852 11849 11882 11900 11932 11914 11909 11899 11876 11848 11817 11786 11776 11787 11783 11786 11768 11776 11788 11794 11808 11801 11823 11813 11816 11795 11795 11795 11792 11789 11829 11855 11876 11893 11890 11874 11864 11848 11822 11804 11784 11757 11750 11728 11707 11684 11680 11691 11710 11745 11759 11765 11756 11764 11741 11732 11756 11761 11784 11813 11822 11819 11816 11797 11775 11772 11761 11757 11750 11752 11756 11741 11732 11736 11752 11769 11808 11804 11820 11830 11839 11844 11846 11838 11849 11893 11912 11932 11955 11956 11936 11914 11908 11898 11905 11895 11897 11899 11882 11855 11863 11858 11891 11939 11942 11947 11984 11987 11993 11991 11998 11989 12004 12021 12065 12077 12086 12085 12069 12050 12049 12032 12025 12024 12003 12030 12007 11984 11981 11978 11985 12016 12047 12036 12040 12055 12049 12055 12046 12057 12082 12119 12137 12150 12147 12122 12091 12084 12065 12057 12057 12047 12033 12017 11999 11991 11981 11971 11989 11994 12009 12017 12032 12042 12050 12047 12030 12078 12126 12143 12155 12140 12125 12095 12066 12059 12042 12039 12039 12045 12036 12030 12028 12041 12036 12037 12038 12047 12043 12042 12047 12066 12073 12079 12079 12094 12124 12152 12157 12163 12120 12091 12079 12056 12041 12034 12030 12021 11996 11983 11973 11969 11986 12004 12005 11997 11985 11978 11964 11975 11978 11976 12029 12049 12059 12063 12070 12055 12022 11991 11962 11949 11952 11933 11943 11906 11894 11890 11894 11897 11914 11941 11952 11959 11943 11924 11913 11905 11920 11941 11965 11982 11988 11985 11975 11957 11939 11925 11915 11891 11868 11843 11836 11806 11786 11782 11793 11804 11814 11829 11838 11871 11891 11903 11895 11896 11902 11913 11927 11948 11935 11943 11930 11911 11886 11879 11880 11878 11870 11848 11818 11800 11788 11801 11810 11856 11880 11889 11899 11908 11913 11921 11915 11900 11888 11927 11942 11956 11942 11944 11923 11901 11887 11884 11882 11878 11878 11866 11839 11821 11819 11806 11820 11848 11860 11872 11885 11899 11914 11927 11925 11914 11950 11977 11997 11999 11980 11961 11942 11930 11914 11913 11917 11925 11959 11955 11952 11960 11954 11957 11951 11956 11963 11955 11970 11979 11989 11993 11996 12004 12030 12066 12084 12074 12078 12062 12047 12039 12025 12016 12018 12011 12003 11995 11962 11959 11951 11956 11972 11985 11995 12008 12016 12020 12031 12033 12025 12034 12058 12097 12106 12111 12103 12092 12066 12050 12049 12045 12028 12026 12015 12004 11993 11986 11992 11988 12000 12002 12001 12022 12026 12023 12039 12024 12026 12042 12076 12105 12127 12108 12100 12073 12046 12033 12005 11997 11984 11985 11990 11963 11943 11933 11938 11951 11966 11960 11965 11980 11979 11984 11986 11975 11984 11995 12015 12029 12044 12036 12011 11977 11926 11915 11898 11877 11879 11874 11863 11838 11824 11818 11841 11856 11887 11904 11924 11917 11907 11895 11900 11907 11946 11986 12000 12017 12014 12010 11986 11969 11939 11915 11882 11873 11864 11861 11851 11839 11830 11837 11870 11905 11937 11949 11969 11964 11948 11931 11913 11924 11955 11975 11995 12006 12008 11993 11966 11956 11946 11939 11929 11932 11899 11878 11857 11846 11856 11865 11907 11932 11934 11948 11961 11963 11965 11964 11966 11953 11982 12003 12050 12038 12031 12025 12005 11991 11997 11970 11974 11968 11969 11960 11943 11929 11918 11931 11956 11979 11991 11984 11986 11986 11994 12005 12006 12061 12098 12110 12119 12129 12110 12095 12078 12070 12071 12065 12054 12047 12044 12020 12018 12023 12026 12027 12046 12057 12048 12042 12047 12057 12056 12048 12069 12079 12106 12114 12115 12103 12097 12061 12023 12014 12002 11987 11974 11975 11965 11942 11923 11926 11943 11971 12010 12018 12022 12024 12022 12017 12009 12005 12022 12059 12075 12094 12098 12092 12051 12019 11979 11942 11922 11913 11906 11898 11881 11865 11851 11870 11899 11923 11937 11938 11902 11888 11878 11885 11853 11872 11877 11884 11894 11892 11876 11853 11822 11792 11753 11721 11721 11731 11736 11722 11697 11674 11681 11717 11752 11782 11796 11816 11835 11816 11786 11765 11763 11776 11792 11815 11797 11790 11755 11727 11706 11687 11694 11694 11676 11658 11648 11623 11601 11588 11603 11612 11643 11660 11689 11719 11742 11753 11744 11736 11750 11763 11771 11791 11785 11774 11755 11729 11704 11693 11694 11719 11735 11742 11726 11702 11691 11700 11723 11747 11762 11780 11794 11823 11855 11894 11921 11942 11985 12016 12032 12029 12011 11984 11977 11949 11939 11937 11916 11913 11901 11893 11889 11885 11884 11888 11881 11894 11900 11895 11906 11922 11935 11925 11939 11968 11988 12018 12016 12022 12007 11987 11961 11935 11925 11926 11920 11926 11927 11907 11912 11908 11902 11908 11920 11935 11931 11923 11925 11911 11903 11891 11907 11941 11938 11945 11951 11945 11941 11916 11900 11890 11892 11874 11871 11873 11872 11856 11850 11845 11852 11890 11892 11904 11908 11936 11950 11944 11955 11957 11943 11973 11988 12003 11989 11981 11968 11942 11925 11914 11904 11925 11924 11934 11926 11894 11884 11876 11909 11921 11912 11926 11930 11939 11947 11962 11957 11971 12002 12025 12031 12002 11970 11928 11887 11855 11834 11834 11840 11842 11839 11846 11811 11802 11813 11852 11886 11871 11906 11896 11889 11887 11889 11888 11891 11919 11939 11953 11958 11973 11956 11906 11861 11813 11792 11799 11787 11792 11779 11756 11751 11733 11750 11794 11824 11827 11809 11795 11791 11782 11771 11768 11791 11827 11835 11829 11835 11807 11789 11746 11695 11658 11639 11650 11667 11663 11655 11620 11621 11616 11642 11672 11689 11706 11695 11658 11649 11636 11617 11624 11639 11651 11652 11640 11626 11601 11558 11538 11530 11519 11509 11525 11527 11528 11495 11483 11487 11510 11531 11563 11576 11602 11627 11627 11615 11579 11572 11596 11609 11615 11622 11613 11603 11591 11551 11533 11538 11555 11570 11549 11529 11503 11481 11471 11464 11502 11555 11587 11609 11636 11652 11664 11683 11682 11666 11690 11695 11710 11712 11688 11681 11658 11636 11618 11613 11621 11661 11696 11703 11670 11660 11660 11654 11664 11697 11705 11716 11735 11739 11753 11755 11753 11769 11785 11821 11850 11839 11834 11818 11791 11765 11745 11749 11744 11754 11767 11775 11757 11742 11726 11722 11750 11768 11788 11797 11791 11805 11805 11815 11818 11836 11866 11884 11878 11863 11838 11816 11765 11751 11732 11745 11755 11775 11796 11788 11774 11774 11759 11759 11780 11792 11796 11843 11862 11895 11912 11905 11919 11940 11956 11975 11970 11941 11916 11867 11844 11815 11813 11825 11839 11843 11826 11809 11810 11787 11789 11806 11812 11800 11806 11812 11823 11832 11824 11843 11870 11897 11900 11904 11883 11867 11837 11797 11757 11735 11746 11762 11781 11788 11765 11776 11764 11796 11814 11832 11849 11861 11838 11825 11811 11804 11797 11808 11841 11871 11867 11860 11853 11838 11814 11789 11787 11766 11755 11740 11745 11726 11706 11710 11721 11754 11771 11775 11781 11791 11795 11796 11802 11785 11797 11819 11834 11844 11829 11810 11792 11770 11753 11748 11747 11750 11763 11733 11700 11690 11674 11670 11680 11706 11733 11735 11766 11801 11809 11815 11839 11825 11835 11839 11860 11878 11876 11865 11857 11844 11829 11818 11811 11797 11788 11783 11771 11737 11712 11720 11747 11789 11802 11815 11835 11846 11845 11855 11851 11875 11898 11923 11931 11936 11927 11922 11894 11877 11864 11866 11851 11838 11842 11829 11805 11809 11796 11803 11825 11844 11841 11867 11882 11902 11889 11885 11891 11904 11952 11968 11980 11963 11957 11919 11897 11872 11881 11884 11873 11870 11864 11845 11840 11835 11837 11852 11879 11883 11894 11912 11923 11944 11950 11950 11981 12022 12063 12080 12071 12050 12026 12002 11978 11961 11949 11938 11940 11926 11903 11900 11909 11915 11938 11956 11957 11938 11934 11932 11919 11918 11920 11938 11964 11981 11993 11985 11972 11954 11911 11874 11835 11825 11809 11826 11832 11818 11797 11784 11788 11781 11796 11803 11796 11799 11777 11766 11760 11736 11743 11758 11771 11789 11791 11769 11754 11718 11685 11665 11638 11602 11590 11606 11610 11579 11557 11562 11607 11657 11683 11685 11705 11717 11713 11682 11639 11617 11641 11677 11681 11695 11693 11671 11641 11610 11588 11582 11588 11594 11568 11550 11512 11487 11479 11478 11506 11541 11567 11596 11601 11604 11609 11607 11592 11575 11610 11610 11623 11607 11609 11588 11558 11541 11526 11524 11543 11562 11580 11582 11550 11519 11517 11551 11584 11594 11607 11621 11628 11639 11636 11642 11652 11662 11699 11715 11729 11725 11717 11701 11690 11682 11672 11670 11673 11688 11697 11683 11683 11678 11694 11707 11737 11752 11770 11782 11795 11796 11787 11783 11813 11830 11877 11880 11883 11882 11871 11846 11829 11813 11814 11802 11812 11811 11791 11776 11770 11776 11804 11842 11846 11850 11853 11864 11849 11858 11858 11846 11854 11878 11906 11916 11933 11929 11901 11863 11836 11827 11818 11798 11809 11800 11795 11776 11767 11770 11790 11806 11820 11816 11802 11804 11812 11805 11790 11783 11817 11836 11863 11864 11844 11851 11809 11769 11721 11690 11681 11674 11668 11663 11637 11610 11606 11623 11674 11711 11735 11733 11716 11706 11685 11677 11672 11693 11711 11725 11710 11700 11688 11657 11623 11601 11600 11595 11587 11597 11586 11555 11536 11538 11535 11562 11586 11619 11650 11673 11683 11680 11666 11657 11669 11686 11695 11690 11672 11657 11617 11594 11579 11587 11602 11635 11654 11612 11575 11560 11560 11558 11579 11610 11633 11657 11673 11686 11693 11699 11704 11710 11747 11745 11754 11748 11732 11709 11685 11674 11663 11658 11680 11682 11700 11685 11674 11668 11678 11697 11714 11716 11732 11740 11753 11760 11766 11766 11776 11813 11842 11859 11858 11826 11804 11778 11772 11762 11755 11739 11746 11741 11727 11711 11710 11724 11751 11768 11783 11786 11807 11804 11811 11825 11818 11835 11863 11879 11904 11897 11898 11881 11846 11816 11801 11782 11788 11782 11781 11774 11757 11752 11743 11782 11808 11853 11864 11866 11840 11843 11832 11813 11811 11811 11836 11855 11861 11859 11849 11813 11785 11777 11736 11718 11715 11720 11706 11678 11656 11653 11674 11675 11714 11733 11745 11767 11761 11734 11705 11698 11720 11716 11726 11719 11712 11665 11636 11595 11584 11590 11588 11578 11575 11565 11538 11519 11488 11508 11542 11573 11594 11616 11640 11644 11641 11630 11597 11612 11615 11602 11597 11579 11571 11544 11516 11488 11497 11516 11549 11568 11537 11502 11490 11470 11481 11491 11519 11549 11555 11587 11596 11606 11602 11607 11605 11637 11629 11630 11615 11588 11567 11536 11512 11497 11510 11547 11568 11572 11558 11543 11524 11525 11526 11555 11560 11570 11584 11609 11631 11635 11649 11671 11703 11711 11706 11681 11665 11636 11603 11592 11589 11607 11623 11627 11646 11630 11620 11617 11626 11636 11660 11662 11668 11705 11719 11739 11740 11746 11762 11811 11823 11847 11848 11827 11798 11777 11769 11766 11756 11754 11764 11753 11746 11742 11739 11758 11807 11851 11857 11887 11891 11880 11884 11882 11871 11905 11943 11961 11961 11947 11917 11879 11847 11815 11803 11793 11794 11803 11807 11801 11797 11799 11820 11839 11856 11866 11857 11843 11835 11833 11836 11838 11864 11889 11901 11924 11903 11885 11865 11860 11822 11798 11774 11761 11759 11758 11725 11699 11689 11704 11719 11740 11769 11797 11803 11780 11754 11746 11726 11746 11764 11767 11772 11759 11739 11711 11678 11658 11643 11623 11618 11619 11619 11596 11568 11549 11555 11575 11594 11614 11637 11654 11692 11672 11650 11643 11654 11648 11651 11655 11636 11627 11603 11566 11553 11563 11585 11606 11589 11553 11517 11495 11479 11476 11505 11542 11572 11603 11621 11649 11657 11669 11647 11651 11674 11683 11695 11685 11671 11647 11625 11607 11594 11595 11609 11638 11655 11631 11612 11591 11588 11612 11640 11659 11679 11711 11717 11748 11763 11773 11780 11808 11821 11838 11835 11822 11812 11789 11791 11773 11763 11775 11783 11793 11786 11773 11777 11783 11791 11817 11831 11835 11850 11874 11891 11894 11897 11921 11955 11986 11999 12026 12018 12008 11993 11987 11982 11975 11963 11951 11925 11922 11909 11896 11896 11898 11918 11935 11943 11954 11944 11960 11965 11969 11958 11981 12013 12053 12067 12062 12050 12027 11991 11973 11954 11943 11932 11910 11911 11886 11868 11865 11880 11909 11943 11956 11958 11950 11933 11918 11919 11905 11903 11927 11959 11980 11963 11951 11928 11903 11878 11861 11828 11820 11798 11802 11773 11766 11738 11756 11790 11816 11829 11834 11843 11847 11839 11816 11781 11768 11787 11799 11809 11796 11772 11743 11714 11677 11669 11670 11681 11690 11683 11649 11615 11608 11610 11618 11631 11660 11673 11691 11698 11727 11744 11748 11749 11755 11761 11757 11748 11721 11696 11657 11646 11634 11637 11647 11658 11668 11663 11658 11650 11622 11624 11630 11628 11639 11639 11660 11656 11668 11663 11675 11701 11718 11747 11752 11728 11716 11695 11682 11686 11704 11712 11724 11702 11701 11692 11684 11693 11690 11696 11709 11708 11724 11739 11754 11775 11770 11778 11812 11836 11865 11886 11881 11872 11851 11833 11829 11815 11812 11800 11803 11798 11798 11791 11780 11794 11812 11851 11870 11875 11908 11919 11922 11929 11941 11938 11964 12003 12016 12036 12043 12031 12022 12004 12002 11994 11984 11977 11969 11954 11936 11938 11931 11937 11948 11964 11973 11975 11976 11992 11974 11994 11993 12033 12055 12095 12103 12098 12101 12075 12050 12029 12008 11989 11978 11954 11944 11913 11887 11885 11880 11901 11931 11953 11966 11974 11956 11952 11959 11944 11961 11990 12011 12027 12036 12011 12008 11971 11945 11926 11882 11866 11861 11851 11837 11807 11802 11801 11812 11854 11891 11913 11924 11909 11888 11859 11831 11804 11803 11844 11845 11853 11837 11824 11782 11761 11743 11724 11694 11672 11660 11654 11624 11600 11578 11569 11566 11601 11646 11655 11661 11680 11675 11627 11600 11592 11600 11602 11630 11614 11604 11582 11549 11517 11503 11518 11517 11503 11476 11475 11445 11428 11407 11407 11445 11477 11502 11538 11585 11609 11632 11633 11602 11597 11609 11624 11608 11589 11567 11539 11502 11495 11504 11511 11544 11565 11548 11520 11498 11471 11465 11484 11498 11532 11556 11577 11599 11604 11618 11628 11632 11660 11670 11675 11662 11661 11636 11631 11617 11617 11641 11647 11661 11662 11659 11658 11637 11618 11635 11647 11665 11667 11715 11735 11757 11764 11780 11796 11812 11859 11885 11887 11876 11865 11842 11829 11822 11817 11812 11816 11840 11835 11838 11866 11867 11909 11939 11962 11979 11988 12006 12010 12005 12004 12009 12020 12050 12068 12097 12107 12103 12093 12089 12075 12069 12069 12054 12047 12036 12033 12001 12022 12036 12086 12122 12162 12184 12179 12180 12178 12173 12171 12160 12185 12204 12224 12245 12250 12255 12246 12222 12206 12184 12166 12147 12138 12113 12090 12076 12071 12094 12159 12196 12212 12234 12256 12245 12227 12215 12200 12203 12224 12248 12263 12271 12268 12244 12231 12210 12195 12183 12151 12119 12092 12056 12023 12015 12024 12019 12062 12101 12129 12151 12172 12163 12148 12125 12087 12087 12105 12109 12120 12108 12106 12065 12038 12022 11985 11955 11961 11924 11893 11852 11824 11812 11837 11896 11974 12001 12017 12023 12012 12000 11995 11988 11989 12001 11995 11989 11986 11973 11960 11925 11896 11877 11856 11847 11837 11834 11845 11822 11795 11776 11789 11825 11876 11900 11916 11926 11918 11920 11908 11896 11905 11930 11944 11947 11930 11901 11899 11858 11831 11823 11815 11799 11791 11780 11762 11751 11759 11763 11780 11781 11798 11798 11825 11842 11839 11861 11848 11860 11884 11912 11931 11936 11947 11920 11888 11860 11844 11830 11835 11838 11839 11845 11850 11860 11882 11909 11933 11967 11972 11965 11969 11958 11968 11962 11965 11978 12000 12028 12049 12061 12060 12045 12027 12007 11991 11967 11952 11937 11938 11919 11914 11921 11970 12036 12078 12110 12098 12087 12084 12064 12050 12036 12020 12040 12077 12100 12088 12087 12063 12052 12022 11997 11984 11972 11970 11956 11953 11946 11940 11971 12016 12072 12119 12151 12186 12190 12186 12173 12167 12166 12204 12230 12250 12247 12243 12231 12211 12193 12171 12153 12148 12119 12097 12076 12057 12043 12037 12065 12097 12145 12185 12214 12231 12238 12234 12219 12218 12242 12269 12291 12279 12276 12245 12222 12191 12176 12173 12159 12146 12111 12093 12066 12045 12037 12032 12042 12055 12055 12069 12086 12094 12095 12093 12101 12109 12112 12131 12134 12127 12118 12091 12080 12062 12046 12033 12011 12017 12018 11980 11949 11926 11929 11946 11980 11993 12008 12028 12037 12032 12034 12020 12037 12054 12073 12061 12059 12047 12042 12010 11995 11986 11963 11949 11929 11924 11915 11877 11876 11834 11825 11846 11851 11878 11871 11890 11891 11888 11881 11888 11894 11920 11931 11951 11948 11940 11933 11904 11900 11871 11863 11845 11828 11831 11821 11799 11808 11805 11808 11833 11847 11849 11864 11870 11879 11864 11857 11879 11918 11935 11967 11981 11976 11960 11927 11900 11894 11881 11882 11869 11862 11840 11840 11814 11827 11844 11865 11896 11888 11890 11910 11903 11900 11897 11892 11893 11920 11947 11990 12005 12010 11982 11955 11926 11921 11921 11901 11907 11900 11885 11880 11884 11900 11932 11945 11978 11988 11987 11981 11982 11981 11972 11971 11993 12014 12039 12054 12055 12072 12068 12055 12028 12035 12013 12009 11994 11969 11946 11938 11917 11899 11917 11926 11940 11940 11940 11944 11936 11929 11909 11917 11919 11943 11967 12008 11995 12005 11982 11934 11909 11864 11851 11848 11843 11829 11797 11761 11755 11763 11813 11862 11906 11943 11943 11921 11893 11861 11837 11839 11855 11881 11906 11892 11885 11869 11831 11813 11770 11759 11768 11803 11861 11957 12009 12069 12108 12113 12094 12050 12010 11996 12021 12036 12046 12052 12082 12085 12084 12049 12019 11972 12000 12043 12089 12114 12116 12160 12147 12148 12140 12144 12131 12153 12165 12163 12152 12161 12157 12081 12024 12057 12082 12068 12046 12026 12001 12015 12011 12012 11995 11987 11994 11990 12000 12030 12094 12130 12179 12226 12254 12303 12346 12358 12381 12415 12434 12457 12459 12452 12465 12455 12439 12413 12390 12358 12342 12303 12295 12280 12275 12269 12271 12257 12240 12235 12224 12218 12194 12177 12151 12140 12127 12126 12139 12140 12153 12165 12173 12166 12156 12158 12165 12153 12135 12120 12107 12105 12092 12088 12085 12076 12067 12048 12054 12056 12047 12047 12050 12054 12040 12019 12008 12005 12020 12009 12005 11990 11987 11982 11980 11967 11956 11968 11963 11938 11935 11924 11913 11902 11909 11904 11889 11895 11899 11905 11894 11914 11933 11934 11933 11921 11910 11906 11881 11868 11852 11860 11855 11857 11858 11871 11879 11908 11939 11934 11919 11882 11850 11845 11816 11828 11814 11816 11821 11820 11827 11844 11859 11866 11853 11832 11784 11733 11705 11703 11689 11670 11670 11663 11668 11678 11683 11681 11682 11665 11638 11596 11585 11575 11564 11573 11581 11602 11636 11649 11683 11723 11737 11747 11750 11723 11703 11682 11678 11676 11680 11714 11722 11742 11774 11787 11799 11805 11811 11814 11795 11787 11771 11771 11778 11777 11799 11836 11857 11871 11874 11872 11866 11864 11848 11832 11820 11808 11810 11823 11841 11866 11899 11917 11929 11939 11927 11933 11946 11948 11921 11910 11894 11872 11882 11889 11902 11937 12000 12042 12092 12167 12249 12321 12359 12366 12353 12336 12339 12316 12300 12277 12264 12253 12247 12247 12241 12228 12230 12205 12169 12114 12052 11993 11959 11945 11928 11917 11905 11890 11884 11868 11834 11818 11793 11740 11693 11646 11612 11573 11543 11524 11505 11517 11514 11493 11471 11443 11408 11383 11348 11285 11243 11216 11187 11167 11144 11108 11094 11037 10997 10983 10978 11010 11059 11092 11071 11032 11000 10964 10953 10975 10960 10948 10930 10916 10904 10902 10902 10897 10883 10845 10819 10785 10742 10712 10671 10623 10593 10584 10625 10669 10749 10806 10830 10801 10780 10761 10785 10799 10778 10763 10768 10760 10739 10742 10738 10732 10727 10719 10691 10635 10586 10533 10495 10460 10490 10534 10591 10637 10686 10705 10683 10682 10657 10621 10600 10588 10587 10582 10576 10561 10526 10516 10477 10464 10461 10453 10443 10410 10360 10323 10287 10287 10321 10374 10430 10465 10518 10530 10524 10513 10519 10532 10527 10505 10491 10486 10490 10482 10465 10457 10442 10437 10437 10436 10446 10431 10397 10359 10341 10337 10379 10434 10509 10570 10618 10618 10634 10659 10688 10745 10754 10741 10726 10749 10740 10739 10726 10743 10744 10774 10791 10814 10809 10793 10774 10759 10745 10741 10767 10816 10852 10887 10879 10868 10871 10867 10886 10904 10922 10923 10927 10936 10934 10933 10951 10954 10977 10994 11007 11015 11009 11005 10998 10983 10961 10948 10933 10924 10911 10890 10868 10835 10817 10805 10809 10807 10814 10806 10774 10730 10692 10650 10618 10607 10625 10642 10684 10713 10699 10690 10690 10689 10714 10733 10749 10769 10776 10761 10727 10729 10731 10752 10754 10734 10726 10715 10701 10679 10653 10628 10622 10511 10335 10222 10204 10248 10302 10362 10420 10460 10562 10670 10767 10832 10867 10905 10921 10961 10991 11008 11015 11018 11046 11083 11124 11176 11222 11287 11310 11336 11350 11357 11356 11386 11408 11437 11462 11469 11486 11495 11543 11595 11650 11706 11740 11765 11789 11803 11819 11837 11849 11875 11886 11903 11925 11939 11960 11985 12005 12027 12057 12071 12090 12129 12141 12178 12189 12207 12220 12264 12295 12339 12365 12403 12417 12450 12475 12500 12497 12497 12499 12492 12500 12504 12528 12523 12527 12523 12521 12523 12509 12514 12510 12496 12504 12496 12488 12501 12505 12506 12522 12507 12504 12469 12447 12418 12402 12376 12378 12374 12366 12367 12361 12342 12320 12278 12251 12189 12153 12122 12104 12090 12063 12082 12071 12094 12113 12136 12163 12203 12213 12195 12185 12171 12174 12197 12225 12237 12252 12273 12294 12308 12292 12296 12303 12304 12275 12270 12267 12280 12293 12295 12301 12333 12388 12395 12428 12440 12452 12474 12472 12480 12481 12463 12446 12444 12448 12476 12492 12489 12483 12461 12444 12429 12396 12360 12332 12330 12343 12384 12438 12469 12476 12458 12463 12469 12486 12501 12477 12433 12394 12344 12317 12297 12276 12275 12265 12243 12218 12198 12172 12153 12127 12067 12016 11966 11919 11893 11913 11902 11880 11897 11902 11911 11908 11922 11921 11884 11861 11836 11825 11808 11805 11794 11779 11736 11724 11720 11729 11726 11705 11670 11615 11605 11579 11598 11616 11641 11641 11628 11648 11640 11628 11616 11616 11610 11590 11564 11524 11499 11486 11465 11424 11389 11374 11346 11340 11333 11308 11281 11237 11216 11223 11230 11242 11237 11240 11238 11232 11220 11205 11205 11217 11225 11205 11198 11160 11117 11085 11046 11035 10998 10991 10995 10992 10980 10967 10923 10895 10887 10881 10872 10845 10834 10829 10850 10858 10856 10858 10841 10831 10805 10783 10739 10708 10676 10653 10642 10674 10717 10779 10812 10830 10795 10788 10766 10752 10725 10690 10649 10619 10617 10610 10602 10606 10592 10604 10600 10598 10588 10575 10550 10519 10494 10466 10471 10503 10562 10609 10659 10663 10638 10637 10625 10630 10627 10617 10600 10613 10639 10641 10660 10655 10660 10673 10680 10684 10681 10667 10643 10628 10605 10601 10588 10597 10658 10701 10718 10706 10717 10738 10763 10765 10758 10741 10730 10717 10714 10716 10728 10732 10758 10760 10760 10755 10733 10709 10680 10661 10645 10645 10647 10667 10692 10703 10688 10669 10653 10661 10631 10611 10597 10580 10577 10582 10589 10603 10602 10602 10623 10651 10655 10648 10614 10571 10537 10533 10526 10534 10584 10618 10658 10697 10696 10696 10697 10681 10663 10644 10629 10621 10621 10615 10605 10612 10606 10610 10634 10648 10658 10660 10630 10598 10581 10557 10549 10543 10544 10570 10577 10580 10556 10562 10560 10539 10531 10521 10512 10503 10508 10521 10547 10556 10549 10566 10593 10612 10634 10615 10601 10583 10561 10542 10542 10553 10580 10628 10656 10665 10688 10703 10705 10691 10682 10694 10690 10686 10692 10690 10691 10692 10710 10748 10755 10784 10803 10809 10809 10799 10798 10799 10788 10787 10806 10834 10831 10840 10861 10877 10891 10906 10916 10914 10917 10911 10908 10917 10912 10921 10935 10965 10987 10992 10996 10996 10987 10976 10977 10977 10971 10968 10982 10957 10955 10963 10970 10974 10997 11005 11007 11007 11002 11017 11022 11012 11011 11037 11067 11105 11113 11119 11124 11101 11091 11089 11074 11073 11074 11080 11075 11068 11077 11092 11108 11129 11168 11178 11163 11164 11163 11156 11155 11152 11158 11167 11190 11193 11172 11139 11106 11073 11048 11020 11009 11003 11006 11001 10994 10997 11029 11036 11029 11011 11003 10990 10978 10992 11005 11027 11041 11064 11067 11095 11114 11118 11092 11042 10995 10939 10900 10882 10861 10861 10876 10885 10889 10903 10915 10930 10942 10964 10963 10949 10956 10937 10967 10976 10973 10983 11035 11052 11072 11063 11045 10994 10933 10884 10854 10824 10808 10794 10789 10771 10773 10788 10796 10830 10833 10828 10815 10822 10830 10838 10873 10882 10901 10909 10922 10963 10952 10932 10924 10893 10863 10828 10811 10796 10818 10827 10822 10832 10848 10875 10890 10913 10920 10923 10937 10933 10950 10971 10998 11011 11044 11056 11091 11108 11120 11117 11105 11088 11067 11041 11022 11018 11034 11047 11043 11045 11051 11052 11075 11104 11123 11139 11161 11180 11184 11192 11188 11215 11243 11277 11312 11307 11318 11290 11265 11242 11233 11224 11206 11188 11168 11157 11149 11144 11133 11158 11208 11235 11259 11289 11295 11337 11382 11418 11448 11485 11536 11584 11617 11652 11643 11615 11591 11562 11551 11514 11505 11502 11482 11468 11463 11460 11468 11496 11530 11565 11599 11628 11653 11676 11694 11712 11764 11816 11862 11865 11841 11806 11760 11718 11678 11655 11640 11634 11625 11614 11604 11607 11570 11545 11556 11538 11533 11536 11525 11509 11515 11520 11523 11531 11565 11590 11591 11575 11533 11486 11429 11382 11363 11336 11322 11325 11318 11306 11307 11337 11339 11309 11279 11270 11239 11244 11276 11284 11300 11308 11320 11342 11346 11358 11310 11254 11165 11101 11044 11006 10999 10998 11016 11027 11033 11052 11068 11067 11077 11070 11051 11060 11054 11060 11066 11084 11087 11096 11129 11141 11158 11143 11126 11094 11060 11048 11011 10998 10979 10979 10988 10982 11011 11014 11031 11042 11055 11077 11094 11098 11105 11092 11102 11100 11110 11137 11160 11195 11194 11193 11171 11147 11122 11097 11083 11070 11063 11060 11050 11059 11085 11088 11076 11083 11099 11110 11109 11129 11136 11135 11141 11143 11149 11180 11208 11204 11196 11176 11136 11108 11087 11081 11057 11063 11058 11068 11072 11099 11116 11146 11190 11216 11252 11251 11243 11255 11256 11250 11250 11281 11314 11329 11342 11326 11318 11302 11266 11245 11203 11184 11166 11152 11154 11130 11135 11137 11140 11156 11151 11167 11180 11181 11180 11177 11191 11203 11228 11265 11279 11305 11285 11259 11229 11206 11161 11106 11076 11049 11054 11057 11054 11034 11040 11045 11042 11063 11069 11080 11095 11081 11074 11081 11094 11102 11122 11148 11164 11167 11149 11152 11117 11092 11068 11035 11002 10974 10946 10932 10902 10829 10742 10696 10669 10651 10641 10619 10614 10637 10661 10649 10638 10642 10643 10636 10622 10589 10555 10527 10507 10486 10479 10478 10464 10482 10506 10521 10519 10527 10534 10559 10583 10596 10580 10585 10576 10566 10563 10538 10552 10566 10584 10603 10605 10604 10604 10589 10598 10601 10606 10600 10579 10576 10561 10549 10543 10531 10538 10536 10545 10544 10530 10524 10532 10523 10511 10516 10532 10546 10554 10560 10537 10530 10514 10493 10504 10500 10494 10501 10491 10485 10468 10437 10431 10428 10424 10427 10426 10423 10422 10424 10431 10453 10444 10449 10444 10451 10484 10580 10635 10677 10695 10704 10705 10712 10742 10783 10800 10793 10765 10758 10736 10729 10732 10731 10723 10712 10736 10752 10735 10729 10731 10760 10773 10804 10806 10807 10808 10809 10787 10767 10768 10754 10768 10794 10806 10786 10767 10761 10769 10775 10813 10828 10838 10851 10855 10847 10824 10836 10820 10837 10842 10863 10850 10859 10853 10839 10842 10822 10825 10839 10854 10894 10919 10904 10901 10901 10915 10927 10945 10954 10964 10968 10971 10978 10972 10981 10980 11010 11042 11070 11069 11073 11086 11074 11075 11072 11059 11061 11057 11052 11041 11033 11036 11021 11015 11020 11014 11023 11025 11023 11026 11019 11021 11035 11080 11091 11106 11085 11085 11071 11063 11051 11039 11035 11021 11018 11006 10986 10996 10978 10954 10944 10953 10940 10939 10941 10936 10935 10933 10934 10965 11003 11019 11025 11012 10993 10975 10957 10940 10922 10915 10913 10905 10900 10909 10880 10866 10847 10834 10839 10841 10821 10821 10810 10807 10820 10800 10801 10816 10825 10846 10837 10814 10788 10761 10727 10708 10692 10702 10711 10712 10718 10696 10690 10669 10677 10663 10650 10642 10647 10648 10657 10649 10645 10654 10670 10692 10716 10708 10692 10678 10647 10619 10609 10614 10634 10656 10682 10699 10690 10681 10697 10682 10683 10681 10685 10667 10673 10668 10695 10708 10714 10716 10742 10747 10768 10768 10736 10747 10723 10709 10706 10697 10723 10745 10760 10764 10757 10755 10755 10758 10750 10741 10751 10757 10787 10788 10808 10809 10813 10841 10868 10890 10902 10902 10907 10893 10888 10874 10867 10866 10876 10891 10903 10885 10883 10884 10882 10899 10902 10908 10894 10906 10911 10916 10905 10904 10912 10939 10957 10983 10971 10964 10964 10947 10956 10930 10937 10933 10926 10916 10896 10897 10884 10883 10877 10881 10899 10901 10903 10890 10894 10875 10870 10885 10879 10893 10894 10892 10866 10848 10823 10793 10782 10762 10778 10797 10825 10822 10790 10793 10779 10786 10752 10738 10728 10716 10709 10706 10680 10675 10669 10674 10670 10682 10675 10649 10610 10588 10561 10550 10572 10623 10664 10692 10709 10711 10707 10702 10715 10718 10728 10726 10719 10709 10714 10710 10700 10694 10692 10707 10705 10707 10714 10709 10673 10646 10626 10623 10627 10634 10665 10678 10688 10666 10660 10667 10685 10719 10722 10716 10726 10745 10752 10757 10752 10760 10795 10817 10819 10826 10819 10818 10780 10751 10747 10727 10731 10742 10748 10744 10732 10718 10727 10727 10729 10725 10720 10726 10729 10724 10737 10732 10733 10741 10746 10763 10764 10757 10762 10738 10711 10692 10683 10697 10715 10728 10728 10711 10704 10695 10700 10706 10722 10720 10739 10745 10732 10738 10726 10734 10745 10759 10763 10772 10755 10756 10739 10731 10711 10695 10696 10703 10744 10765 10766 10747 10735 10755 10775 10781 10785 10780 10796 10776 10771 10748 10743 10746 10753 10766 10767 10764 10751 10724 10708 10699 10697 10700 10711 10720 10729 10741 10715 10696 10690 10718 10737 10755 10757 10773 10782 10767 10756 10722 10707 10684 10691 10688 10669 10646 10616 10594 10588 10591 10641 10695 10739 10744 10708 10682 10666 10653 10641 10632 10640 10655 10670 10686 10702 10706 10710 10713 10710 10720 10712 10704 10678 10660 10642 10613 10606 10627 10657 10692 10696 10689 10679 10655 10628 10635 10652 10680 10702 10710 10730 10747 10767 10776 10748 10752 10750 10747 10759 10732 10719 10699 10677 10658 10657 10678 10707 10716 10717 10690 10669 10655 10648 10654 10667 10669 10678 10701 10697 10717 10713 10706 10702 10717 10713 10723 10704 10704 10684 10671 10661 10658 10668 10701 10710 10710 10685 10670 10656 10647 10661 10691 10707 10727 10752 10765 10778 10786 10784 10779 10798 10810 10823 10820 10811 10814 10806 10792 10787 10797 10810 10846 10870 10867 10844 10843 10839 10857 10872 10870 10884 10894 10891 10883 10893 10886 10888 10912 10924 10947 10948 10943 10946 10935 10937 10918 10931 10929 10939 10941 10945 10937 10929 10925 10928 10938 10946 10935 10952 10947 10962 10960 10961 10967 10980 11011 11015 11026 11019 11019 11011 11010 10996 10995 10988 10999 11002 11012 10995 10992 10983 10985 10985 10983 10974 10972 10988 10981 10988 10977 10974 10999 11010 11028 11032 11033 11025 11009 10993 10991 10972 10971 10974 10973 10974 10973 10967 10953 10949 10956 10969 10971 10952 10940 10942 10930 10923 10928 10940 10968 10970 10967 10964 10960 10938 10936 10919 10903 10891 10899 10913 10914 10893 10880 10868 10865 10888 10884 10889 10890 10896 10888 10869 10860 10854 10852 10863 10877 10878 10882 10878 10863 10857 10848 10843 10830 10864 10888 10893 10875 10870 10857 10846 10852 10863 10881 10872 10875 10879 10870 10875 10868 10877 10900 10918 10923 10925 10919 10908 10904 10899 10891 10889 10885 10894 10907 10915 10906 10909 10892 10886 10884 10885 10901 10883 10879 10891 10891 10888 10896 10901 10935 10937 10943 10928 10905 10885 10896 10864 10864 10863 10864 10869 10873 10849 10842 10844 10838 10837 10834 10837 10823 10820 10816 10825 10833 10814 10819 10805 10816 10818 10810 10796 10770 10756 10754 10786 10823 10862 10880 10898 10864 10848 10705 10446 10257 10194 10168 10170 10167 10161 10147 10159 10160 10147 10126 10093 10099 10094 10094 10096 10091 10088 10093 10095 10102 10114 10127 10150 10134 10140 10151 10150 10168 10161 10168 10159 10144 10138 10122 10121 10124 10153 10168 10164 10158 10164 10158 10167 10154 10160 10153 10164 10167 10181 10188 10192 10216 10324 10515 10643 10707 10746 10759 10788 10833 10857 10894 10926 10981 11071 11170 11235 11257 11278 11311 11312 11322 11327 11314 11301 11300 11277 11271 11252 11232 11230 11219 11208 11203 11207 11181 11172 11170 11162 11149 11156 11162 11210 11271 11328 11380 11410 11426 11426 11434 11422 11407 11435 11446 11453 11441 11432 11424 11438 11451 11492 11518 11564 11597 11631 11659 11679 11714 11726 11755 11780 11791 11820 11831 11852 11845 11821 11815 11796 11773 11755 11740 11724 11696 11667 11643 11610 11589 11558 11535 11516 11508 11492 11485 11486 11505 11524 11546 11538 11512 11483 11450 11420 11397 11373 11344 11319 11303 11285 11252 11229 11227 11191 11158 11130 11105 11113 11123 11134 11139 11132 11141 11148 11152 11171 11161 11148 11139 11114 11088 11075 11063 11080 11120 11163 11192 11191 11178 11169 11166 11163 11155 11122 11111 11130 11137 11145 11144 11156 11164 11189 11196 11198 11214 11220 11200 11169 11154 11116 11099 11110 11116 11120 11105 11116 11106 11108 11135 11164 11165 11145 11139 11133 11141 11135 11146 11150 11176 11190 11201 11206 11225 11228 11229 11205 11183 11162 11135 11164 11196 11204 11206 11215 11245 11270 11298 11331 11361 11364 11356 11360 11353 11362 11373 11403 11422 11436 11424 11426 11419 11416 11407 11414 11392 11368 11382 11368 11359 11345 11352 11347 11347 11353 11357 11354 11365 11372 11377 11380 11372 11388 11419 11433 11443 11450 11455 11453 11463 11460 11454 11453 11444 11438 11426 11428 11408 11410 11417 11413 11413 11431 11424 11435 11433 11423 11428 11430 11452 11477 11501 11514 11532 11516 11511 11516 11508 11511 11504 11489 11490 11471 11465 11452 11449 11453 11447 11455 11466 11462 11481 11484 11487 11494 11489 11499 11507 11528 11556 11584 11576 11579 11577 11573 11574 11569 11561 11549 11533 11514 11506 11474 11485 11477 11473 11472 11470 11461 11465 11462 11459 11450 11442 11431 11434 11445 11460 11461 11471 11478 11477 11471 11462 11442 11431 11414 11401 11391 11346 11311 11298 11282 11272 11275 11276 11279 11307 11336 11355 11378 11394 11408 11425 11443 11467 11479 11491 11493 11486 11484 11476 11456 11431 11405 11393 11342 11311 11284 11276 11280 11281 11286 11306 11337 11337 11353 11364 11356 11358 11352 11359 11373 11370 11362 11360 11353 11338 11320 11300 11291 11289 11293 11269 11228 11198 11179 11162 11148 11144 11131 11122 11114 11121 11137 11124 11125 11127 11123 11121 11108 11098 11095 11068 11054 11044 11027 11026 11046 11069 11099 11093 11067 11055 11057 11068 11094 11112 11122 11126 11140 11143 11155 11158 11167 11188 11216 11212 11226 11230 11234 11232 11228 11223 11220 11218 11238 11265 11264 11264 11246 11240 11262 11251 11263 11277 11292 11306 11313 11319 11327 11332 11348 11367 11396 11408 11410 11412 11418 11412 11416 11407 11406 11403 11414 11413 11420 11407 11399 11398 11395 11405 11403 11409 11415 11415 11417 11418 11428 11425 11444 11461 11472 11491 11498 11505 11507 11503 11499 11484 11495 11510 11529 11526 11525 11515 11529 11530 11526 11530 11527 11539 11540 11536 11535 11550 11563 11586 11612 11630 11632 11630 11617 11598 11578 11564 11546 11535 11517 11517 11502 11482 11472 11483 11520 11568 11695 11854 11927 11955 11974 11971 11967 11991 12050 12126 12186 12234 12259 12261 12259 12242 12204 12176 12144 12112 12095 12065 12042 12015 11984 11963 11944 11933 11908 11889 11897 11882 11890 11884 11904 11933 11949 11982 11992 11968 11947 11921 11877 11817 11787 11748 11725 11693 11678 11656 11636 11618 11615 11638 11681 11686 11687 11680 11680 11679 11674 11688 11710 11736 11755 11777 11768 11754 11728 11706 11673 11642 11607 11585 11572 11560 11536 11517 11537 11555 11617 11676 11747 11811 11846 11857 11859 11852 11860 11891 11924 11940 11966 11967 11956 11959 11939 11899 11835 11801 11761 11741 11739 11730 11709 11690 11676 11696 11663 11676 11677 11676 11663 11648 11650 11653 11658 11662 11659 11663 11653 11640 11630 11612 11604 11600 11572 11552 11534 11527 11515 11507 11497 11496 11513 11538 11557 11563 11586 11603 11616 11604 11633 11648 11676 11713 11750 11765 11772 11787 11795 11791 11778 11780 11756 11749 11721 11695 11663 11646 11630 11619 11615 11616 11604 11614 11604 11592 11581 11574 11549 11559 11578 11581 11579 11581 11581 11560 11554 11552 11544 11528 11533 11516 11496 11480 11460 11465 11447 11448 11441 11441 11423 11430 11424 11413 11409 11406 11410 11403 11411 11410 11397 11382 11377 11371 11358 11355 11346 11347 11345 11325 11317 11288 11279 11262 11264 11255 11238 11230 11225 11200 11176 11131 11058 11007 10966 11007 11035 11012 10977 10945 10920 10910 10888 10878 10884 10875 10885 10897 10868 10855 10842 10845 10849 10846 10843 10839 10874 10882 10908 10916 10928 10928 10936 10921 10899 10859 10825 10799 10784 10754 10748 10793 10855 10891 10895 10895 10877 10866 10865 10867 10889 10892 10881 10860 10847 10845 10831 10857 10847 10863 10857 10835 10818 10787 10770 10741 10732 10736 10761 10815 10871 10904 10912 10917 10929 10941 10977 11013 11025 11010 10987 10969 10959 10943 10927 10916 10915 10915 10903 10882 10859 10842 10827 10810 10803 10791 10779 10799 10797 10781 10792 10799 10786 10766 10751 10728 10700 10694 10693 10713 10704 10717 10736 10761 10766 10776 10778 10779 10772 10767 10756 10741 10736 10769 10786 10782 10794 10775 10796 10803 10801 10794 10797 10791 10778 10768 10769 10769 10758 10757 10764 10772 10782 10786 10771 10756 10747 10729 10728 10736 10755 10789 10820 10819 10801 10796 10796 10784 10793 10783 10775 10786 10776 10766 10759 10765 10763 10773 10783 10778 10782 10792 10781 10774 10768 10757 10752 10773 10784 10818 10841 10823 10818 10822 10824 10845 10861 10870 10855 10850 10843 10850 10861 10860 10869 10889 10890 10920 10916 10922 10901 10896 10889 10872 10886 10867 10877 10912 10940 10953 10984 10988 10992 10993 10974 10961 10946 10938 10927 10926 10941 10938 10951 10982 11015 11036 11039 11028 11006 10990 10954 10917 10887 10863 10843 10827 10817 10819 10823 10819 10809 10825 10825 10820 10817 10796 10783 10784 10756 10748 10735 10729 10730 10722 10703 10705 10695 10678 10635 10631 10631 10651 10675 10665 10648 10656 10653 10674 10686 10684 10689 10694 10705 10689 10669 10668 10674 10673 10664 10680 10679 10659 10655 10652 10636 10639 10654 10668 10666 10670 10665 10640 10633 10624 10631 10635 10645 10649 10639 10641 10649 10650 10643 10633 10629 10626 10631 10627 10627 10607 10606 10585 10586 10583 10611 10642 10676 10673 10650 10631 10612 10614 10631 10629 10633 10616 10619 10617 10612 10634 10631 10607 10614 10608 10624 10610 10607 10612 10594 10583 10586 10590 10612 10658 10694 10693 10668 10654 10644 10666 10685 10678 10683 10683 10697 10696 10705 10717 10710 10719 10740 10742 10756 10749 10742 10731 10725 10720 10729 10727 10753 10772 10753 10747 10739 10717 10719 10740 10731 10743 10746 10744 10734 10735 10732 10727 10723 10747 10756 10781 10758 10744 10723 10726 10730 10732 10741 10752 10762 10760 10752 10745 10746 10741 10755 10749 10742 10736 10740 10743 10728 10738 10741 10752 10772 10780 10816 10847 10848 10838 10832 10823 10807 10801 10797 10815 10812 10821 10799 10789 10783 10790 10780 10772 10779 10782 10766 10768 10773 10767 10758 10757 10747 10758 10764 10766 10739 10732 10713 10708 10711 10714 10739 10750 10738 10742 10729 10715 10704 10717 10706 10689 10693 10707 10706 10709 10711 10706 10705 10699 10716 10732 10710 10699 10671 10668 10645 10650 10670 10708 10719 10729 10723 10738 10726 10732 10746 10738 10715 10723 10724 10730 10738 10756 10744 10739 10744 10738 10756 10747 10720 10699 10675 10650 10633 10643 10658 10684 10702 10706 10707 10698 10675 10652 10635 10611 10603 10594 10597 10587 10597 10596 10585 10580 10573 10567 10564 10565 10523 10494 10475 10461 10470 10493 10530 10554 10566 10569 10560 10539 10531 10551 10554 10529 10527 10519 10530 10537 10544 10546 10547 10541 10527 10533 10539 10528 10500 10461 10425 10405 10404 10422 10469 10493 10522 10511 10515 10518 10517 10530 10557 10554 10539 10520 10528 10526 10531 10546 10537 10546 10540 10531 10536 10517 10499 10466 10433 10404 10406 10437 10471 10509 10524 10526 10519 10527 10546 10561 10598 10594 10596 10590 10566 10559 10559 10563 10573 10561 10552 10548 10531 10505 10477 10466 10456 10439 10444 10449 10479 10493 10487 10483 10468 10474 10494 10511 10515 10525 10540 10522 10506 10508 10506 10509 10506 10499 10497 10508 10475 10452 10427 10416 10412 10418 10417 10425 10467 10484 10484 10498 10508 10530 10557 10566 10577 10573 10573 10567 10548 10523 10513 10518 10493 10498 10509 10498 10474 10469 10451 10433 10453 10460 10461 10455 10469 10473 10477 10486 10509 10537 10545 10547 10548 10549 10554 10549 10531 10518 10518 10523 10503 10514 10508 10501 10494 10461 10438 10413 10391 10393 10402 10419 10432 10427 10417 10410 10416 10422 10438 10448 10458 10471 10471 10467 10465 10464 10465 10461 10460 10474 10460 10434 10394 10369 10347 10355 10363 10388 10434 10465 10491 10509 10520 10550 10580 10587 10599 10602 10601 10607 10575 10558 10545 10547 10540 10531 10511 10508 10485 10458 10426 10409 10410 10450 10482 10499 10496 10508 10495 10484 10463 10466 10476 10495 10517 10508 10525 10543 10544 10533 10512 10486 10477 10470 10456 10451 10435 10424 10404 10406 10410 10453 10503 10537 10544 10507 10473 10465 10455 10444 10448 10452 10452 10445 10470 10485 10496 10518 10523 10508 10487 10479 10472 10468 10452 10447 10434 10434 10453 10494 10545 10579 10607 10625 10617 10577 10580 10577 10587 10598 10585 10600 10625 10627 10626 10642 10639 10640 10638 10639 10647 10654 10628 10633 10620 10618 10602 10636 10671 10709 10740 10763 10782 10798 10803 10804 10813 10805 10805 10806 10790 10786 10780 10790 10783 10802 10806 10830 10831 10819 10815 10803 10778 10764 10745 10759 10783 10814 10824 10813 10797 10802 10809 10788 10800 10776 10755 10749 10735 10724 10719 10712 10690 10688 10669 10668 10657 10654 10644 10632 10617 10591 10593 10597 10623 10641 10635 10602 10593 10574 10583 10580 10596 10591 10593 10585 10560 10558 10545 10529 10506 10502 10503 10496 10488 10483 10481 10460 10460 10457 10473 10496 10538 10551 10554 10556 10542 10527 10513 10515 10500 10496 10511 10510 10484 10476 10476 10484 10462 10474 10474 10475 10458 10448 10439 10431 10420 10449 10469 10475 10497 10517 10499 10498 10500 10491 10496 10488 10496 10487 10506 10513 10496 10487 10469 10462 10460 10449 10466 10454 10434 10420 10410 10406 10408 10435 10452 10470 10493 10518 10518 10516 10515 10531 10525 10514 10504 10520 10509 10522 10524 10511 10515 10510 10511 10521 10527 10526 10533 10536 10516 10520 10537 10578 10615 10642 10647 10631 10627 10619 10614 10606 10608 10596 10587 10593 10587 10606 10593 10596 10601 10605 10614 10619 10630 10621 10615 10599 10580 10583 10591 10606 10627 10667 10688 10683 10672 10650 10655 10643 10641 10630 10633 10622 10627 10631 10648 10639 10633 10631 10637 10656 10642 10634 10611 10597 10572 10578 10595 10646 10680 10700 10727 10709 10703 10701 10684 10686 10668 10662 10659 10645 10634 10656 10645 10621 10619 10609 10616 10623 10620 10607 10592 10561 10565 10568 10564 10599 10630 10661 10665 10646 10643 10639 10652 10653 10668 10680 10660 10648 10647 10646 10629 10608 10605 10596 10594 10585 10592 10577 10567 10552 10549 10537 10540 10562 10567 10588 10572 10566 10558 10566 10565 10564 10545 10546 10542 10553 10557 10539 10526 10527 10540 10544 10545 10551 10549 10547 10529 10501 10492 10511 10547 10618 10673 10684 10712 10750 10773 10785 10795 10790 10771 10762 10741 10724 10709 10695 10678 10686 10684 10665 10673 10661 10661 10651 10648 10662 10655 10688 10707 10744 10762 10759 10775 10823 10868 10875 10852 10836 10815 10807 10779 10766 10746 10746 10730 10736 10754 10747 10734 10729 10714 10695 10685 10673 10730 10787 10824 10854 10867 10863 10910 10932 10976 10985 10984 10972 10961 10938 10935 10916 10912 10925 10946 10968 10981 10994 10969 10943 10919 10903 10890 10875 10871 10901 10942 10974 10974 10988 10999 11002 10976 10952 10942 10934 10933 10940 10935 10922 10920 10906 10914 10913 10907 10899 10891 10871 10857 10840 10829 10839 10867 10888 10901 10902 10881 10866 10865 10874 10886 10885 10873 10869 10873 10866 10877 10874 10858 10851 10869 10886 10894 10877 10873 10860 10841 10833 10831 10849 10878 10894 10915 10909 10887 10873 10871 10869 10871 10857 10848 10851 10856 10857 10871 10860 10857 10868 10870 10888 10884 10863 10855 10839 10819 10816 10807 10835 10868 10892 10899 10871 10866 10863 10889 10898 10910 10901 10903 10898 10914 10908 10904 10891 10890 10883 10879 10868 10864 10867 10837 10807 10798 10784 10795 10818 10837 10853 10836 10821 10812 10817 10839 10844 10865 10873 10909 10919 10932 10946 10957 10960 10970 10961 10967 10987 10978 10968 10947 10941 10921 10913 10922 10932 10952 10958 10939 10941 10935 10938 10946 10945 10957 10952 10956 10934 10925 10908 10896 10876 10869 10862 10851 10849 10836 10831 10805 10790 10789 10783 10779 10803 10808 10815 10794 10787 10794 10804 10809 10806 10811 10805 10782 10780 10786 10792 10776 10778 10774 10791 10800 10815 10814 10832 10830 10828 10841 10880 10906 10942 10958 10941 10941 10941 10948 10946 10949 10958 10957 10948 10945 10962 10953 10955 10946 10948 10943 10921 10915 10904 10909 10892 10887 10888 10895 10890 10917 10923 10927 10906 10902 10903 10913 10900 10904 10906 10916 10921 10903 10906 10909 10891 10906 10901 10901 10915 10915 10916 10905 10906 10910 10903 10913 10940 10952 10968 10944 10938 10933 10944 10945 10956 10962 10959 10969 10964 10967 10972 10973 10965 10957 10966 10974 10981 10960 10949 10943 10940 10934 10954 10961 10972 10994 10984 10954 10938 10937 10939 10950 10968 10978 10982 10993 10993 10972 10955 10944 10935 10927 10911 10911 10907 10902 10884 10867 10854 10846 10844 10859 10870 10886 10892 10874 10853 10850 10868 10895 10889 10894 10901 10907 10910 10905 10889 10859 10859 10868 10867 10886 10898 10892 10872 10848 10836 10821 10819 10840 10837 10841 10825 10820 10820 10827 10852 10851 10855 10855 10862 10856 10843 10866 10844 10834 10826 10822 10832 10831 10815 10810 10801 10791 10780 10786 10798 10818 10853 10847 10819 10800 10781 10798 10798 10794 10800 10793 10804 10802 10789 10783 10758 10751 10751 10739 10736 10714 10714 10718 10701 10701 10711 10702 10710 10726 10737 10745 10720 10715 10718 10729 10732 10742 10739 10744 10732 10735 10725 10706 10688 10676 10663 10655 10645 10651 10658 10639 10638 10629 10634 10646 10666 10686 10701 10701 10691 10676 10671 10680 10690 10685 10683 10681 10671 10667 10656 10651 10650 10636 10642 10625 10639 10638 10633 10615 10608 10592 10588 10592 10615 10648 10672 10680 10660 10657 10655 10671 10660 10656 10653 10663 10672 10666 10671 10664 10661 10666 10667 10676 10683 10671 10664 10642 10633 10624 10617 10635 10666 10692 10704 10692 10688 10685 10664 10665 10672 10665 10666 10680 10695 10731 10767 10785 10779 10799 10783 10797 10783 10784 10764 10753 10743 10732 10727 10735 10758 10775 10769 10763 10755 10745 10752 10767 10754 10756 10747 10752 10747 10737 10736 10720 10726 10726 10723 10725 10725 10712 10698 10679 10672 10682 10708 10735 10761 10766 10753 10741 10744 10765 10756 10764 10757 10757 10747 10748 10738 10734 10730 10715 10712 10714 10715 10719 10711 10696 10696 10683 10671 10666 10666 10700 10704 10698 10676 10663 10660 10664 10671 10668 10673 10656 10650 10645 10663 10664 10672 10670 10671 10692 10683 10651 10633 10620 10591 10573 10566 10557 10579 10596 10585 10562 10538 10529 10530 10518 10533 10535 10520 10524 10506 10508 10504 10502 10488 10497 10494 10493 10490 10475 10472 10461 10448 10428 10430 10448 10482 10511 10506 10490 10473 10462 10470 10479 10476 10485 10465 10465 10452 10458 10466 10468 10455 10457 10454 10456 10456 10464 10455 10430 10429 10425 10423 10448 10477 10494 10490 10484 10469 10473 10473 10488 10501 10494 10507 10507 10482 10488 10482 10480 10479 10470 10473 10478 10470 10481 10465 10474 10453 10464 10480 10499 10520 10524 10516 10513 10497 10497 10507 10505 10516 10512 10506 10502 10502 10503 10503 10501 10489 10484 10493 10492 10499 10497 10488 10485 10488 10485 10506 10545 10577 10598 10586 10590 10575 10584 10583 10577 10580 10578 10580 10564 10581 10569 10565 10563 10566 10558 10576 10571 10567 10567 10581 10569 10578 10584 10595 10614 10608 10597 10563 10573 10573 10571 10569 10569 10565 10564 10568 10565 10559 10544 10540 10523 10523 10528 10525 10523 10523 10526 10535 10529 10530 10544 10556 10556 10536 10511 10499 10497 10493 10504 10503 10514 10521 10525 10564 10626 10665 10699 10705 10692 10676 10652 10643 10619 10601 10580 10563 10543 10557 10568 10580 10546 10515 10489 10476 10483 10467 10476 10472 10467 10466 10470 10475 10479 10464 10474 10430 10417 10406 10379 10364 10327 10310 10299 10313 10346 10379 10401 10446 10469 10497 10503 10510 10513 10512 10495 10481 10473 10453 10450 10460 10456 10440 10444 10442 10441 10434 10401 10380 10379 10366 10354 10354 10383 10428 10443 10458 10436 10437 10426 10412 10408 10405 10398 10401 10397 10406 10423 10447 10445 10429 10428 10431 10429 10416 10420 10405 10387 10385 10378 10393 10424 10446 10448 10429 10418 10411 10413 10421 10430 10415 10417 10420 10416 10419 10431 10412 10414 10406 10412 10424 10424 10423 10411 10407 10408 10405 10415 10451 10484 10492 10497 10470 10466 10456 10462 10463 10462 10457 10460 10445 10451 10452 10465 10466 10460 10452 10444 10442 10449 10434 10424 10418 10403 10397 10425 10467 10491 10506 10491 10481 10460 10460 10461 10471 10446 10451 10452 10448 10452 10475 10480 10475 10462 10454 10455 10458 10445 10426 10414 10390 10400 10409 10437 10463 10478 10481 10463 10450 10435 10432 10443 10447 10441 10437 10444 10459 10481 10495 10481 10469 10464 10470 10468 10461 10452 10447 10434 10431 10429 10446 10479 10508 10531 10499 10478 10479 10481 10478 10471 10467 10470 10467 10471 10460 10459 10454 10445 10435 10439 10448 10442 10441 10442 10437 10436 10432 10434 10451 10474 10491 10472 10457 10461 10465 10468 10470 10478 10492 10504 10516 10508 10509 10496 10487 10477 10473 10475 10475 10475 10476 10481 10474 10474 10475 10485 10496 10518 10530 10522 10533 10532 10548 10533 10525 10533 10539 10534 10539 10532 10518 10502 10489 10485 10481 10473 10468 10467 10455 10444 10452 10443 10458 10480 10497 10519 10476 10458 10444 10438 10445 10427 10428 10420 10419 10415 10427 10423 10419 10420 10403 10392 10380 10362 10348 10342 10328 10314 10312 10336 10356 10389 10414 10414 10398 10351 10344 10337 10334 10318 10320 10317 10320 10337 10337 10346 10341 10339 10327 10316 10296 10272 10244 10219 10206 10206 10219 10253 10277 10293 10312 10305 10280 10279 10273 10270 10253 10239 10233 10241 10225 10229 10231 10228 10219 10210 10200 10202 10211 10204 10197 10171 10155 10155 10187 10228 10258 10281 10268 10252 10254 10250 10260 10265 10263 10258 10255 10240 10258 10264 10261 10247 10249 10254 10240 10244 10245 10242 10229 10226 10236 10243 10266 10306 10323 10332 10315 10309 10311 10320 10328 10324 10344 10355 10354 10352 10358 10362 10353 10351 10359 10349 10349 10360 10355 10364 10367 10382 10378 10376 10399 10432 10435 10437 10419 10416 10417 10411 10422 10427 10424 10418 10411 10413 10413 10414 10401 10406 10398 10403 10411 10415 10410 10410 10413 10417 10428 10418 10427 10435 10439 10426 10406 10413 10408 10413 10416 10417 10424 10440 10454 10449 10463 10459 10463 10454 10458 10477 10468 10485 10485 10482 10484 10496 10527 10559 10573 10568 10556 10537 10517 10511 10511 10500 10514 10504 10510 10499 10495 10486 10475 10448 10428 10404 10411 10392 10384 10379 10365 10362 10353 10343 10361 10376 10390 10375 10357 10337 10317 10325 10333 10327 10327 10320 10316 10310 10310 10319 10301 10292 10275 10254 10250 10241 10241 10222 10221 10205 10210 10210 10236 10258 10278 10246 10224 10207 10206 10204 10199 10191 10206 10199 10189 10190 10196 10198 10186 10173 10157 10139 10119 10110 10108 10085 10090 10094 10119 10134 10175 10200 10189 10178 10159 10143 10135 10134 10130 10141 10145 10144 10153 10162 10170 10182 10161 10163 10164 10161 10143 10134 10118 10116 10112 10135 10163 10198 10213 10204 10204 10200 10207 10207 10201 10198 10205 10221 10220 10207 10206 10216 10214 10207 10210 10212 10219 10211 10209 10199 10199 10195 10189 10203 10230 10260 10281 10266 10271 10257 10257 10261 10259 10251 10259 10261 10245 10250 10241 10251 10235 10241 10240 10252 10252 10261 10266 10252 10252 10249 10254 10272 10299 10305 10305 10294 10289 10296 10303 10303 10299 10308 10291 10291 10300 10313 10317 10310 10297 10287 10297 10294 10293 10288 10272 10267 10253 10254 10259 10282 10298 10297 10292 10272 10267 10276 10271 10262 10225 10210 10174 10173 10176 10169 10112 9993 9883 9827 9811 9815 9799 9805 9802 9802 9783 9783 9807 9808 9817 9787 9784 9771 9797 9820 9846 9852 9867 9880 9881 9885 9898 9910 9910 9905 9902 9902 9907 9914 9909 9903 9884 9857 9846 9849 9854 9864 9868 9856 9876 9908 9963 9978 10006 10051 10059 10062 10086 10127 10175 10189 10195 10190 10195 10188 10194 10186 10165 10165 10148 10118 10069 10046 10020 10017 9986 10022 10050 10090 10151 10175 10191 10230 10233 10247 10237 10237 10254 10249 10236 10238 10231 10216 10189 10170 10149 10135 10130 10113 10089 10065 10053 10016 9991 10007 10017 10052 10079 10081 10113 10136 10159 10184 10205 10242 10254 10239 10252 10246 10237 10214 10201 10188 10184 10206 10216 10225 10210 10204 10162 10154 10152 10154 10169 10174 10196 10211 10254 10285 10327 10376 10410 10416 10387 10380 10374 10368 10366 10359 10349 10344 10334 10322 10302 10295 10307 10287 10272 10266 10273 10284 10303 10292 10313 10320 10346 10344 10359 10373 10393 10398 10376 10368 10363 10381 10374 10357 10343 10348 10345 10328 10334 10328 10325 10304 10300 10299 10286 10313 10318 10325 10333 10355 10361 10364 10378 10377 10389 10386 10390 10388 10381 10371 10371 10367 10370 10363 10364 10358 10371 10356 10317 10291 10282 10279 10302 10350 10402 10441 10480 10494 10494 10510 10523 10541 10536 10535 10536 10552 10542 10535 10527 10519 10512 10524 10508 10492 10482 10452 10429 10418 10419 10408 10412 10422 10439 10442 10454 10463 10466 10473 10474 10484 10486 10475 10469 10465 10444 10421 10414 10387 10391 10377 10376 10369 10379 10354 10336 10348 10335 10333 10364 10377 10378 10380 10399 10393 10403 10403 10405 10403 10395 10397 10378 10368 10371 10350 10335 10312 10300 10284 10284 10304 10297 10282 10255 10254 10252 10269 10293 10301 10294 10329 10342 10367 10382 10377 10375 10364 10353 10343 10336 10333 10340 10315 10299 10290 10273 10275 10276 10280 10256 10237 10243 10251 10260 10287 10320 10333 10359 10356 10368 10381 10376 10375 10375 10373 10379 10371 10364 10363 10365 10360 10349 10329 10322 10308 10308 10279 10248 10245 10238 10246 10285 10312 10330 10346 10357 10342 10331 10324 10329 10327 10325 10331 10332 10322 10307 10294 10291 10279 10272 10290 10296 10296 10284 10237 10248 10280 10298 10329 10358 10376 10406 10436 10440 10443 10453 10458 10462 10462 10462 10470 10462 10459 10444 10443 10447 10433 10439 10450 10449 10447 10429 10408 10407 10398 10400 10388 10384 10389 10401 10410 10414 10430 10436 10430 10432 10426 10434 10422 10428 10414 10406 10404 10402 10397 10390 10391 10399 10389 10374 10352 10348 10335 10346 10360 10370 10368 10381 10382 10406 10426 10423 10417 10414 10412 10413 10406 10404 10391 10377 10355 10350 10358 10385 10394 10394 10347 10320 10302 10277 10282 10293 10282 10288 10303 10310 10313 10316 10309 10314 10298 10283 10254 10236 10217 10195 10178 10164 10152 10151 10173 10217 10273 10313 10305 10273 10247 10235 10235 10232 10226 10220 10233 10237 10236 10242 10259 10259 10224 10197 10168 10155 10132 10104 10077 10067 10063 10068 10113 10150 10180 10209 10194 10176 10172 10183 10212 10224 10225 10224 10241 10261 10274 10282 10280 10280 10265 10258 10241 10213 10183 10148 10125 10120 10090 10098 10130 10178 10219 10242 10221 10205 10188 10181 10186 10182 10185 10186 10193 10216 10243 10269 10294 10292 10270 10263 10252 10238 10209 10210 10200 10198 10179 10183 10212 10259 10283 10285 10285 10289 10267 10279 10306 10305 10305 10316 10316 10326 10339 10379 10411 10452 10492 10532 10590 10594 10570 10553 10538 10521 10508 10492 10482 10500 10511 10503 10490 10478 10504 10525 10565 10609 10633 10684 10726 10773 10799 10832 10853 10860 10881 10889 10926 10932 10947 10943 10939 10934 10930 10929 10908 10906 10899 10888 10875 10863 10868 10866 10876 10880 10892 10917 10942 10959 10973 10973 10984 10995 11013 11034 11037 11043 11067 11049 11030 11007 10998 10975 10958 10942 10934 10913 10901 10887 10896 10918 10932 10929 10939 10949 10954 10952 10964 10957 10976 10988 10991 11000 10981 10955 10931 10902 10876 10846 10820 10801 10795 10802 10804 10790 10785 10768 10751 10743 10729 10730 