42575 42616 42637 42663 42697 42735 42706 42679 42646 42632 42602 42541 42507 42507 42548 42564 42623 43136 43240 43267 43288 43318 43334 43336 43343 43314 43315 43351 43354 43364 43398 43408 43373 43305 43262 43254 43245 43255 43273 43265 43265 43274 43263 43274 43298 43305 43316 43341 43320 43260 43200 43137 43101 43079 43075 43084 43073 43060 43082 43169 43303 43378 43428 43482 43526 43536 43532 43508 43470 43473 43475 43465 43474 43484 43481 43500 43518 43526 43538 43562 43584 43602 43626 43582 43518 43470 43437 43451 43473 43525 43556 43599 43656 43705 43708 43718 43714 43715 43744 43777 43770 43734 43727 43685 43673 43701 43749 43754 43778 43778 43812 43804 43810 43793 43803 43793 43794 43776 43720 43696 43672 43675 43695 43733 43756 43699 43614 43590 43606 43634 43679 43694 43719 43729 43765 43773 43781 43731 43752 43741 43733 43733 43723 43771 43771 43817 43839 43860 43835 43847 43832 43836 43848 43849 43845 43836 43859 43851 43840 43821 43811 43825 43802 43788 43751 43770 43752 43757 43762 43798 43811 43836 43915 43944 43936 43905 43876 43885 43877 43889 43883 43874 43860 43840 43845 43862 43846 43857 43844 43817 43786 43753 43708 43674 43685 43659 43639 43632 43607 43606 43599 43594 43605 43600 43594 43586 43554 43479 43384 43323 43280 43242 43215 43167 43133 43091 43063 43058 43056 43058 43046 43043 43024 42992 42917 42850 42806 42771 42905 42984 42919 42866 42792 42697 42606 42542 42503 42471 42475 42507 42505 42494 42548 42602 42702 42798 42885 42976 43045 43118 43164 43219 43273 43320 43347 43390 43415 43415 43406 43441 43452 43476 43500 43519 43555 43572 43589 43612 43638 43671 43678 43728 43751 43750 43726 43711 43698 43690 43726 43741 43748 43765 43769 43799 43819 43822 43825 43834 43851 43863 43823 43762 43724 43712 43712 43736 43733 43730 43741 43752 43783 43783 43791 43800 43819 43828 43843 43821 43731 43694 43676 43675 43686 43700 43696 43709 43730 43736 43759 43771 43783 43806 43808 43850 43869 43808 43752 43722 43701 43719 43740 43744 43741 43754 43774 43766 43788 43799 43816 43840 43863 43878 43850 43773 43735 43701 43691 43686 43701 43697 43704 43716 43726 43736 43743 43773 43782 43786 43813 43841 43816 43723 43664 43612 43600 43607 43616 43609 43609 43605 43619 43648 43656 43671 43688 43702 43736 43746 43760 43732 43637 43586 43552 43539 43560 43560 43567 43580 43582 43611 43614 43636 43646 43675 43703 43720 43752 43760 43680 43615 43574 43568 43573 43598 43611 43602 43617 43644 43653 43700 43761 43787 43806 43811 43838 43866 43796 43726 43680 43675 43666 43683 43701 43709 43725 43721 43751 43766 43780 43807 43837 43856 43888 43888 43884 43823 43776 43758 43764 43771 43768 43784 43787 43797 43825 43840 43851 43879 43891 43908 43935 43948 43969 43897 43839 43813 43811 43820 43840 43830 43849 43841 43856 43877 43910 43924 43932 43951 43981 43992 43972 43874 43845 43815 43807 43833 43837 43837 43835 43842 43852 43872 43876 43893 43913 43935 43944 43928 43861 43802 43777 43778 43775 43803 43794 43814 43808 43831 43847 43849 43874 43888 43921 43944 43939 43856 43796 43779 43778 43786 43798 43819 43815 43830 43835 43852 43872 43891 43902 43911 43920 43901 43841 43778 43775 43772 43786 43785 43850 43853 43868 43873 43890 43890 43901 43922 43940 43951 43882 43803 43747 43734 43730 43735 43739 43738 43745 43752 43753 43776 43797 43801 43832 43836 43865 43799 43724 43690 43647 43648 43662 43678 43674 43685 43705 43715 43732 43737 43768 43789 43805 43829 43800 43722 43664 43640 43612 43631 43625 43623 43631 43631 43649 43655 43690 43686 43719 43743 43780 43808 43757 43708 43719 43719 43739 43769 43801 43814 43844 43865 43899 43920 43944 43971 44001 44018 44041 44054 43952 43901 43883 43866 43880 43878 43880 43896 43907 43913 43928 43943 43946 43961 43984 43983 44013 44021 43963 43891 43847 43838 43821 43843 43847 43843 43847 43870 43864 43888 43907 43926 43938 43948 43971 43981 43966 43872 43817 43790 43790 43788 43798 43798 43817 43835 43846 43868 43898 43915 43928 43969 43986 44005 44010 43966 43935 43904 43874 43886 43901 43899 43918 43928 43951 43961 43992 44011 44018 44033 44070 44092 44088 44010 43974 43958 43965 43974 43999 44006 44055 44064 44086 44111 44125 44156 44164 44196 44214 44214 44199 44107 44071 44046 44041 44060 44073 44065 44074 44081 44099 44109 44116 44139 44135 44172 44202 44174 44101 44027 44004 43995 43991 43999 44006 44014 44018 44047 44064 44066 44096 44099 44139 44145 44172 44075 44008 43993 43981 43967 43984 43980 43984 43998 44013 44024 44056 44054 44081 44087 44123 44128 44095 44006 43985 43961 43961 43978 43977 43978 43985 43992 44012 44018 44037 44054 44069 44071 44103 44094 44029 43949 43924 43917 43923 43918 43926 43930 43918 43950 43949 43970 43981 43998 44019 44037 44049 43996 43927 43877 43850 43838 43858 43846 43869 43871 43904 43899 43910 43935 43964 43979 43990 44015 44020 43965 43853 43772 43851 43901 43910 43920 43913 43908 43939 43964 43974 44015 44010 44040 44045 44065 44056 43985 43925 43900 43882 43889 43906 43897 43889 43895 43907 43933 43956 43986 43998 44003 44021 44049 44007 43917 43844 43816 43790 43787 43788 43781 43787 43786 43795 43801 43819 43847 43860 43873 43899 43917 43842 43787 43721 43708 43685 43697 43701 43704 43692 43717 43733 43749 43772 43782 43799 43804 43849 43858 43807 43714 43677 43658 43645 43666 43657 43663 43653 43666 43692 43694 43716 43727 43745 43763 43781 43789 43732 43656 43606 43578 43560 43560 43555 43588 43589 43602 43614 43628 43643 43658 43678 43707 43716 43726 43682 43585 43529 43496 43465 43448 43461 43454 43441 43450 43471 43496 43514 43544 43577 43621 43657 43713 43713 43631 43560 43539 43536 43544 43543 43548 43582 43622 43645 43644 43672 43664 43685 43702 43732 43742 43772 43691 43620 43569 43513 43456 43393 43301 43138 42916 42544 41596 40788 40444 40185 39953 39748 39519 39303 38921 38492 38055 37700 37382 37070 36780 36516 36250 35984 35754 35591 35426 35241 35053 34890 34778 34655 34442 34193 33969 33790 33616 33499 33421 33358 33284 33230 33169 33127 33089 33035 33015 32981 32942 32841 32634 32457 32306 32201 32141 32079 32048 32033 32012 32010 31992 32049 32066 32089 32069 32078 32007 31874 31760 31692 31696 31728 31773 31800 31862 31915 31938 31974 32009 32077 32128 32184 32110 31975 31851 31718 31574 31426 31278 31147 31185 31375 31561 31753 31893 31960 32005 32018 31946 31784 31620 31519 31450 31422 31429 31428 31410 31450 31488 31516 31549 31572 31590 31610 31639 31608 31484 31395 31374 31413 31478 31538 31601 31664 31712 31783 31859 31951 31999 32032 32050 32067 32093 32051 31903 31756 31672 31617 31614 31595 31578 31520 31473 31433 31362 31293 31225 31158 31102 31100 31208 31327 31388 31337 31277 31257 31267 31310 31367 31393 31409 31445 31473 31500 31578 31644 31670 31723 31738 31679 31467 31319 31245 31214 31197 31260 31301 31329 31403 31477 31544 31545 31406 31259 31229 31259 31366 31405 31388 31333 31226 31251 31279 31310 31394 31583 31838 31935 31845 31693 31647 31720 31802 31947 31993 31862 31800 31874 32061 32398 32812 33118 33252 33226 33062 32856 32739 32744 32666 32633 32447 32348 32430 32559 32937 33577 34091 34353 34415 34419 34334 34387 34621 34748 34604 34361 34128 34012 34029 33955 34195 34445 34601 34739 34742 34691 34455 34308 34275 34263 34078 33847 33602 33447 33405 33536 33775 34069 34276 34356 34251 33928 33775 33611 33508 33444 33306 33040 32874 32951 33229 33563 33919 34209 34156 34107 33903 33742 33646 33660 33642 33367 33096 33035 33184 33512 33905 34302 34364 34498 34540 34176 33979 33955 34043 33971 33878 33858 33869 34037 34280 34586 34830 34949 34872 34840 34728 34631 34704 34736 34804 34790 34841 34925 35035 35283 35503 35782 35988 36042 35898 35708 35752 35965 36209 36370 36465 36453 36431 36488 36587 36878 37234 37386 37248 36921 36619 36580 36614 36690 36705 36662 36590 36639 36810 37183 37533 37754 37782 37530 37113 36806 36831 36958 37074 37135 37165 37292 37417 37669 38030 38316 38470 38529 38506 38527 38600 38780 38969 39147 39314 39486 39658 39735 39816 39875 40068 40203 40164 40055 39954 39874 39956 40056 40185 40154 40206 40210 40248 40291 40421 40573 40608 40605 40525 40406 40350 40349 40413 40469 40513 40531 40594 40547 40527 40647 40770 40850 40891 40789 40482 40338 40350 40483 40632 40696 40620 40377 40060 39827 39817 39939 40060 40101 40064 39779 39303 38986 38896 38911 38848 38674 38385 38155 37972 37929 38020 38176 38262 38200 37879 37491 37240 37166 37170 37003 36707 36269 36036 36012 36147 36335 36559 36758 36901 36884 36739 36749 36705 36701 36619 36505 36501 36432 36348 36371 36502 36700 36892 37011 36865 36582 36393 36338 36393 36475 36531 36341 36205 36120 36083 36283 36587 36868 37029 36996 36687 36051 35712 35556 35577 35600 35373 35140 35101 35049 35256 35531 35729 35765 35647 35434 35090 34929 34864 34875 34857 34686 34482 34448 34500 34545 34679 34868 35021 35005 34984 34738 34585 34557 34680 34864 34919 34764 34515 34345 34294 34291 34439 34632 34794 34875 34919 34889 34939 35165 35419 35585 35569 35508 35252 35168 35180 35233 35287 35398 35566 35625 35677 35514 35526 35626 35741 35824 35754 35707 35680 35633 35687 35865 36051 36412 36590 36585 36533 36402 36439 36599 36794 36789 36686 36488 36432 36413 36528 36633 36786 36960 37011 36848 36552 36249 36189 36211 36298 36407 36329 36127 35954 35872 35867 35888 35924 36018 36084 36079 35996 35826 35757 35694 35662 35648 35602 35514 35437 35455 35455 35521 35610 35711 35828 35829 35621 35346 35196 35112 35077 35083 35066 35053 35043 35049 35168 35378 35524 35615 35626 35443 35049 34743 34573 34603 34633 34606 34456 34338 34484 34738 34943 35165 35365 35632 35893 35823 35518 35258 35171 35196 35235 35158 35059 34874 34822 34798 35017 35371 35661 35904 36075 36183 36196 36157 36130 36131 36193 36258 36316 36410 36562 36666 36746 36924 37185 37433 37566 37387 37087 36989 36940 37003 37086 37132 37142 37050 37026 37058 37210 37576 37889 38098 38173 38064 37924 37836 37810 37897 38003 38085 37923 37655 37488 37537 37831 38185 38483 38659 38695 38581 38405 38189 38080 38012 37989 37921 37780 37650 37560 37552 37653 37856 38051 38247 38222 38056 37748 37473 37334 37296 37320 37216 37029 36883 36887 36960 37087 37194 37283 37387 37404 37365 37183 36980 36838 36844 36893 36873 36664 36327 36123 36078 36193 36318 36439 36588 36713 36678 36563 36371 36220 36064 35945 35737 35511 35332 35293 35341 35446 35569 35718 35904 35888 35713 35441 35209 35083 35078 35120 35103 34969 34829 34828 34862 34940 34945 35006 35134 35261 35201 35005 34881 34851 34949 35026 34874 34571 34385 34357 34517 34792 34965 35110 35277 35426 35447 35215 35069 34985 35015 35093 35082 34915 34719 34642 34773 34961 35136 35273 35397 35546 35541 35297 35042 35075 35113 35217 35291 35299 35104 34975 34940 34972 35094 35315 35552 35763 35872 35867 35701 35629 35556 35494 35477 35414 35187 35102 35207 35409 35650 35906 36194 36504 36615 36535 36325 36132 36041 36046 36093 36046 35939 35884 35925 35985 36085 36118 36186 36368 36507 36467 36328 36302 36294 36343 36462 36425 36134 35815 35782 35962 36194 36364 36624 36838 36977 36860 36482 36325 36297 36334 36398 36394 36191 35968 35939 36099 36376 36592 36734 36817 36833 36703 36517 36410 36387 36472 36576 36572 36393 36092 35983 36095 36329 36481 36560 36677 36748 36636 36514 36420 36392 36365 36342 36241 36068 35831 35683 35654 35808 35905 36044 36178 36188 35984 35721 35426 35256 35210 35244 35244 35191 35026 34928 34938 34931 34909 34989 35096 35151 35099 34959 34658 34529 34476 34503 34471 34350 34077 33887 33869 34007 34203 34358 34532 34711 34732 34531 34173 33961 33890 33925 34003 34026 33861 33829 33961 34150 34341 34426 34577 34743 34823 34766 34560 34479 34494 34584 34663 34629 34401 34401 34583 34860 35165 35380 35632 35853 36027 35968 35838 35689 35602 35540 35504 35372 35242 35203 35293 35519 35734 35889 36102 36265 36336 36228 36015 36014 36038 36128 36212 36190 35970 35933 36078 36306 36492 36594 36732 36899 36988 36946 36699 36666 36726 36805 36848 36731 36403 36321 36484 36731 36928 37052 37240 37371 37305 37097 36813 36692 36651 36735 36768 36646 36353 36259 36371 36592 36765 36939 37093 37228 37204 37005 36772 36699 36706 36809 36813 36618 36194 36007 36124 36407 36576 36817 37044 37186 37053 36717 36340 36149 36072 36105 36109 36006 35750 35709 35776 35977 36149 36334 36434 36565 36522 36348 36062 36040 36149 36296 36305 36096 35767 35557 35553 35745 35967 36160 36354 36487 36313 35992 35690 35559 35601 35664 35656 35453 35279 35268 35434 35653 35854 36024 36113 36114 35971 35662 35469 35466 35569 35703 35605 35241 34874 34757 34929 35176 35386 35577 35775 35848 35665 35261 35017 34891 34974 35063 35048 34831 34584 34562 34730 34919 35011 35059 35108 35182 35164 34838 34604 34592 34725 34865 34853 34669 34216 34008 34108 34426 34778 35028 35275 35489 35383 35155 34805 34594 34532 34605 34739 34757 34568 34411 34338 34428 34630 34824 34992 35144 35242 35197 34972 34937 34933 34923 34935 34859 34642 34486 34515 34742 35091 35360 35613 35763 35753 35534 35242 35171 35152 35263 35360 35375 35216 35048 34954 35076 35326 35568 35779 35976 35995 35849 35596 35533 35571 35645 35674 35578 35317 35186 35233 35487 35781 35980 36207 36363 36306 36136 35814 35739 35810 35945 36076 36059 35758 35543 35527 35765 36022 36249 36393 36594 36610 36462 36184 35984 35904 35962 35984 35813 35501 35403 35619 35938 36258 36502 36682 36723 36560 36205 36025 35935 36087 36290 36363 36233 35957 35802 35923 36227 36555 36880 37040 37039 36890 36329 36117 36047 36167 36329 36286 36191 36160 36190 36324 36403 36476 36607 36744 36813 36797 36555 36535 36555 36712 36840 36763 36506 36257 36207 36418 36517 36813 37072 37324 37475 37443 37082 36989 36991 37171 37354 37377 37260 37078 36954 36973 36944 37183 37362 37406 37284 37155 36966 36951 36991 37127 37044 36656 36265 36023 35925 35986 36179 36366 36606 36661 36398 35900 35544 35440 35541 35768 35956 35925 35640 35458 35394 35524 35753 36187 36472 36578 36514 36172 36094 36239 36303 36425 36279 35936 35685 35488 35556 35676 36005 36292 36300 36131 35857 35538 35481 35562 35657 35718 35528 35288 35026 34823 34739 34791 34994 35228 35390 35419 35365 35151 35032 34943 34911 34899 34871 34698 34533 34552 34680 34973 35230 35389 35467 35390 35303 35114 35035 35041 35173 35300 35240 34992 34763 34657 34744 34958 35206 35447 35589 35565 35348 35073 34998 35021 35126 35197 35146 35007 34979 35053 35269 35518 35806 36024 36117 36014 35833 35848 36008 36436 36870 37168 37369 37300 37415 37603 37863 38188 38525 38743 38708 38571 38197 38026 38091 38279 38529 38716 38561 38430 38398 38547 38688 38906 39112 39246 39241 39166 38991 38931 39053 39162 39217 39303 39081 38903 38866 38940 38998 39250 39369 39372 39235 38998 38710 38677 38781 38964 39043 38936 38447 38085 37940 38014 38170 38465 38662 38697 38598 38192 37962 37871 37890 37964 37923 37660 37365 37250 37355 37405 37590 37836 37983 37976 37857 37458 37344 37380 37487 37549 37441 37217 36878 36663 36664 36731 36906 37247 37467 37439 37263 36926 36583 36436 36356 36320 36219 36157 36013 35711 35461 35380 35438 35602 35799 35961 35864 35616 35248 34939 34797 34793 34769 34670 34389 34297 34388 34563 34902 35110 35231 35213 35059 34760 34605 34552 34602 34628 34506 34325 34123 34060 34075 34191 34395 34655 34871 34871 34722 34507 34289 34139 34116 34157 34213 34212 34062 33829 33651 33626 33753 33976 34191 34333 34404 34312 33977 33707 33560 33570 33669 33730 33702 33700 33746 33869 33956 34149 34396 34642 34815 34822 34641 34595 34654 34816 34891 34879 34679 34469 34437 34624 34849 35309 35722 36061 36186 35986 35606 35476 35478 35609 35792 35860 35775 35559 35407 35350 35394 35460 35616 35837 35935 35968 35808 35632 35538 35580 35733 35813 35826 35738 35766 35964 36025 36220 36405 36518 36568 36554 36474 36361 36498 36743 36877 36865 36622 36486 36552 36719 36934 37204 37428 37582 37584 37431 37049 36934 36942 37072 37179 37085 36900 36715 36635 36650 36854 37144 37383 37573 37600 37470 37096 37067 37062 37119 37163 37033 36771 36577 36571 36682 36859 37021 37176 37255 37212 37030 36784 36819 36898 37078 37059 36865 36457 36221 36365 36412 36704 37124 37438 37520 37277 36801 36593 36579 36605 36745 36874 36888 36708 36622 36608 36640 36917 37294 37537 37609 37606 37428 37231 37165 37144 37180 37163 36884 36615 36645 36721 36996 37235 37278 37199 37061 36947 36630 36620 36684 36769 36882 36739 36319 35913 35787 35751 35846 36099 36298 36405 36241 35969 35591 35462 35517 35743 35995 36009 35742 35557 35563 35491 35584 35808 36049 36244 36190 36070 35801 35778 35754 35824 35869 35715 35490 35313 35350 35441 35747 36017 36144 36195 36013 35896 35723 35650 35705 35844 35872 35705 35537 35390 35398 35418 35602 35840 36024 36193 36160 35865 35517 35389 35507 35738 35976 36039 35858 35687 35658 35633 35758 35944 36139 36321 36351 36308 36217 36048 36296 36604 36898 37117 37211 37191 37288 37489 37685 38088 38329 38443 38456 38360 38073 37938 38029 38202 38397 38429 38282 37972 37850 37970 38122 38483 38750 38935 38920 38776 38538 38326 38287 38325 38411 38443 38454 38260 38014 37937 37844 37947 38045 38117 38181 38149 37970 37699 37606 37498 37485 37557 37519 37307 37225 37402 37392 37479 37705 37912 38077 38113 38071 38056 37983 38015 38041 38046 38076 37907 37671 37627 37738 37723 37864 38073 38165 38182 38129 38166 37977 38078 38252 38408 38522 38567 38383 37998 37817 37730 37739 37908 38062 38134 38034 37699 37202 36932 36829 36831 36849 36814 36586 36253 35915 35694 35676 35858 36064 36251 36257 36083 35846 35601 35368 35236 35232 35224 35136 35023 34904 34908 34955 35124 35299 35425 35463 35384 35244 35044 34960 34914 34840 34767 34671 34604 34513 34436 34454 34497 34583 34727 34787 34666 34575 34524 34525 34612 34759 34885 34919 34867 34734 34581 34541 34499 34572 34721 34910 35050 34978 34891 34772 34801 34874 34997 35109 35163 35178 35149 35197 35262 35353 35500 35699 35881 35989 36070 35822 35778 35803 35869 35950 35923 35913 35881 35967 35997 36076 36136 36230 36298 36313 36307 36271 36273 36328 36347 36365 36367 36271 36179 36181 36225 36315 36421 36474 36434 36391 36363 36333 36299 36329 36357 36415 36472 36429 36383 36349 36311 36322 36412 36566 36725 36819 36812 36707 36521 36463 36445 36428 36460 36476 36489 36408 36265 36179 36201 36267 36350 36450 36526 36559 36402 36172 36079 36078 36138 36234 36294 36336 36292 36222 36107 36078 36163 36280 36446 36518 36457 36288 36288 36214 36185 36119 36038 35955 35826 35807 35864 35930 36021 36072 36099 36125 36146 36083 36035 36003 36041 36031 35956 35864 35820 35811 35870 35887 35848 35969 36091 36123 36064 35991 35814 35710 35655 35671 35729 35707 35447 35199 35052 35009 35025 35107 35185 35264 35323 35224 35067 34936 34910 34971 35117 35265 35277 35294 35209 35115 35116 35213 35325 35479 35672 35751 35716 35549 35337 35253 35307 35455 35560 35576 35542 35547 35600 35691 35750 35829 36053 36298 36417 36203 36042 36052 36121 36233 36341 36345 36197 36077 36036 36133 36174 36322 36479 36585 36684 36708 36603 36405 36392 36490 36670 36751 36662 36428 36250 36205 36273 36337 36553 36766 36847 36736 36570 36275 36194 36249 36320 36445 36537 36338 36030 35807 35768 35776 35895 36160 36408 36509 36469 36203 35948 35895 35941 36052 36124 36114 35978 35785 35670 35597 35611 35862 36100 36311 36325 36271 35996 35781 35665 35694 35822 35911 35970 35892 35927 36013 36136 36293 36493 36696 36869 36829 36607 36533 36596 36531 36469 36321 36145 36093 35997 35957 35994 35982 36096 36193 36272 36255 36160 36014 35907 35960 36038 36083 35952 35714 35504 35427 35413 35407 35501 35700 35878 35884 35801 35537 35270 35249 35215 35288 35347 35345 35189 34954 34822 34801 34994 35258 35521 35770 35878 35804 35467 35258 35180 35183 35250 35304 35245 35201 35094 34932 34901 35034 35136 35238 35349 35369 35243 35116 35014 34955 34960 35007 35005 34968 34933 34970 34986 35134 35232 35392 35541 35554 35396 35243 35277 35361 35452 35510 35525 35368 35218 35179 35193 35283 35502 35694 35827 35918 35821 35635 35482 35486 35545 35694 35785 35656 35338 35114 35064 35055 35212 35369 35487 35659 35734 35585 35268 35110 35124 35201 35363 35448 35340 35245 35103 35078 35083 35288 35520 35757 35958 36064 35865 35626 35515 35419 35430 35444 35393 35283 35261 35318 35261 35321 35441 35587 35706 35750 35666 35593 35481 35387 35275 35280 35335 35282 35393 35499 35684 35748 35771 35936 36071 36156 36131 36026 35948 35977 36029 35992 36012 35903 35799 35738 35715 35652 35748 35893 36003 36019 36016 35939 35739 35582 35544 35578 35675 35734 35638 35467 35294 35211 35215 35301 35447 35615 35748 35666 35514 35179 34901 34888 34950 35112 35274 35243 35074 34898 34906 35073 35283 35526 35776 35902 35902 35594 35239 35083 35050 35119 35194 35205 35117 35067 35009 34936 35008 35097 35251 35378 35402 35275 35192 35096 35007 34949 34908 34839 34834 34844 34826 34797 34928 35006 35099 35190 35194 35109 35021 35043 35088 35122 35067 34862 34591 34430 34457 34475 34642 34845 35040 35198 35168 34981 34762 34646 34641 34693 34795 34859 34710 34423 34184 34109 34165 34355 34564 34791 35019 35108 34877 34564 34369 34326 34391 34490 34532 34492 34388 34186 34056 34053 34172 34365 34567 34776 34909 34777 34501 34387 34329 34351 34478 34523 34459 34455 34469 34352 34402 34499 34655 34856 34959 34960 34841 34730 34610 34515 34533 34576 34512 34451 34509 34572 34700 34892 35062 35199 35290 35221 35107 35008 34995 35062 35071 35055 34939 34765 34700 34715 34730 34797 34875 35022 35146 35221 35101 34940 34895 34993 35095 35193 35143 34984 34777 34671 34705 34741 34879 34995 35174 35342 35306 35093 34878 34851 34909 34987 35119 35180 35089 34881 34743 34722 34856 35048 35214 35385 35539 35503 35282 34947 34834 34856 34944 35056 35134 35126 35073 34940 34882 34974 35104 35290 35549 35733 35802 35677 35392 35246 35196 35208 35290 35334 35299 35292 35224 35167 35235 35324 35483 35685 35839 35905 35821 35585 35447 35363 35371 35416 35431 35413 35353 35340 35343 35381 35364 35390 35579 35734 35722 35528 35445 35409 35350 35343 35326 35273 35238 35219 35271 35393 35572 35694 35716 35790 35798 35682 35500 35484 35543 35609 35599 35441 35194 35086 35177 35356 35701 35981 36239 36432 36317 36047 35825 35861 35966 36131 36242 36216 35901 35483 35306 35314 35394 35533 35761 36029 36106 35895 35568 35201 35168 35207 35321 35372 35310 35125 34855 34707 34738 34974 35232 35446 35709 35812 35629 35165 34937 34808 34843 34908 34873 34813 34791 34786 34715 34819 34947 35141 35324 35436 35401 35241 34986 34703 34542 34488 34452 34409 34326 34280 34273 34350 34490 34478 34506 34625 34689 34542 34346 34285 34287 34251 34193 34121 34017 33966 33989 34069 34244 34441 34545 34585 34615 34553 34364 34248 34233 34312 34450 34508 34488 34378 34136 34121 34119 34321 34550 34758 34907 34924 34877 34708 34531 34451 34481 34595 34741 34759 34625 34356 34224 34236 34397 34659 34865 35077 35260 35200 34935 34727 34727 34732 34825 34955 34976 34918 34787 34683 34625 34731 34927 35102 35274 35482 35536 35275 34941 34893 34823 34899 35014 35084 35048 34991 34959 34902 35092 35306 35516 35753 36008 36020 35782 35520 35528 35628 35744 35777 35807 35769 35789 35976 35954 36129 36270 36410 36602 36783 36797 36566 36406 36375 36375 36459 36411 36294 36131 36176 36279 36377 36549 36588 36676 36754 36852 36764 36562 36563 36576 36514 36463 36355 36124 35923 35874 36003 36033 36239 36378 36368 36347 36300 36152 35917 35784 35824 35959 36041 36016 35754 35480 35332 35274 35253 35386 35531 35678 35779 35747 35635 35411 35309 35311 35368 35473 35389 35127 34836 34694 34688 34800 35008 35141 35320 35446 35363 35160 34826 34703 34698 34731 34843 34881 34706 34360 34145 34071 34226 34389 34594 34852 35095 35078 34789 34453 34245 34173 34214 34313 34380 34261 33993 33727 33626 33768 33968 34197 34448 34671 34868 34668 34205 33967 33839 33882 34027 34170 34078 33996 33835 33662 33721 33876 34102 34408 34671 34743 34570 34313 34060 33881 33857 33928 33943 33865 33866 33846 33898 34013 34076 34209 34358 34436 34416 34239 34081 34021 33825 33743 33763 33771 33747 33771 33776 33881 34095 34280 34434 34602 34704 34685 34500 34420 34444 34474 34423 34341 34202 34054 34055 34080 34217 34395 34583 34761 34818 34875 34700 34546 34530 34525 34589 34690 34651 34454 34254 34272 34305 34383 34697 35068 35479 35751 35561 35094 34897 34802 34865 34968 34992 34988 34836 34552 34457 34626 34970 35393 35819 36195 36355 36106 35557 35084 34836 34865 34950 34964 34941 34794 34726 34522 34530 34604 34813 35081 35284 35418 35416 35111 34873 34752 34803 34873 34953 34993 34994 35020 35027 34994 34955 34964 35030 35064 35079 34974 35019 35045 35001 34902 34783 34583 34472 34520 34584 34870 35138 35324 35424 35426 35254 35092 35021 35018 35076 35192 35133 34883 34570 34462 34421 34510 34750 34970 35282 35486 35351 35074 34784 34668 34559 34555 34612 34695 34518 34117 33862 33812 33932 34072 34269 34533 34764 34725 34295 33907 33717 33682 33780 33871 33925 33907 33741 33427 33285 33337 33430 33601 33849 34043 34084 33785 33429 33243 33251 33395 33515 33578 33508 33458 33427 33371 33395 33447 33604 33789 33814 33756 33649 33607 33448 33356 33347 33283 33241 33252 33277 33374 33546 33629 33633 33666 33624 33588 33460 33433 33426 33514 33517 33356 33236 33263 33238 33284 33396 33582 33731 33864 33898 33878 33706 33372 33227 33225 33266 33352 33345 33160 32985 32982 33011 33088 33245 33494 33765 33907 33778 33535 33340 33299 33300 33376 33465 33516 33343 33070 32948 33024 33130 33222 33441 33690 33806 33695 33295 33058 33043 33180 33342 33409 33314 33340 33377 33476 33624 33803 34006 34184 34255 34216 34127 34097 34075 34160 34253 34126 33899 33791 33878 34022 34414 34833 35127 35360 35437 35248 34940 34814 35000 35263 35412 35273 34968 34727 34683 34973 35089 35518 35985 36236 36161 35846 35491 35357 35299 35440 35528 35397 34958 34424 34136 34029 34059 34378 34745 35143 35325 35215 34819 34480 34534 34642 34843 35040 34981 34685 34290 34003 33960 34131 34285 34493 34814 34954 34774 34097 33658 33486 33501 33647 33805 33830 33806 33746 33696 33824 34082 34309 34531 34678 34536 34153 33910 33618 33443 33442 33459 33311 33288 33283 33457 33744 33951 34097 34250 34341 34207 33847 33717 33675 33656 33521 33230 32962 32938 33041 33310 33690 34124 34532 34631 34434 34045 33664 33466 33402 33427 33510 33479 33216 32905 32761 32798 33042 33415 33769 34167 34350 34092 33568 33192 33125 33178 33348 33434 33325 33240 33090 33158 33680 34351 34902 35322 35658 35538 35051 34569 34291 34099 34118 34214 34311 34181 34186 34429 34718 35167 35390 35508 35773 35756 35516 35349 35229 35088 34984 34863 34717 34581 34479 34443 34549 34737 34831 34923 35045 35099 34999 34788 34730 34760 34808 34760 34653 34491 34393 34356 34501 34778 35061 35333 35396 35379 35260 34976 34892 35004 35147 35378 35454 35013 34625 34514 34676 35140 35492 35726 35877 35859 35515 34991 34897 34847 34993 35152 35193 35011 34715 34654 34509 34659 34888 35257 35523 35534 35406 35043 34740 34556 34504 34577 34636 34524 34382 34315 34172 34120 34118 34255 34455 34555 34546 34385 34240 34064 33933 33882 33895 33897 33894 33816 33874 34047 34100 34070 34092 34196 34204 34103 34013 34024 34015 33915 33806 33658 33477 33398 33455 33689 33959 34114 34194 34250 34237 34168 33966 33876 33878 33974 34009 33825 33573 33395 33312 33408 33557 33733 33894 34060 34111 34057 33802 33597 33655 33766 33970 34110 33901 33527 33212 33078 33103 33316 33540 33841 34077 34024 33817 33529 33463 33451 33516 33649 33739 33598 33319 33053 33066 33249 33459 33654 33900 34091 34113 33880 33624 33562 33487 33510 33582 33638 33697 33659 33517 33477 33539 33722 34005 34215 34340 34405 34236 34195 34085 34112 34223 34245 34157 34098 34185 34230 34321 34395 34548 34732 34900 34976 34847 34725 34715 34623 34616 34619 34624 34534 34505 34577 34731 34874 34998 35198 35417 35481 35380 35214 35229 35203 35177 35144 35081 34972 34923 34909 34985 35130 35314 35344 35398 35430 35399 35191 35166 35217 35313 35393 35359 35222 35047 34937 34972 35128 35276 35380 35448 35442 35302 35161 34971 34961 35063 35205 35316 35100 34650 34316 34271 34443 34684 34917 35136 35287 35189 34929 34542 34383 34399 34503 34648 34794 34729 34370 34011 33903 34046 34344 34598 34869 35170 35258 34918 34498 34366 34264 34299 34402 34488 34482 34237 33918 33848 33962 34172 34441 34714 34872 34874 34431 33947 33791 33750 33825 33979 34067 34068 34074 33975 33957 34065 34208 34379 34654 34872 34856 34620 34372 34209 34113 34095 34128 34154 34114 34025 34016 34026 34104 34189 34319 34550 34759 34735 34506 34250 34058 33898 33863 33944 34006 33929 33865 33851 33875 33927 34030 34246 34517 34654 34653 34492 34344 34204 34073 33973 33869 33798 33915 33916 33987 34177 34328 34408 34621 34924 35077 34978 34759 34659 34549 34493 34401 34208 34119 34055 34173 34232 34394 34462 34513 34645 34775 34787 34573 34388 34359 34380 34342 34252 34135 33938 33888 33889 33962 34130 34278 34360 34392 34336 34223 34097 34083 34086 34106 34153 34124 33951 33781 33685 33725 33833 34007 34123 34222 34170 34110 34017 33909 33893 33918 33982 34074 34037 33802 33516 33444 33533 33694 33857 34012 34169 34124 33986 33766 33577 33598 33659 33711 33850 33917 33752 33495 33319 33348 33461 33606 33789 33995 34067 33924 33642 33377 33372 33442 33545 33671 33766 33695 33432 33277 33276 33408 33562 33745 33976 34134 33989 33656 33434 33410 33482 33602 33738 33815 33837 33644 33582 33630 33748 33897 34070 34315 34475 34334 33808 33473 33374 33414 33545 33685 33723 33798 33668 33540 33514 33653 33809 33978 34195 34357 34321 33930 33576 33408 33401 33514 33650 33767 33787 33719 33488 33378 33404 33522 33673 33837 34114 34262 34223 33787 33497 33359 33384 33488 33633 33695 33691 33547 33384 33381 33371 33455 33701 33921 33992 33916 33725 33508 33363 33332 33416 33488 33537 33603 33651 33640 33606 33596 33699 33883 34013 34072 33978 33937 33789 33648 33610 33664 33725 33772 33774 33804 33842 33834 33801 33828 33964 34122 34139 34099 34089 34000 33872 33808 33863 33921 33955 33933 33921 33989 34096 34107 34116 34193 34309 34323 34222 34096 34005 33798 33630 33627 33687 33691 33711 33771 33909 34048 34058 34071 34139 34230 34262 34168 34018 34031 34008 33932 33875 33908 33902 33896 33879 33993 34136 34191 34140 34152 34209 34242 34205 34071 34074 34110 34034 33919 33874 33824 33827 33815 33896 34009 34166 34181 34123 34106 34115 34090 34041 34037 34057 34114 34038 33965 33920 33874 33826 33811 33882 34040 34233 34304 34334 34362 34294 34131 34022 33987 34053 34013 33879 33820 33706 33696 33767 33882 34062 34282 34403 34413 34425 34481 34403 34238 34127 34073 34033 33935 33870 33828 33764 33542 33439 33473 33626 33816 33924 33978 34007 34016 33890 33686 33632 33676 33759 33725 33592 33447 33354 33372 33441 33630 33846 34045 34028 33973 33927 33770 33694 33689 33767 33921 34009 33883 33704 33577 33606 33796 34004 34208 34406 34517 34444 34319 34112 33939 33923 33984 34103 34252 34152 33877 33636 33543 33569 33720 33912 34178 34398 34368 34254 34103 33889 33796 33794 33844 33947 33994 33813 33563 33369 33305 33426 33611 33772 33952 34130 34134 33916 33575 33431 33402 33469 33620 33790 33732 33439 33179 33137 33215 33418 33649 33927 34246 34264 33976 33540 33335 33297 33386 33546 33714 33734 33462 33094 32948 32999 33178 33402 33650 33912 33950 33634 33287 33096 33057 33113 33269 33415 33509 33476 33191 33034 33041 33183 33393 33602 33821 33964 33764 33290 33013 32993 33100 33269 33439 33494 33486 33402 33274 33277 33350 33493 33678 33829 33900 33790 33404 33082 32923 32948 33063 33239 33437 33467 33479 33540 33620 33771 33907 34069 34308 34397 34391 34233 33845 33581 33471 33479 33576 33656 33611 33556 33562 33521 33436 33442 33578 33813 33990 34015 33876 33628 33334 33113 33039 33111 33253 33317 33361 33384 33355 33403 33409 33529 33751 33927 33953 33803 33738 33555 33348 33294 33328 33401 33447 33436 33393 33445 33498 33518 33596 33673 33793 33814 33686 33565 33534 33444 33366 33416 33459 33417 33396 33385 33432 33562 33625 33642 33710 33799 33851 33709 33535 33519 33509 33431 33412 33356 33307 33301 33352 33462 33612 33766 33833 33831 33815 33798 33687 33571 33584 33661 33757 33758 33633 33437 33419 33438 33569 33836 34156 34339 34388 34326 34181 34080 34112 34153 34236 34357 34193 33856 33651 33606 33602 33755 34056 34295 34417 34280 34026 33801 33667 33645 33768 33934 34107 34064 33785 33601 33637 33774 34071 34415 34785 35255 35572 35331 34654 34330 34095 34073 34138 34200 34108 33690 33269 33038 33024 33257 33666 34125 34511 34577 34128 33410 32952 32739 32715 32718 32809 33010 33092 32797 32584 32470 32508 32729 32975 33215 33430 33353 32944 32615 32465 32492 32596 32753 32858 32934 32742 32466 32285 32330 32510 32747 33002 33182 33172 32729 32335 32193 32213 32387 32584 32720 32769 32726 32571 32447 32474 32618 32792 32994 33176 33187 32913 32592 32428 32435 32562 32635 32620 32651 32712 32682 32675 32774 32978 33226 33462 33536 33428 33285 33168 33088 32989 32886 32843 32773 32796 32965 33080 33402 33638 33817 33854 33901 33795 33585 33542 33424 33228 33075 33111 33093 33112 33260 33295 33489 33766 33949 34055 34036 33999 33821 33715 33715 33756 33781 33706 33575 33346 33229 33350 33465 33625 33797 33887 33887 33917 33924 33883 33699 33695 33710 33760 33698 33688 33711 33739 33644 33670 33739 33816 33937 33957 33951 34007 34164 34144 34096 34086 34151 34133 34026 33955 33887 33963 34057 34062 34061 34130 34203 34278 34374 34474 34619 34772 34966 35157 35257 35122 34846 34607 34514 34565 34605 34666 34738 34662 34533 34478 34486 34509 34561 34600 34675 34735 34628 34481 34443 34452 34539 34669 34856 35130 35395 35317 35101 34939 34876 34893 34964 35023 35037 34942 34620 34364 34235 34235 34332 34461 34608 34703 34680 34520 34382 34328 34318 34348 34397 34417 34456 34440 34249 34116 34121 34215 34281 34280 34262 34275 34156 33957 33873 33908 34029 34167 34286 34367 34412 34254 34008 33884 33870 33907 33979 34048 34140 34209 34026 33818 33702 33671 33678 33734 33821 33909 33930 33738 33562 33519 33589 33728 33850 33942 33986 33911 33661 33440 33327 33347 33423 33546 33657 33762 33642 33308 33031 32946 32939 32991 33045 33146 33292 33136 32891 32778 32768 32829 32900 32955 33003 32954 32674 32484 32493 32610 32761 32908 32994 33042 32989 32755 32616 32570 32625 32725 32866 32962 33013 32892 32559 32399 32378 32432 32503 32521 32518 32554 32475 32277 32208 32285 32439 32567 32666 32723 32790 32801 32623 32475 32458 32542 32646 32715 32771 32815 32739 32434 32232 32186 32213 32217 32268 32347 32422 32268 32061 32037 32064 32131 32195 32253 32275 32290 32225 32102 32085 32087 32138 32223 32280 32325 32344 32214 31941 31777 31732 31800 31939 32036 32096 32092 31886 31705 31631 31652 31713 31795 31908 32091 32243 32217 32090 32029 32058 32152 32219 32293 32269 32170 31918 31678 31632 31703 31773 31882 31947 31967 31935 31778 31602 31497 31511 31649 31818 31902 31955 31997 31873 31712 31589 31600 31671 31696 31647 31607 31634 31609 31431 31354 31408 31501 31502 31444 31467 31497 31490 31408 31435 31489 31543 31562 31613 31642 31675 31663 31548 31443 31329 31260 31252 31326 31383 31409 31453 31315 31184 31023 30946 31002 31078 31144 31254 31418 31326 31205 31206 31236 31293 31397 31501 31630 31657 31411 31096 30954 30982 31037 31087 31176 31224 31116 30796 30528 30466 30516 30584 30729 30889 30995 31013 30864 30756 30867 31031 31199 31311 31244 31040 30867 30718 30527 30428 30503 30630 30635 30549 30499 30496 30434 30251 30169 30292 30533 30692 30723 30770 30799 30784 30524 30383 30367 30314 30211 30147 30181 30271 30347 30244 30174 30159 30144 30136 30092 30146 30198 30265 30294 30279 30259 30282 30324 30364 30374 30423 30479 30364 30054 29855 29838 29982 30167 30312 30421 30465 30345 29987 29793 29775 29842 29919 30091 30290 30493 30547 30388 30295 30343 30448 30545 30567 30470 30305 30187 30053 29997 30055 30209 30399 30525 30553 30498 30444 30374 30234 30216 30357 30527 30587 30538 30535 30518 30419 30171 30054 29998 30025 30016 30021 30101 30213 30268 30086 29951 29792 29664 29641 29748 29924 30079 30274 30357 30372 30404 30438 30475 30535 30523 30517 30462 30299 30024 29829 29819 29972 30202 30446 30652 30670 30511 30240 30141 30178 30324 30481 30711 30982 31135 31141 30989 30785 30668 30600 30594 30555 30450 30345 30297 30226 30190 30279 30424 30559 30491 30401 30444 30524 30539 30419 30386 30518 30711 30852 30945 30968 30927 30857 30744 30541 30364 30223 30150 30177 30312 30475 30595 30678 30459 30298 30186 30208 30297 30338 30501 30705 30888 30905 30709 30585 30511 30472 30488 30581 30592 30482 30286 29985 29892 29979 30111 30296 30463 30449 30467 30437 30347 30176 30080 30087 30214 30338 30424 30469 30470 30471 30304 30140 30095 30100 30041 29929 29848 29886 30012 30062 29935 29910 29932 29967 29935 29926 29924 29958 29975 29898 29871 29927 30043 30187 30275 30324 30313 30300 30276 30010 29689 29483 29522 29689 29924 30153 30344 30462 30481 30256 30159 30209 30278 30346 30434 30570 30678 30733 30672 30445 30331 30283 30300 30285 30199 30089 30039 30100 30131 30189 30322 30487 30583 30656 30611 30581 30627 30659 30527 30444 30500 30592 30664 30737 30780 30812 30833 30840 30670 30409 30242 30255 30397 30601 30805 30963 31035 31037 30891 30812 30806 30852 30929 31059 31236 31387 31565 31768 31852 31930 31769 31787 32029 32382 32879 33403 33958 34397 34809 35318 35944 36523 37004 37411 37710 37984 38209 38263 38409 38505 38575 38944 39159 39271 39403 39584 39832 39984 39974 40034 40154 40292 40412 40524 40629 40724 40740 40544 40368 40279 40316 40369 40394 40335 40260 40060 39564 38771 38146 37635 37201 36878 36625 36371 36142 35942 35745 35359 34923 34606 34366 34186 34021 33830 33612 33430 33275 32970 32723 32650 32651 32705 32731 32744 32727 32694 32597 32264 31943 31755 31704 31764 31848 31932 32019 32071 31955 31577 31278 31158 31159 31197 31296 31475 31594 31674 31641 31409 31208 31113 31137 31165 31148 31055 30993 30992 30913 30697 30635 30726 30841 30952 31028 31067 31116 31141 31119 30918 30913 30989 31102 31202 31257 31222 31120 31067 31081 30956 30745 30597 30574 30667 30790 30938 31080 31196 31198 31002 30774 30501 30422 30539 30672 30847 31028 31179 31274 31139 30859 30604 30533 30498 30394 30259 30204 30227 30272 30091 29813 29652 29677 29887 30126 30324 30476 30679 30866 30855 30674 30551 30552 30674 30807 30889 30928 30903 30840 30772 30584 30472 30479 30575 30671 30684 30690 30833 30984 31163 31266 31244 31263 31303 31299 31270 31195 31097 31074 31040 30947 30737 30626 30677 30823 31022 31210 31380 31516 31574 31551 31384 31216 31146 31260 31466 31677 31813 31885 31887 31876 31871 31752 31662 31588 31546 31533 31578 31631 31723 31842 31955 31912 31816 31746 31743 31748 31773 31885 32019 32182 32289 32173 31915 31714 31693 31697 31727 31697 31626 31569 31558 31584 31475 31387 31417 31498 31560 31542 31490 31455 31446 31495 31549 31507 31479 31499 31510 31522 31572 31629 31644 31638 31573 31293 31086 31079 31212 31382 31505 31655 31667 31613 31583 31623 31512 31396 31436 31605 31791 31938 32012 32017 32037 32077 31956 31664 31374 31200 31143 31209 31306 31406 31508 31618 31634 31289 31019 30950 30957 31002 31082 31237 31341 31361 31354 31313 31136 30968 30876 30847 30832 30793 30790 30859 30963 31037 30986 30704 30514 30342 30246 30274 30352 30418 30534 30720 30904 30775 30534 30432 30446 30569 30675 30740 30738 30654 30613 30646 30507 30402 30455 30544 30596 30529 30432 30409 30424 30475 30583 30662 30657 30684 30766 30821 30870 30948 30987 31011 30937 30782 30470 30330 30408 30549 30673 30752 30700 30617 30605 30643 30684 30533 30444 30510 30717 30954 31143 31262 31311 31401 31494 31492 31296 31122 30980 30872 30796 30808 30903 30990 31099 31163 31034 30697 30507 30446 30460 30516 30630 30794 30991 31172 31329 31331 31116 30993 30960 30976 30947 30858 30707 30565 30572 30667 30647 30607 30681 30681 30636 30657 30675 30722 30759 30835 30957 30983 30828 30681 30613 30625 30651 30741 30916 31036 31053 31037 30858 30844 31073 31458 31701 31943 32186 32417 32722 33168 33640 34093 34580 35143 35758 36451 37039 37581 38215 38477 38790 39154 39427 39611 39677 39812 39977 40115 40255 40357 40450 40526 40590 40486 40417 40468 40590 40731 40874 40986 41091 41168 41225 41280 41134 40933 41037 41119 41211 41311 41401 41482 41550 41615 41683 41626 41490 41465 41524 41631 41707 41778 41838 41897 41944 41977 41879 41718 41679 41705 41772 41857 41903 41942 42016 42069 42110 41951 41518 40963 40424 39843 39088 38754 38446 38198 37975 37779 37531 37048 36519 36066 35722 35421 35154 34894 34610 34336 34100 33827 33390 33047 32816 32635 32456 32278 32148 32072 32000 32023 31995 31783 31619 31529 31487 31492 31495 31503 31486 31419 31361 31271 31031 30891 30858 30919 30954 30891 30627 30460 30437 30488 30482 30392 30374 30448 30513 30564 30559 30527 30478 30447 30409 30263 29939 29754 29778 29925 30048 30093 30078 30058 30039 29998 29952 29770 29619 29685 29892 30131 30336 30452 30459 30425 30371 30361 30082 29781 29599 29653 29829 30019 30184 30303 30304 30238 30072 29767 29530 29478 29601 29861 30158 30396 30488 30447 30338 30194 30107 29923 29701 29521 29491 29631 29837 30005 30149 30221 30200 30017 29678 29535 29482 29555 29733 30004 30253 30426 30490 30475 30437 30183 30015 29974 29896 29807 29812 29945 30095 30231 30373 30464 30305 29976 29716 29663 29699 29733 29850 30060 30296 30466 30564 30527 30397 30284 30296 30365 30361 30252 30142 30177 30315 30484 30599 30557 30461 30394 30320 30245 30208 30243 30351 30556 30778 30964 30987 30846 30703 30663 30681 30823 30936 30933 30856 30814 30899 31002 31014 31089 31240 31470 31701 31950 32172 32372 32619 32857 33028 33007 32918 32814 32704 32550 32401 32190 31974 31723 31471 31208 30944 30753 30679 30681 30695 30629 30619 30624 30597 30599 30599 30542 30478 30503 30583 30708 30732 30676 30594 30521 30532 30508 30432 30195 30007 30032 30189 30483 30749 30988 31175 31284 31379 31411 31425 31259 31121 31177 31341 31467 31569 31670 31712 31705 31733 31715 31533 31276 31051 30980 31024 31152 31317 31481 31684 32010 32203 32060 31788 31585 31430 31367 31385 31435 31490 31524 31544 31573 31539 31328 31233 31121 30941 30836 30841 30965 31070 31151 31156 31066 30807 30577 30512 30767 31069 31373 31683 31988 32285 32477 32666 32648 32499 32371 32379 32485 32556 32678 32791 32908 32947 33009 33053 32928 32897 32977 33009 33074 33172 33301 33409 33551 33696 33801 33695 33531 33431 33416 33471 33544 33605 33674 33734 33837 33899 33823 33613 33470 33386 33412 33436 33420 33459 33528 33605 33645 33698 33609 33443 33362 33376 33462 33506 33495 33463 33413 33366 33308 33205 33009 32946 33005 33133 33258 33323 33319 33266 33220 33228 33223 33093 32935 32899 32978 33122 33270 33342 33336 33347 33351 33389 33366 33170 32990 32903 32932 33011 33105 33182 33165 33122 33048 33054 32992 32828 32795 32891 33040 33221 33393 33495 33570 33606 33553 33533 33420 33289 33238 33283 33374 33405 33392 33396 33485 33624 33792 33955 34036 34018 33994 34038 34109 34194 34315 34421 34514 34571 34623 34560 34268 34005 33866 33851 33929 34011 34108 34204 34290 34385 34428 34259 34025 33908 33861 33846 33848 33814 33908 34116 34301 34455 34555 34444 34203 34006 33884 33872 33869 33841 33863 33891 33953 34096 34178 34066 33902 33793 33807 33821 33797 33793 33839 33922 33976 34039 33888 33634 33459 33371 33367 33410 33418 33467 33511 33605 33708 33776 33645 33512 33479 33463 33472 33520 33564 33571 33599 33670 33759 33670 33502 33440 33411 33456 33500 33509 33518 33503 33531 33591 33599 33449 33355 33358 33443 33499 33523 33515 33556 33585 33628 33700 33688 33531 33419 33411 33490 33571 33645 33664 33713 33761 33793 33783 33589 33433 33413 33460 33580 33691 33761 33831 33848 33931 34051 34089 33894 33686 33620 33686 33769 33839 33839 33803 33784 33839 33948 33938 33819 33745 33916 34189 34397 34490 34360 34205 34067 33942 33880 33660 33379 33238 33234 33294 33385 33457 33535 33559 33596 33608 33507 33214 32951 32855 32877 32956 33073 33140 33210 33238 33236 33232 33249 33079 32882 32778 32825 32914 32977 32995 32939 32910 32848 32810 32678 32393 32152 32046 32073 32161 32236 32290 32373 32378 32324 32242 32018 31780 31669 31700 31856 32044 32157 32210 32204 32198 32213 32241 32112 31889 31681 31600 31635 31724 31809 31905 31975 32012 31971 31838 31646 31485 31414 31474 31667 31873 32005 32078 32088 32116 32139 32038 31842 31609 31436 31383 31438 31553 31673 31788 31920 32029 32018 31795 31607 31471 31375 31352 31443 31585 31729 31835 31899 31902 31786 31519 31341 31231 31168 31070 31049 31122 31259 31399 31564 31665 31494 31261 31084 31038 31014 31022 31095 31237 31402 31469 31500 31432 31232 31029 30949 30932 30902 30845 30812 30826 30921 31029 31131 31091 31006 31000 31053 31135 31224 31241 31291 31403 31567 31726 31695 31418 31234 31186 31192 31230 31236 31172 31124 31125 31194 31308 31344 31298 31316 31317 31283 31229 31276 31311 31319 31336 31428 31538 31472 31353 31247 31214 31215 31271 31349 31345 31281 31248 31301 31361 31331 31357 31456 31500 31489 31427 31377 31393 31465 31562 31746 31904 31936 31918 31912 31862 31788 31737 31733 31669 31552 31453 31473 31475 31450 31513 31647 31774 31819 31777 31735 31677 31651 31651 31762 31851 31815 31801 31853 31868 31888 31909 31962 31945 31897 31854 31908 31933 31874 31849 31879 31879 31851 31735 31688 31662 31596 31580 31648 31781 31863 31975 32136 32256 32313 32262 32158 32087 32021 32016 32084 32224 32261 32308 32416 32484 32488 32443 32415 32377 32342 32340 32405 32454 32319 32213 32153 32097 32077 32068 32075 32114 32126 32120 32141 32185 32062 31991 32034 32134 32191 32174 32105 32078 32061 32075 32135 32238 32205 32011 31850 31756 31708 31698 31717 31731 31714 31647 31615 31680 31659 31541 31519 31560 31618 31624 31591 31565 31561 31556 31627 31790 31885 31741 31557 31399 31399 31400 31459 31509 31479 31428 31405 31474 31605 31583 31466 31413 31396 31458 31474 31455 31427 31410 31451 31549 31717 31743 31598 31463 31404 31392 31381 31417 31344 31184 31040 31066 31176 31264 31156 31060 31042 31059 31005 30955 30958 30961 31011 31164 31365 31520 31522 31293 31033 30794 30699 30772 30847 30771 30645 30598 30690 30853 30988 30923 30885 30839 30871 30849 30873 30891 30874 30881 31030 31257 31421 31391 31211 31106 31119 31180 31243 31213 31016 30790 30720 30823 30951 31053 30975 30810 30651 30534 30486 30514 30551 30574 30691 30937 31155 31305 31217 31007 30843 30785 30827 30826 30687 30529 30466 30573 30726 30879 30973 30890 30688 30550 30477 30535 30604 30643 30758 30985 31189 31344 31392 31302 31129 30989 30966 30989 30885 30718 30566 30587 30720 30839 30950 31003 30711 30492 30443 30635 30862 31014 31121 31284 31419 31520 31580 31604 31466 31259 31116 31049 30944 30817 30710 30695 30775 30883 31011 31203 31234 31089 30964 30869 30866 30877 30905 30973 31098 31190 31240 31263 31161 30938 30683 30601 30607 30545 30421 30396 30501 30649 30789 30928 31054 30913 30737 30619 30536 30513 30487 30504 30641 30821 30986 31080 31123 31085 30860 30631 30568 30494 30346 30272 30317 30493 30647 30788 30925 30948 30733 30539 30371 30333 30308 30330 30456 30682 30898 31010 31051 31024 30802 30503 30421 30361 30268 30163 30173 30280 30410 30542 30685 30812 30785 30616 30417 30374 30388 30420 30480 30611 30766 30885 30955 30993 30921 30610 30311 30227 30184 30078 30004 30070 30232 30434 30613 30764 30736 30392 30014 29930 29987 30024 30036 30199 30431 30617 30723 30733 30752 30673 30480 30378 30207 29980 29844 29845 30004 30165 30316 30491 30604 30502 30243 30053 30016 29964 29944 30028 30214 30394 30477 30545 30558 30562 30352 30160 30034 29847 29688 29674 29778 29927 30084 30223 30363 30313 30072 29787 29671 29686 29704 29766 29928 30149 30273 30314 30344 30406 30345 30161 30054 29895 29701 29584 29626 29766 29933 30114 30326 30523 30585 30362 30116 30023 30006 30030 30129 30307 30443 30514 30453 30441 30509 30554 30475 30345 30119 29899 29861 29944 30090 30241 30435 30578 30607 30503 30190 30006 29987 29967 30011 30166 30396 30582 30703 30746 30724 30661 30447 30307 30154 29968 29849 29877 30017 30201 30379 30498 30503 30427 30274 30067 29961 29886 29875 30020 30266 30483 30648 30761 30799 30795 30756 30576 30354 30077 29829 29768 29934 30172 30382 30566 30715 30767 30742 30523 30303 30224 30155 30146 30261 30490 30702 30867 30934 30894 30873 30768 30568 30381 30195 29996 29917 30014 30188 30359 30520 30675 30718 30673 30381 30102 29974 29921 29975 30159 30369 30504 30592 30609 30635 30645 30560 30342 30078 29836 29711 29771 29926 30107 30246 30428 30582 30630 30640 30407 30197 30103 30072 30128 30311 30489 30610 30639 30598 30644 30659 30580 30393 30160 29923 29820 29918 30114 30298 30439 30621 30767 30795 30712 30404 30157 30039 30082 30273 30521 30677 30703 30652 30620 30573 30559 30516 30312 29996 29778 29721 29842 30000 30163 30332 30484 30509 30417 30184 29870 29701 29619 29653 29809 30034 30187 30261 30298 30285 30199 30131 29948 29748 29519 29373 29411 29617 29830 30054 30273 30452 30477 30428 30287 30040 29858 29777 29885 30108 30315 30478 30585 30620 30604 30590 30704 30710 30644 30565 30578 30688 30796 30950 31160 31383 31527 31569 31535 31282 30945 30704 30627 30649 30733 30806 30815 30789 30758 30766 30736 30761 30596 30348 30147 30150 30271 30441 30609 30760 30972 31151 31230 31206 30960 30686 30522 30481 30571 30715 30818 30894 30976 30999 31000 30949 30856 30650 30405 30255 30305 30546 30900 31348 31699 32002 32166 32289 32306 32057 31713 31485 31378 31413 31552 31677 31772 31846 31850 31855 31822 31797 31547 31240 31049 31037 31122 31279 31445 31610 31745 31789 31786 31726 31525 31335 31224 31280 31382 31485 31603 31680 31685 31695 31660 31647 31473 31216 30956 30863 30931 31053 31154 31383 31624 31655 31703 31630 31337 31057 30840 30755 30845 31011 31164 31286 31393 31426 31397 31311 31063 30683 30422 30359 30484 30700 30906 31081 31270 31378 31382 31346 31175 30945 30761 30738 30825 30964 31078 31159 31213 31246 31230 31162 31112 30900 30681 30612 30696 30886 31091 31315 31484 31601 31694 31708 31592 31365 31411 31601 31921 32313 32438 32386 32235 32039 31799 31580 31348 30931 30584 30370 30229 30148 30162 30303 30459 30614 30706 30736 30687 30452 30169 29982 29942 29982 30066 30188 30305 30370 30431 30464 30438 30302 30030 29850 29730 29627 29576 29613 29718 29866 30045 30192 30255 30162 29800 29565 29490 29550 29633 29737 29888 29981 30050 30098 30115 30107 29982 29801 29654 29510 29402 29387 29467 29596 29788 29957 30099 30159 30030 29732 29583 29584 29659 29751 29890 30025 30131 30214 30270 30316 30281 30035 29845 29752 29678 29589 29557 29648 29777 29905 30062 30135 30154 30024 29767 29600 29634 29714 29841 29951 30069 30115 30157 30173 30189 30171 30020 29908 29784 29654 29550 29534 29610 29783 29967 30163 30296 30300 30126 29861 29737 29746 29835 29927 30036 30166 30254 30301 30322 30352 30364 30260 30137 29996 29856 29764 29732 29800 29950 30129 30294 30420 30456 30412 30208 30125 30135 30218 30331 30468 30544 30541 30545 30612 30692 30725 30579 30324 30060 29897 29877 30023 30273 30598 30911 31144 31366 31542 31601 31653 31675 31731 31755 31734 31792 31927 32108 32293 32461 32547 32495 32451 32249 31997 31794 31659 31603 31623 31730 31880 32065 32226 32309 32340 32334 32216 32130 32042 32037 32121 32213 32309 32356 32383 32408 32387 32374 32296 31955 31593 31366 31374 31524 31691 31855 31987 32032 31984 31906 31914 31803 31655 31585 31699 31940 32198 32378 32453 32567 32665 32668 32612 32570 32473 32388 32366 32414 32459 32521 32587 32576 32484 32317 32090 31947 31926 31779 31643 31585 31640 31753 31836 31914 31922 31900 31816 31727 31614 31362 31022 30850 30912 31165 31468 31778 31979 31939 31727 31493 31207 30918 30497 30213 30144 30273 30455 30680 30852 30952 31109 31290 31510 31657 31714 31616 31520 31512 31584 31673 31761 31747 31655 31511 31466 31543 31674 31667 31527 31455 31486 31568 31648 31694 31691 31619 31525 31445 31363 31232 30970 30870 30905 31015 31176 31291 31284 31175 31142 31172 31241 31285 31220 31068 31014 31047 31131 31201 31248 31271 31264 31300 31300 31185 31035 30738 30560 30542 30622 30773 30889 30882 30784 30713 30723 30803 30871 30882 30754 30646 30609 30639 30729 30769 30815 30839 30905 30958 30897 30745 30506 30269 30212 30256 30374 30559 30662 30590 30453 30356 30428 30571 30629 30517 30352 30285 30325 30422 30502 30559 30567 30583 30619 30534 30341 30165 29965 29837 29836 29987 30222 30382 30351 30276 30201 30245 30352 30391 30365 30212 30094 30108 30131 30203 30241 30247 30243 30268 30210 30053 29865 29679 29491 29494 29646 29889 30145 30282 30239 30177 30091 30125 30200 30254 30282 30179 30073 30074 30091 30118 30125 30136 30156 30073 29925 29714 29551 29471 29439 29517 29715 30011 30189 30166 30089 30026 30117 30171 30171 30183 30182 30068 29955 29911 29973 30049 30124 30173 30179 30052 29806 29618 29551 29634 29645 29730 29945 30114 30191 30224 30263 30239 30269 30255 30291 30345 30437 30359 30264 30189 30064 29975 29927 29899 29843 29668 29481 29469 29636 29843 29961 30094 30139 30162 30177 30194 30188 30270 30321 30388 30459 30547 30575 30492 30335 30195 30106 30084 30063 29952 29746 29557 29485 29621 29860 30099 30162 30091 30102 30133 30171 30214 30251 30233 30223 30252 30260 30310 30387 30266 30069 29849 29820 29884 29857 29722 29511 29431 29470 29611 29822 30040 30036 29947 29867 29850 29862 29940 29969 29944 29940 29962 30007 30069 30113 29974 29827 29709 29688 29614 29466 29319 29251 29346 29494 29690 29931 30005 29869 29710 29687 29743 29845 29921 29936 30004 30106 30164 30260 30299 30238 29979 29733 29609 29445 29295 29230 29258 29399 29611 29826 30110 30287 30170 29887 29711 29721 29822 29872 29910 30002 30083 30134 30147 30112 30090 29968 29793 29642 29471 29305 29235 29265 29388 29584 29811 30040 30194 30198 29994 29803 29697 29686 29745 29805 29908 30009 30110 30148 30189 30185 30155 30030 29847 29622 29371 29212 29208 29349 29538 29713 29946 30176 30289 30209 29991 29832 29858 29911 29957 30027 30105 30123 30116 30143 30126 30098 30046 29914 29779 29587 29438 29342 29399 29526 29687 29863 30078 30202 30204 30004 29771 29658 29683 29730 29815 29924 29983 29960 29944 29926 29939 29954 29864 29673 29415 29229 29170 29267 29476 29679 29899 30149 30311 30350 30307 30069 29930 29870 29876 29941 30011 30044 30038 30071 30038 29970 29876 29880 29820 29645 29446 29334 29378 29533 29707 29892 30079 30291 30443 30519 30478 30326 30235 30204 30266 30346 30441 30492 30446 30436 30430 30431 30417 30290 30058 29825 29620 29478 29481 29615 29811 30060 30289 30458 30477 30392 30200 30034 29992 30004 30035 30115 30191 30223 30222 30210 30202 30191 30142 29944 29706 29453 29279 29261 29391 29640 29863 30107 30282 30311 30231 30031 29825 29746 29712 29759 29894 30062 30103 30148 30193 30220 30231 30177 30029 29669 29310 29111 29143 29325 29540 29782 30049 30223 30257 30232 30132 29895 29754 29709 29716 29820 29926 29986 30008 30006 30023 29994 29969 29866 29587 29257 29002 28935 29056 29284 29519 29769 30046 30228 30273 30231 30080 29934 29876 29852 29848 29926 30009 30036 30016 29974 29913 29857 29836 29728 29525 29256 29064 29051 29234 29460 29661 29873 30060 30118 30108 29922 29735 29667 29676 29709 29814 29924 29947 29921 29932 29925 29904 29793 29615 29465 29302 29123 29057 29164 29382 29612 29850 30068 30210 30224 30059 29862 29709 29682 29676 29711 29757 29801 29815 29806 29785 29796 29770 29657 29548 29403 29219 29100 29082 29203 29396 29573 29832 30030 30103 30000 29773 29627 29640 29651 29638 29677 29752 29803 29823 29830 29818 29818 29723 29600 29488 29284 29096 29014 29088 29259 29438 29656 29893 30000 29983 29770 29610 29540 29576 29605 29673 29794 29860 29892 29905 29946 29993 30028 29943 29768 29480 29190 29029 29054 29208 29397 29606 29756 29813 29824 29752 29556 29454 29456 29428 29449 29516 29587 29584 29584 29614 29663 29666 29626 29443 29188 28922 28785 28832 28973 29182 29427 29662 29777 29793 29752 29697 29560 29503 29466 29466 29550 29639 29676 29726 29771 29809 29792 29752 29643 29381 29055 28825 28853 29061 29341 29594 29844 29967 29997 29959 29922 29807 29699 29648 29668 29746 29831 29856 29879 29839 29820 29767 29759 29767 29505 29198 29003 29036 29239 29458 29715 29939 30140 30224 30187 30142 30088 29966 29860 29839 29908 29996 30055 30091 30093 30069 30002 29965 29974 29925 29676 29395 29250 29301 29447 29708 30064 30359 30507 30557 30522 30500 30496 30309 30142 30117 30186 30266 30299 30284 30277 30304 30363 30433 30452 30321 30035 29851 29881 29991 30108 30226 30311 30383 30412 30386 30310 30355 30401 30252 30095 30026 30032 30027 30019 30013 30024 30007 29929 29839 29710 29491 29162 29046 29162 29415 29662 29861 29993 30071 30095 30099 30101 30155 30156 30011 29895 29894 29903 29910 29887 29827 29783 29830 29866 29782 29609 29350 29123 29093 29221 29501 29842 30119 30277 30365 30402 30492 30570 30629 30583 30364 30202 30138 30114 30144 30129 30089 30021 30019 29998 29865 29693 29522 29348 29306 29432 29665 29881 29981 29998 29996 30036 30100 30134 30143 30194 30087 29908 29841 29859 29900 29928 29900 29859 29826 29716 29557 29450 29440 29423 29432 29581 29810 29998 30060 30043 30027 30055 30145 30135 30103 30072 29944 29843 29816 29839 29848 29836 29845 29861 29758 29553 29358 29277 29350 29364 29405 29531 29619 29572 29491 29458 29451 29492 29497 29452 29474 29503 29392 29246 29159 29193 29211 29263 29264 29170 28994 28866 28862 29033 29221 29309 29421 29555 29657 29727 29754 29795 29857 29857 29820 29832 29860 29867 29789 29661 29642 29744 29797 29795 29727 29560 29408 29298 29289 29397 29543 29676 29664 29587 29492 29386 29420 29476 29554 29553 29537 29568 29612 29631 29641 29444 29280 29202 29172 29182 29103 28936 28768 28748 28866 29095 29308 29575 29681 29576 29409 29370 29396 29464 29498 29464 29462 29492 29508 29553 29568 29544 29431 29367 29336 29215 29013 28845 28798 28887 29058 29237 29506 29739 29853 29729 29527 29455 29527 29580 29613 29692 29721 29749 29756 29698 29645 29603 29586 29481 29309 29073 28904 28855 28959 29146 29359 29589 29790 29898 29837 29705 29483 29347 29307 29293 29404 29525 29574 29580 29553 29542 29503 29500 29507 29295 28997 28792 28735 28846 29068 29293 29527 29723 29822 29863 29762 29706 29647 29568 29488 29468 29540 29621 29672 29697 29628 29580 29553 29567 29557 29387 29092 28882 28865 29013 29245 29488 29701 29818 29797 29731 29681 29678 29705 29550 29399 29407 29493 29565 29593 29599 29578 29581 29589 29591 29444 29245 28937 28823 28932 29156 29418 29680 29862 29855 29743 29577 29568 29646 29678 29528 29500 29552 29644 29683 29664 29650 29607 29578 29530 29413 29246 29142 29006 28983 29129 29348 29619 29832 29829 29701 29569 29522 29590 29645 29712 29678 29595 29559 29543 29480 29478 29453 29469 29460 29327 29170 29070 29084 29105 29194 29368 29612 29749 29778 29637 29552 29470 29469 29487 29536 29617 29542 29452 29431 29392 29359 29323 29321 29390 29357 29207 29066 29038 29111 29181 29320 29531 29725 29797 29716 29627 29589 29609 29667 29678 29754 29797 29711 29671 29698 29738 29753 29706 29686 29551 29318 29140 29128 29251 29360 29472 29660 29842 29893 29778 29596 29526 29606 29674 29676 29754 29890 29798 29681 29645 29610 29570 29581 29603 29440 29247 29100 29130 29325 29527 29581 29651 29753 29777 29720 29681 29685 29709 29710 29719 29794 29899 29912 29772 29622 29547 29489 29533 29541 29386 29223 29135 29203 29396 29606 29772 29803 29726 29682 29624 29517 29472 29533 29565 29634 29748 29831 29844 29728 29556 29415 29393 29426 29287 29101 28998 29047 29209 29408 29621 29822 29767 29605 29458 29402 29419 29482 29556 29605 29719 29804 29858 29855 29813 29691 29520 29493 29506 29318 29120 29017 29099 29306 29499 29701 29924 30042 29891 29668 29528 29502 29523 29547 29582 29714 29856 29943 29973 29914 29871 29652 29520 29454 29331 29213 29176 29236 29376 29547 29720 29904 30028 30010 29818 29620 29581 29618 29707 29801 29934 30049 30084 30064 30030 30006 29854 29659 29572 29492 29408 29283 29139 29071 29295 29626 29947 30167 30260 30255 30189 30178 30071 29827 29637 29618 29846 30201 30507 30750 31026 31196 31207 30926 30682 30652 30799 31072 31338 31595 31809 32001 32216 32376 32388 32074 31584 31351 31313 31300 31300 31342 31372 31438 31541 31576 31419 31295 31190 30910 30656 30587 30724 31006 31300 31584 31820 31986 32041 32135 32139 32005 31857 31818 31861 31961 32153 32411 32706 32933 33091 33232 33419 33418 33196 33016 32920 32882 32924 33029 33130 33254 33353 33371 33299 33097 32780 32485 32333 32262 32301 32379 32490 32567 32598 32563 32466 32348 32289 32055 31770 31542 31447 31474 31534 31575 31606 31592 31515 31400 31334 31275 31151 30995 30965 31033 31102 31185 31243 31182 31136 31099 31110 31107 30988 30585 30249 30121 30187 30299 30442 30565 30607 30557 30421 30271 30232 30288 30238 30257 30352 30461 30547 30596 30635 30665 30645 30564 30378 30115 29744 29395 29295 29409 29602 29846 30099 30197 30205 30201 30181 30133 30135 30108 30092 30072 30042 30056 30081 30075 30003 29953 29944 29876 29667 29450 29176 29058 29132 29278 29486 29737 29843 29778 29650 29588 29702 29814 29874 29747 29580 29492 29508 29514 29511 29485 29539 29586 29449 29239 29019 28902 28831 28835 28959 29229 29536 29728 29752 29688 29647 29637 29703 29744 29766 29644 29526 29470 29484 29488 29468 29452 29423 29354 29178 28969 28800 28754 28661 28640 28745 29048 29340 29461 29484 29450 29410 29495 29635 29765 29910 29948 29900 29875 29848 29852 29874 29842 29764 29609 29380 29105 28882 28841 28823 28876 29089 29396 29708 29911 29970 29997 29993 30004 30048 30155 30259 30234 30120 30061 30042 30020 30033 30006 29912 29811 29749 29675 29562 29354 29268 29284 29348 29452 29718 30030 30253 30372 30301 30131 30114 30237 30352 30400 30315 30195 30169 30175 30191 30135 30039 29974 29874 29693 29476 29357 29420 29477 29547 29677 29771 29802 29774 29689 29609 29635 29828 30019 30207 30288 30218 30044 29876 29816 29799 29850 29744 29555 29351 29207 29258 29426 29611 29681 29655 29570 29477 29371 29324 29409 29493 29606 29768 29898 29992 30057 30069 29929 29731 29621 29433 29183 29009 28990 29142 29365 29565 29741 29853 29677 29350 29235 29294 29369 29406 29414 29522 29638 29717 29759 29754 29732 29610 29478 29324 29044 28827 28793 28953 29211 29414 29545 29584 29516 29355 29104 29052 29069 29164 29312 29495 29754 29978 30152 30168 30137 30036 29958 29747 29420 28980 28691 28723 29042 29375 29618 29789 29820 29734 29694 29579 29497 29532 29621 29698 29825 30035 30140 30121 30042 29987 30010 30068 30051 29885 29531 29144 28957 29005 29230 29442 29650 29874 29981 29942 29808 29549 29405 29428 29494 29612 29754 29825 29870 29875 29864 29842 29844 29867 29656 29288 28984 28939 29099 29318 29526 29733 29886 29905 29804 29675 29521 29439 29420 29468 29626 29778 29871 29954 30013 30108 30186 30211 30152 29835 29357 29025 29090 29311 29500 29693 29915 30040 30051 29960 29816 29691 29622 29618 29713 29889 30047 30173 30220 30167 30153 30125 30119 30033 29710 29294 29044 29106 29349 29634 29872 30109 30152 30046 29916 29803 29884 30016 30104 30189 30234 30213 30171 30122 30007 29902 29880 29907 29918 29720 29425 29070 28993 29188 29434 29653 29896 29998 30031 30117 30158 29960 29782 29809 29953 30068 30232 30472 30629 30748 30862 31028 31112 31055 30701 30191 29772 29809 29888 29802 29875 29964 29980 29958 29915 29974 29894 29736 29656 29580 29597 29651 29732 29816 29900 30023 29958 29727 29310 28999 29050 29221 29384 29605 29850 29851 29843 29791 29709 29773 29740 29555 29470 29499 29537 29611 29664 29647 29633 29667 29664 29493 29225 28922 28881 29007 29208 29434 29627 29650 29572 29459 29343 29330 29407 29331 29343 29435 29469 29379 29288 29273 29255 29325 29427 29379 29264 29103 29004 29051 29151 29297 29504 29533 29478 29341 29240 29270 29327 29412 29352 29254 29203 29177 29148 29073 28983 28887 28935 28971 28887 28911 28954 29092 29323 29458 29634 29780 29810 29760 29614 29460 29419 29412 29463 29454 29504 29565 29631 29605 29522 29370 29332 29412 29389 29270 29162 29074 29106 29278 29505 29749 29921 29895 29760 29645 29638 29717 29720 29665 29609 29617 29640 29703 29758 29849 29917 29974 29948 29736 29498 29304 29272 29265 29361 29587 29846 29901 29855 29749 29651 29705 29798 29854 29911 29924 29814 29758 29748 29812 29935 29965 29874 29638 29362 29148 29152 29332 29475 29610 29831 29979 30153 30219 30154 30078 30107 30224 30413 30621 30818 30918 30836 30698 30670 30657 30599 30423 30166 29852 29600 29660 29799 29953 30121 30071 29946 29840 29709 29669 29811 29878 29907 30002 30067 30126 30199 30174 30055 29918 29818 29636 29389 29190 29125 29209 29403 29634 29963 30199 30109 29887 29639 29554 29681 29783 29831 29914 29949 30034 30083 30070 30029 29976 29814 29639 29333 29092 29040 29166 29376 29558 29708 29781 29650 29574 29445 29298 29275 29328 29394 29525 29720 29872 29933 29962 30011 30072 30166 30266 30080 29638 29171 28982 29062 29283 29467 29621 29838 29968 30030 30037 29966 29786 29695 29688 29677 29779 29874 29933 29974 30003 30051 30111 30153 30105 29775 29312 28982 28879 28957 29154 29377 29629 29851 29894 29874 29860 29846 29771 29689 29667 29775 29948 30065 30231 30389 30578 30674 30701 30662 30472 29954 29357 29153 29268 29497 29745 29991 30156 30276 30343 30336 30248 30173 30049 30005 30021 30111 30186 30307 30497 30661 30758 30740 30646 30370 29956 29409 29311 29451 29653 29908 30253 30601 30848 30899 30783 30576 30529 30650 30677 30692 30702 30738 30755 30763 30739 30651 30583 30489 30355 30197 30033 29785 29576 29540 29618 29966 30151 30290 30513 30706 30781 30746 30836 30953 30919 30832 30886 31071 31221 31293 31332 31285 31111 30834 30531 30348 30293 30174 30121 30248 30371 30373 30361 30346 30303 30348 30408 30500 30616 30612 30490 30376 30290 30258 30219 30202 30030 29761 29512 29452 29535 29711 29769 29813 29965 29999 29940 29871 29872 29908 29978 30062 30221 30334 30392 30327 30104 29951 29839 29801 29726 29573 29375 29242 29250 29360 29540 29760 29864 29814 29738 29642 29613 29653 29768 29880 29976 30070 30081 30052 30062 29968 29736 29490 29325 29202 29091 29097 29177 29333 29527 29675 29857 29901 29798 29553 29371 29260 29340 29473 29650 29851 29923 29934 29878 29783 29727 29684 29522 29272 29085 29044 29183 29453 29748 30046 30344 30580 30722 30707 30552 30255 30049 30051 30173 30402 30707 30989 31176 31262 31299 31365 31389 31366 31185 30899 30635 30505 30584 30816 31069 31266 31359 31370 31423 31518 31749 31909 32022 32101 32188 32199 32180 32174 32178 32248 32361 32486 32608 32582 32439 32397 32461 32589 32720 32859 32896 32847 32583 32440 32486 32598 32694 32737 32676 32618 32534 32545 32639 32814 32995 33167 33263 33333 33207 32895 32703 32688 32780 32903 32981 33048 33055 33129 33177 33272 33388 33405 33294 33168 33058 32960 32933 32970 33079 33223 33339 33383 33408 33264 33118 33052 33075 33149 33220 33242 33269 33177 33101 33121 33200 33259 33117 32918 32782 32771 32902 33065 33217 33341 33477 33534 33571 33383 33030 32718 32607 32648 32728 32789 32855 32870 32955 33046 33157 33298 33359 33237 33068 32868 32711 32704 32747 32863 32954 32973 32985 32999 32991 32873 32764 32778 32829 32890 32951 32944 32861 32826 32843 32887 32958 32818 32624 32393 32346 32365 32537 32728 32932 33073 33144 33214 33101 32817 32588 32487 32515 32598 32675 32736 32700 32687 32714 32810 32961 33001 32872 32712 32544 32395 32312 32326 32440 32583 32758 32825 32891 32783 32594 32429 32362 32430 32580 32707 32767 32771 32743 32691 32715 32696 32612 32539 32521 32486 32503 32605 32715 32812 32948 33089 33210 33169 32905 32644 32491 32502 32577 32659 32764 32811 32792 32825 32939 32988 32967 32972 32996 33013 33080 33065 33003 32935 32929 32892 32916 32760 32506 32226 32202 32337 32439 32615 32796 32948 33051 33104 33132 33031 32959 32936 32977 33014 33006 32959 32948 33044 33180 33359 33613 33782 33782 33680 33432 33248 33152 33213 33344 33385 33346 33339 33198 33018 32951 33050 33155 33312 33447 33523 33524 33425 33310 33260 33145 33027 32941 32942 32934 32931 32952 32994 33123 33305 33549 33687 33610 33290 32961 32825 32860 33004 33140 33195 33188 33139 33098 33016 33008 33026 33118 33236 33303 33334 33195 33058 33019 33083 33118 33030 32969 32922 32854 32825 32892 33003 33140 33319 33479 33583 33459 33077 32736 32587 32610 32762 32915 33050 33094 33054 33008 32986 32965 32998 33029 33037 33072 32984 32873 32794 32853 32983 33079 32993 32787 32594 32582 32684 32847 33063 33289 33488 33612 33671 33358 32973 32710 32651 32723 32811 32897 32946 32929 32961 33019 33083 33086 33130 33163 33168 33112 33029 32982 32985 33092 33203 33278 33111 32807 32641 32669 32770 32914 33120 33359 33545 33650 33656 33403 33120 32979 33010 33100 33245 33289 33295 33302 33337 33383 33450 33467 33442 33471 33483 33423 33372 33392 33460 33546 33569 33552 33291 33040 32922 32951 33083 33222 33375 33502 33591 33639 33549 33276 33038 32974 33006 33078 33161 33219 33283 33380 33515 33635 33705 33725 33696 33617 33521 33380 33316 33371 33448 33572 33683 33596 33294 33056 33018 33125 33276 33491 33702 33839 33941 33844 33654 33420 33276 33259 33348 33423 33464 33467 33478 33524 33621 33728 33676 33573 33490 33441 33360 33349 33360 33419 33553 33634 33600 33335 33131 33067 33155 33313 33533 33745 33885 33946 33848 33678 33445 33306 33277 33347 33419 33473 33465 33484 33516 33614 33725 33715 33614 33484 33281 33142 33091 33147 33234 33314 33327 33307 33047 32870 32818 32887 33036 33227 33412 33545 33617 33551 33385 33195 33083 33085 33118 33157 33185 33201 33257 33395 33536 33598 33530 33412 33314 33130 33080 33101 33182 33271 33379 33415 33301 33057 32947 32973 33092 33257 33425 33586 33670 33692 33494 33193 32990 32929 32985 33074 33124 33178 33174 33261 33375 33458 33502 33496 33457 33417 33304 33216 33188 33265 33378 33488 33429 33212 32967 32881 32938 33024 33202 33401 33591 33704 33733 33420 33059 32863 32851 32960 33103 33189 33296 33325 33420 33534 33557 33568 33619 33676 33681 33638 33500 33433 33446 33531 33470 33300 33152 33083 33112 33216 33377 33541 33745 33920 34011 33807 33444 33138 33021 33092 33226 33384 33506 33531 33517 33430 33331 33337 33407 33544 33673 33732 33752 33652 33563 33475 33273 33130 33113 33184 33236 33300 33417 33554 33714 33927 34109 34067 33942 33668 33402 33310 33386 33512 33666 33757 33685 33356 33080 33003 33075 33272 33487 33730 33842 33812 33548 33130 32841 32755 32855 33005 33173 33290 33299 33332 33415 33496 33468 33435 33373 33300 33286 33179 33091 33138 33230 33346 33230 33039 32896 32793 32840 32959 33127 33311 33485 33621 33456 33186 32910 32799 32840 32988 33141 33253 33345 33403 33238 33075 33002 33039 33181 33332 33453 33527 33524 33401 33205 32962 32832 32855 32935 33033 33110 33170 33274 33391 33522 33521 33393 33273 33218 33134 33077 33077 33149 33266 33403 33254 32946 32729 32766 32880 33037 33245 33446 33600 33675 33405 33048 32831 32806 32911 33049 33215 33332 33413 33470 33415 33255 33218 33316 33408 33465 33463 33419 33390 33385 33287 33148 33090 33080 33233 33337 33400 33471 33669 33887 34045 34034 33927 33807 33628 33505 33460 33506 33616 33719 33702 33414 33134 33023 33044 33224 33419 33633 33766 33814 33628 33129 32805 32662 32685 32881 33052 33158 33258 33307 33379 33348 33311 33295 33337 33405 33439 33503 33462 33426 33442 33325 33212 33229 33309 33384 33473 33576 33694 33896 34131 34277 34249 34136 33955 33833 33808 33851 33959 34062 33941 33554 33084 32966 33271 33521 33768 34032 34145 34164 34113 33741 33551 33537 33640 33731 33848 33896 33856 33845 33916 34078 34175 34337 34499 34564 34514 34402 34241 34389 34658 34844 34906 34956 34836 34579 34627 34862 35115 35423 35789 35975 35845 35629 35188 34908 34877 35041 35249 35301 35149 34890 34475 34221 34100 34194 34414 34612 34757 34796 34717 34406 34092 33796 33701 33716 33738 33773 33785 33804 33802 33940 34041 34141 34188 34120 34009 33837 33652 33692 33800 33723 33447 33145 32967 32942 33031 33261 33528 33806 34076 34069 33817 33440 33186 33107 33200 33354 33497 33539 33578 33369 33048 32972 33054 33170 33348 33492 33540 33448 33054 32708 32472 32345 32289 32337 32350 32408 32526 32638 32827 32973 33059 33117 33145 33121 33032 32817 32779 32793 32895 32861 32666 32470 32326 32295 32383 32629 32864 33074 33299 33295 33134 32836 32656 32633 32720 32841 33008 33157 33222 33132 32915 32801 32832 32946 33094 33277 33455 33527 33436 33129 32916 32823 32873 32990 33157 33230 33236 33291 33301 33367 33446 33569 33682 33713 33707 33639 33603 33602 33670 33588 33312 33000 32834 32847 33085 33269 33616 34058 34509 34711 34868 34843 34741 34922 35101 35355 35693 35965 35958 35805 35677 35605 35915 36513 37093 37557 37880 38022 37803 37492 37427 37507 37705 37986 38289 38543 38493 38631 38579 38597 38762 38984 39178 39182 39179 38912 38527 38387 38140 37974 37816 37556 37072 36753 36692 36781 37028 37174 37199 37045 36865 36587 36060 35760 35588 35505 35499 35430 35003 34506 34078 33880 33934 34066 34173 34349 34544 34518 34023 33455 33138 33055 33132 33217 33292 33293 33313 33099 32924 32965 33099 33298 33508 33643 33755 33571 33348 33135 32977 32951 33051 33152 33165 33141 33231 33579 33964 34250 34410 34486 34502 34566 34507 34257 34160 34185 34145 33920 33581 33363 33171 33124 33309 33578 33895 34257 34433 34326 34126 33442 33097 33035 33093 33195 33361 33476 33468 33383 33437 34074 34730 35426 36040 36502 36676 36554 36408 36279 36083 35968 35921 36008 36243 36477 36618 36667 36795 36911 37128 37376 37576 37674 37596 37546 37562 37405 37017 36705 36437 36273 36203 36228 36425 36708 37066 37303 37292 37191 37013 36346 36100 36203 36391 36529 36482 36162 35694 35332 35234 35418 35663 35946 36220 36482 36502 35996 35368 35041 34903 34892 34874 34757 34559 34333 34088 33911 34009 34339 34880 35357 35703 35815 35501 35309 35276 35267 35310 35333 35185 35078 34991 34982 35203 35372 35481 35542 35441 35215 35001 34706 34516 34505 34627 34645 34502 34243 33873 33690 33576 33574 33847 34149 34441 34532 34431 34284 34033 33859 33812 33808 33934 33950 33810 33474 33088 32909 33105 33508 33908 34298 34646 34794 34545 33899 33531 33434 33482 33636 33765 33854 33846 33606 33192 33144 33457 33854 34262 34633 34825 34832 34497 33938 33614 33526 33604 33696 33622 33484 33404 33550 33915 34380 34810 35207 35541 35735 35870 35557 35198 35178 35136 35050 34922 34688 34504 34446 34425 34498 34769 35099 35300 35383 35388 35444 35411 35078 34827 34690 34665 34490 34116 33723 33606 33665 33945 34335 34733 35160 35436 35352 35078 34577 34223 34127 34192 34304 34395 34332 34024 33599 33515 33605 33828 34143 34466 34761 34891 34702 34285 33977 33794 33694 33640 33694 33726 33772 33720 33545 33422 33514 33688 33903 34140 34224 34258 34024 33701 33382 33206 33111 33007 32930 32906 32813 32854 32989 33195 33306 33402 33454 33363 33339 33316 33403 33643 33861 33856 33770 33665 33617 33698 33975 34314 34772 35170 35416 35499 35490 35443 35197 34923 34747 34682 34620 34484 34144 33776 33568 33631 33728 33918 34160 34396 34613 34569 34454 34203 33703 33482 33419 33486 33569 33613 33454 33146 32853 32742 32771 32958 33173 33384 33621 33832 33691 33250 32841 32701 32691 32802 32901 32935 32950 32746 32520 32450 32648 32865 33115 33448 33761 33936 33616 33167 32882 32781 32790 32840 32864 32855 32844 32873 32870 32887 32960 33055 33232 33424 33504 33441 33235 33090 32883 32760 32792 32824 32722 32731 32838 33012 33337 33629 33781 33836 33838 33843 33675 33474 33415 33488 33558 33479 33260 33048 32930 33013 33143 33415 33772 34092 34129 33949 33770 33430 33284 33336 33491 33657 33761 33672 33205 32914 32987 33295 33633 33994 34322 34506 34497 33968 33411 33142 33036 33087 33129 33083 33020 32960 32814 32743 32974 33270 33640 34006 34220 34362 34209 34031 33839 33781 33803 33889 33847 33708 33639 33724 33956 34224 34476 34766 35050 35233 35352 35144 34961 35077 35208 35225 35215 35144 34875 34733 34654 34772 34986 35284 35598 35829 35934 35929 35944 35697 35345 35060 34888 34754 34464 34121 33852 33652 33696 33792 34021 34266 34538 34738 34723 34559 34245 34173 34255 34422 34526 34578 34481 33975 33559 33457 33562 33889 34303 34691 35134 35471 35382 34863 34652 34825 35068 35287 35457 35575 35611 35594 35340 35270 35453 35893 36384 36828 37184 37306 37170 36582 36102 35824 35707 35636 35538 35397 35266 35044 34970 34867 34841 34951 35216 35477 35646 35713 35424 35130 34829 34535 34352 34237 34114 34031 33940 33996 34139 34427 34653 34829 35006 35116 35145 34942 34712 34643 34685 34591 34305 33978 33729 33579 33575 33626 33760 33992 34195 34221 34141 34046 33877 33743 33681 33662 33691 33700 33472 33151 32881 32866 32893 33015 33186 33452 33734 33869 33698 33288 32871 32778 32850 32996 33116 33177 33155 32843 32580 32478 32588 32730 32923 33179 33378 33493 33239 32815 32520 32388 32436 32544 32562 32496 32514 32664 32772 32935 33173 33459 33715 33864 33917 33698 33606 33460 33297 33172 33060 33012 32968 32961 33004 33148 33378 33613 33758 33836 33882 33880 33837 33958 34199 34498 34601 34338 33890 33567 33509 33572 33776 34051 34340 34666 34722 34470 34092 33840 33794 33856 33905 33884 33760 33617 33259 33043 33039 33334 33675 33945 34226 34436 34411 33740 33293 33051 32998 33034 33076 33110 33184 33091 32983 32787 32780 32848 32975 33177 33365 33435 33235 33174 33089 32990 32931 32946 32996 33042 33063 33115 33250 33454 33577 33677 33830 33973 33858 33730 33688 33689 33738 33711 33558 33397 33313 33275 33265 33306 33380 33528 33666 33680 33600 33511 33358 33228 33147 33159 33184 33304 33218 32960 32738 32560 32509 32635 32943 33270 33562 33795 33797 33566 33131 32950 32949 32995 33127 33281 33404 33235 32850 32630 32557 32653 32813 32961 33085 33172 33086 32698 32395 32219 32191 32325 32509 32682 32785 32852 32718 32484 32402 32406 32455 32569 32696 32719 32659 32506 32301 32190 32161 32253 32435 32575 32659 32648 32703 32791 32785 32754 32777 32902 32987 32977 32835 32780 32779 32651 32551 32503 32502 32516 32505 32532 32646 32755 32827 32722 32588 32599 32492 32437 32483 32560 32727 32850 32818 32706 32667 32629 32569 32524 32547 32679 32793 32932 32877 32659 32450 32309 32343 32407 32589 32771 32919 32937 32658 32442 32386 32420 32542 32698 32819 32937 33042 32860 32561 32362 32316 32390 32491 32589 32647 32659 32525 32162 31990 32157 32345 32487 32659 32811 32924 32926 32625 32405 32272 32326 32502 32731 32893 32999 33070 32991 32836 32773 32808 32889 33016 33172 33243 33219 33186 32993 32772 32716 32786 32928 33068 33177 33197 33185 33251 33190 33123 33092 33146 33232 33255 33166 33151 33139 33018 32855 32793 32874 32994 33119 33126 33149 33188 33234 33178 33038 32992 33016 33015 32979 32928 32962 33011 33053 32990 32920 33022 32995 33060 33173 33481 33798 34089 34337 34408 34316 34037 33761 33717 33821 33978 34015 33994 33647 33226 33011 33041 33277 33559 33836 34059 34292 34342 34010 33389 33147 33142 33255 33365 33394 33425 33323 32983 32779 32844 32979 33140 33316 33510 33691 33747 33310 32884 32778 32877 32974 33025 33106 33121 33058 33065 33052 33129 33251 33372 33528 33678 33786 33713 33425 33224 32973 32859 32859 32890 32955 32987 32925 32943 33085 33189 33191 33186 33217 33269 33301 33144 32963 32993 33032 32933 32760 32585 32470 32409 32504 32734 33061 33354 33614 33668 33591 33466 33194 33133 33162 33245 33365 33408 33202 32799 32571 32640 32939 33338 33717 34128 34448 34488 34115 33505 33206 33153 33225 33323 33418 33435 33417 33063 32806 32822 33070 33334 33657 33984 34288 34458 34149 33652 33429 33377 33416 33418 33442 33393 33347 33269 33161 33211 33361 33575 33852 34097 34253 34164 33981 33894 33764 33649 33540 33477 33428 33343 33266 33292 33498 33758 33814 33852 33929 34004 34024 33741 33570 33499 33472 33259 33044 32861 32836 32794 32834 32914 33059 33209 33325 33289 33208 33118 32927 32806 32793 32842 32932 33000 32794 32503 32271 32205 32300 32511 32736 32989 33295 33460 33289 32915 32632 32543 32593 32734 32896 32993 32997 32872 32540 32418 32495 32679 32903 33148 33471 33765 33790 33097 32687 32555 32661 32812 32921 32965 32918 32864 32866 32910 33158 33451 33647 33960 34209 34340 34259 34010 33764 33498 33404 33485 33465 33353 33319 33322 33410 33609 33657 33606 33592 33654 33685 33672 33531 33485 33599 33784 33821 33794 33561 33292 33200 33188 33277 33491 33691 33712 33600 33494 33333 33074 32850 32720 32848 33002 33079 32877 32542 32340 32279 32372 32682 33008 33346 33705 33771 33365 32923 32739 32683 32852 33074 33226 33144 33010 32821 32667 32547 32710 33104 33573 33994 34237 34296 33997 33714 33511 33848 34396 34715 34806 34505 34265 34215 34108 33840 33811 34031 34299 34584 34673 34533 34335 34293 34061 33860 33756 33728 33679 33511 33424 33372 33313 33319 33342 33358 33402 33492 33606 33561 33400 33322 33380 33282 33084 32871 32793 32793 32779 32781 32909 33078 33193 33144 32943 32836 32863 32979 33059 33038 32966 33038 33109 33007 32922 32935 33048 33250 33623 34123 34595 35031 35342 35577 35835 36184 36566 36939 37318 37653 37973 38248 38386 38469 38605 38721 38820 38683 38625 39601 40692 40942 40537 40340 40284 40296 40349 40442 40516 40595 40677 40581 40539 40601 40717 40873 41024 41141 41217 41299 41313 41076 40872 40737 40706 40776 40946 41128 41301 41425 41482 41388 41367 41432 41546 41633 41737 41818 41930 42000 41957 41875 41878 41940 41970 42000 42013 42026 42028 42042 41856 41737 41617 41478 41314 41115 41135 41307 41348 41234 40879 40442 39893 39449 39105 38781 38536 38317 38161 37710 37213 36799 36525 36365 36214 36073 35946 35841 35647 35242 34906 34735 34657 34600 34527 34458 34350 34263 33938 33569 33400 33466 33640 33810 33953 33949 33858 33675 33247 32991 32889 32888 32978 33112 33320 33435 33501 33342 33001 32730 32583 32552 32526 32513 32538 32603 32626 32345 32056 31898 31838 31823 31798 31851 31926 32018 32040 31859 31756 31749 31833 31944 32032 32092 32077 32083 31953 31708 31601 31617 31741 31875 31971 32027 32020 31965 31652 31394 31406 31484 31583 31698 31818 31914 31975 31896 31584 31355 31224 31219 31211 31226 31224 31253 31291 31207 31016 30906 30778 30768 30700 30668 30691 30717 30753 30632 30528 30547 30603 30687 30756 30738 30612 30440 30243 29914 29729 29700 29839 30050 30233 30317 30298 30167 29987 29770 29736 29764 29820 29905 30078 30287 30462 30548 30520 30478 30472 30511 30585 30587 30569 30563 30623 30629 30423 30259 30245 30224 30226 30200 30188 30187 30190 30208 30192 30287 30434 30608 30665 30699 30701 30669 30614 30511 30344 30304 30369 30496 30677 30834 30853 30721 30606 30401 30201 30091 30085 30170 30411 30663 30858 30994 30991 30882 30684 30544 30535 30538 30556 30600 30682 30851 31004 31034 30865 30677 30599 30516 30495 30486 30463 30500 30667 30843 30892 30914 30882 30865 30898 30842 30819 30836 30901 31025 31227 31508 31839 32173 32472 32728 32761 32611 32337 32020 31585 31298 31221 31327 31468 31550 31537 31479 31456 31318 31176 31112 31053 31075 31100 31182 31311 31428 31482 31331 30998 30756 30617 30617 30611 30629 30709 30865 31061 31088 31001 30933 30919 30905 30877 30798 30681 30591 30569 30514 30616 30793 30955 31075 31018 30922 30767 30666 30623 30539 30458 30504 30669 30844 31010 31072 30995 30980 30970 30860 30675 30577 30530 30581 30653 30801 30976 31124 31179 31019 30618 30287 30239 30286 30301 30453 30636 30889 31121 31149 30906 30747 30659 30594 30628 30649 30615 30662 30727 30827 30786 30791 30801 30714 30618 30498 30364 30362 30373 30377 30333 30419 30597 30824 30962 30922 30806 30731 30679 30664 30532 30418 30366 30464 30667 30840 30946 31045 31056 30999 30763 30602 30563 30579 30671 30845 31063 31271 31456 31555 31499 31319 31120 30907 30800 30755 30703 30679 30744 30885 30922 30771 30641 30481 30422 30379 30419 30469 30454 30478 30559 30607 30666 30757 30849 30879 30933 30904 30828 30795 30803 30721 30674 30755 30924 31117 31237 31248 31219 31088 30969 30960 30795 30732 30833 31039 31251 31396 31491 31504 31468 31443 31312 31125 30985 30923 30930 30998 31131 31288 31361 31337 31130 30790 30502 30435 30490 30576 30707 30936 31194 31355 31380 31115 30999 31067 31139 31161 31148 31058 30923 30848 30866 30826 30746 30653 30423 30228 30060 29954 30002 30022 30075 30219 30297 30360 30451 30486 30556 30615 30596 30547 30479 30442 30352 30168 30125 30211 30370 30495 30549 30451 30284 30070 29911 29840 29858 29832 29941 30116 30338 30528 30662 30733 30743 30718 30537 30377 30329 30295 30309 30360 30460 30569 30629 30649 30491 30242 30139 30088 30209 30244 30304 30416 30575 30753 30877 30865 30763 30709 30648 30622 30571 30518 30473 30477 30604 30751 30714 30623 30588 30534 30465 30411 30453 30484 30482 30526 30659 30647 30700 30784 30857 30887 30836 30836 30853 30885 30875 30885 30823 30855 30981 31094 31154 31107 30977 30871 30792 30861 30883 30827 30885 31042 31228 31357 31375 31380 31401 31407 31368 31225 31054 30981 30974 31049 31215 31360 31345 31195 30996 30773 30506 30457 30419 30489 30638 30870 31086 31235 31286 31261 31272 31082 30923 30826 30784 30819 30885 31022 31223 31391 31421 31300 31057 30757 30646 30630 30639 30705 30872 31045 31220 31343 31324 31182 30984 30771 30635 30500 30430 30400 30496 30731 30956 31067 30822 30507 30383 30321 30394 30386 30380 30500 30697 30905 31045 30939 30794 30706 30579 30485 30448 30453 30480 30604 30858 31108 31161 31064 30888 30857 30890 30931 31001 31048 31087 31228 31421 31511 31426 31337 31306 31350 31413 31402 31308 31246 31216 31207 31221 31111 31052 31014 30995 30932 30822 30782 30839 30910 31034 31201 31241 31261 31409 31554 31616 31598 31483 31287 31155 31002 30898 30711 30582 30525 30507 30514 30508 30387 30295 30313 30379 30416 30400 30436 30591 30757 30896 31043 30974 30957 30936 30962 30980 30938 30747 30725 30758 30868 30930 30945 30883 30777 30648 30579 30549 30398 30344 30497 30798 31143 31371 31437 31401 31312 31139 31047 30957 30866 30826 30857 30983 31215 31413 31436 31381 31240 31041 30807 30654 30603 30654 30830 31123 31406 31657 31785 31799 31829 31822 31668 31515 31381 31318 31295 31348 31432 31516 31458 31426 31357 31092 30948 30881 30885 30926 30977 31155 31398 31650 31856 31937 31796 31697 31595 31418 31261 31140 31112 31151 31227 31331 31357 31159 30909 30799 30724 30741 30822 30886 30972 31143 31389 31600 31661 31528 31432 31386 31362 31357 31300 31243 31190 31194 31280 31362 31308 31288 31182 31098 31012 30950 30982 30955 30961 31039 31191 31305 31514 31729 31844 31914 31922 31881 31818 31779 31672 31545 31254 31080 30981 30956 30980 30922 30797 30700 30694 30689 30651 30529 30546 30676 30837 30988 31062 30992 30892 30795 30670 30532 30321 30152 30065 30094 30223 30408 30547 30676 30677 30618 30588 30453 30358 30328 30392 30518 30766 31052 31312 31468 31452 31456 31418 31269 31196 31116 31081 31117 31186 31265 31330 31345 31315 31095 30826 30743 30737 30784 30828 30853 30950 31110 31291 31407 31324 31091 31005 30967 30954 30935 30846 30763 30737 30804 30936 31014 30898 30759 30576 30476 30422 30481 30532 30541 30633 30790 30977 31008 30998 30959 30983 31019 31054 30975 30911 30884 30875 30913 30914 30932 30964 30969 30877 30796 30751 30769 30827 30876 30921 30967 30995 31101 31205 31280 31245 31240 31232 31285 31300 31236 31053 30808 30726 30779 30851 30871 30830 30749 30613 30582 30565 30537 30485 30496 30619 30867 31142 31371 31487 31483 31508 31518 31453 31302 31156 31052 31024 31187 31393 31573 31645 31559 31391 31047 30705 30577 30547 30534 30644 30855 31105 31351 31563 31683 31531 31411 31344 31300 31234 31154 31067 31032 31144 31292 31475 31443 31258 31054 30953 30956 31046 31051 31053 31122 31293 31495 31604 31558 31482 31437 31448 31460 31471 31435 31376 31343 31383 31449 31461 31542 31609 31614 31524 31405 31263 31313 31343 31344 31350 31335 31417 31548 31678 31738 31683 31609 31516 31472 31396 31279 31046 30916 30986 31199 31396 31521 31500 31329 31139 30986 31005 31001 30896 30887 31004 31220 31401 31524 31550 31480 31427 31383 31299 31043 30874 30828 30931 31131 31373 31545 31603 31523 31382 31189 30935 30797 30731 30763 30904 31115 31376 31573 31714 31731 31684 31640 31464 31323 31220 31151 31149 31250 31477 31705 31833 31816 31711 31452 31204 31139 31279 31322 31299 31338 31441 31592 31712 31812 31846 31628 31392 31277 31289 31292 31276 31230 31295 31341 31325 31299 31293 31045 30799 30642 30628 30671 30703 30766 30915 31131 31343 31498 31545 31323 31208 31166 31146 31107 31068 31054 31080 31200 31331 31354 31296 31089 30843 30733 30696 30727 30739 30766 30881 31046 31268 31454 31542 31340 31186 31092 30927 30790 30676 30633 30638 30759 30949 31115 31177 31052 30888 30806 30762 30803 30895 30936 31001 31119 31318 31500 31571 31416 31323 31308 31309 31302 31224 31126 31116 31202 31292 31369 31393 31207 30962 30809 30783 30772 30805 30806 30848 30993 31247 31486 31652 31571 31412 31410 31436 31450 31444 31445 31430 31438 31539 31678 31701 31526 31392 31145 31005 30939 30947 30953 30993 31084 31257 31489 31690 31709 31662 31567 31579 31609 31612 31581 31535 31452 31457 31517 31613 31527 31376 31264 31123 31007 30923 30911 30930 30931 30976 31102 31309 31364 31409 31382 31361 31360 31343 31271 31215 31149 31115 31104 31131 31128 31180 31325 31450 31430 31310 31151 31117 31177 31157 31185 31303 31406 31476 31540 31589 31571 31576 31529 31496 31455 31394 31338 31272 31219 31254 31335 31448 31464 31378 31260 31156 31146 31169 31183 31125 31118 31227 31404 31558 31667 31741 31812 31819 31745 31660 31600 31478 31360 31348 31398 31431 31433 31361 31150 30912 30815 30891 30917 30885 30889 30970 31095 31132 31065 30999 30942 30906 30848 30809 30783 30612 30538 30560 30661 30799 30911 30995 30993 30874 30822 30805 30804 30723 30684 30694 30816 31012 31207 31322 31303 31278 31174 30997 30730 30483 30355 30291 30357 30534 30701 30806 30877 30767 30701 30633 30491 30435 30449 30496 30635 30820 31018 31211 31279 31238 31252 31270 31155 30935 30725 30605 30594 30657 30740 30767 30709 30608 30457 30260 30058 30016 30033 30074 30178 30389 30683 30959 31166 31206 31221 31119 30825 30549 30344 30254 30230 30287 30416 30581 30695 30762 30720 30578 30424 30376 30401 30475 30537 30613 30770 30972 31162 31271 31250 31092 30912 30843 30792 30783 30769 30768 30856 31139 31371 31489 31465 31123 30793 30614 30612 30655 30706 30777 30942 31158 31348 31491 31501 31407 31296 31169 31030 30933 30876 30949 31159 31401 31558 31572 31397 31063 30786 30715 30767 30813 30909 31102 31326 31535 31713 31781 31711 31544 31366 31236 31136 31106 31080 31125 31258 31407 31517 31577 31516 31229 30981 30868 30876 30883 30959 31066 31257 31448 31618 31717 31671 31519 31361 31232 31151 31052 31007 30968 31109 31337 31549 31648 31619 31396 31092 30930 30983 31057 31104 31209 31350 31549 31703 31814 31834 31747 31524 31336 31244 31212 31227 31241 31263 31337 31467 31588 31674 31652 31365 31114 30999 30995 31072 31098 31150 31227 31368 31542 31657 31706 31465 31248 31140 31041 30940 30826 30767 30758 30888 31072 31191 31280 31274 31036 30853 30754 30779 30840 30857 30919 31035 31201 31353 31490 31537 31311 31091 30941 30841 30819 30773 30738 30785 30953 31193 31425 31528 31403 31139 30951 30875 30908 30922 30930 30985 31131 31310 31498 31653 31707 31500 31330 31193 31126 31091 31058 31071 31089 31186 31347 31499 31606 31481 31229 31029 30891 30911 30978 30964 31032 31168 31357 31478 31539 31453 31194 31043 30974 30955 30948 30909 30898 30931 31012 31133 31209 31174 30923 30697 30513 30431 30464 30495 30465 30508 30620 30832 31095 31321 31376 31212 31091 30963 30873 30811 30672 30570 30573 30637 30721 30884 30931 30738 30534 30381 30287 30233 30218 30209 30243 30323 30445 30584 30735 30724 30612 30600 30622 30617 30593 30571 30546 30501 30504 30556 30645 30689 30657 30714 30765 30742 30682 30603 30586 30625 30625 30653 30712 30783 30724 30678 30667 30685 30712 30710 30678 30614 30568 30548 30526 30522 30480 30486 30555 30664 30784 30877 30837 30750 30654 30670 30760 30743 30742 30692 30642 30640 30661 30699 30735 30698 30658 30617 30553 30556 30562 30451 30374 30391 30508 30605 30650 30671 30627 30643 30636 30624 30657 30613 30471 30449 30541 30683 30793 30862 30886 30901 30905 30876 30859 30818 30715 30640 30673 30776 30925 31041 31104 31101 31064 31002 30931 30928 30910 30811 30798 30838 30969 31079 31155 31186 31193 31194 31168 31114 31062 30890 30756 30714 30776 30906 31042 31165 31238 31298 31210 31048 31021 31078 30814 30779 30834 30902 31003 31126 31201 31178 31011 30870 30745 30644 30522 30445 30466 30661 30930 31169 31335 31427 31396 31327 31206 31081 30928 30837 30856 31020 31242 31430 31577 31682 31689 31629 31543 31440 31133 30895 30823 30931 31118 31356 31546 31548 31426 31198 30958 30829 30731 30660 30671 30794 31019 31241 31431 31561 31558 31542 31509 31449 31208 30973 30877 30893 31023 31223 31425 31532 31567 31412 31227 31053 30889 30782 30749 30813 30994 31223 31402 31540 31578 31546 31537 31527 31416 31197 31021 30998 31088 31259 31427 31540 31501 31318 31125 30990 30855 30766 30724 30777 30939 31144 31335 31430 31415 31324 31265 31180 31019 30875 30758 30669 30659 30773 30991 31224 31390 31442 31348 31229 31137 30981 30959 31007 31041 31099 31210 31302 31377 31443 31480 31441 31388 31160 30984 30895 30802 30794 30952 31203 31449 31617 31709 31675 31506 31161 30938 30941 30936 31004 31098 31224 31379 31504 31563 31551 31487 31341 31111 30975 30918 30881 30907 30953 31066 31184 31272 31311 31350 31279 31080 30980 31008 31146 31263 31349 31492 31767 32067 32264 32461 32769 32928 33189 33655 34068 34247 34300 34431 34529 34568 34635 34727 34800 34775 34475 34044 33586 33227 33045 32946 32819 32699 32674 32679 32677 32677 32575 32314 32050 31823 31657 31501 31313 31147 31059 31086 31230 31390 31528 31504 31393 31247 31067 31028 31256 31467 31520 31516 31556 31584 31592 31584 31466 31306 31186 31086 31049 31022 30856 30607 30360 30276 30378 30546 30707 30817 30854 30897 30954 31036 31076 31112 31170 31313 31439 31591 31690 31643 31457 31313 31243 31156 31038 30900 30751 30628 30576 30640 30711 30725 30602 30487 30474 30524 30589 30708 30724 30683 30665 30736 30816 30900 30918 30775 30609 30536 30539 30595 30638 30661 30681 30700 30715 30755 30768 30718 30567 30429 30379 30407 30464 30488 30482 30478 30503 30533 30517 30511 30447 30396 30366 30347 30360 30475 30559 30626 30660 30676 30720 30701 30677 30573 30468 30397 30377 30418 30481 30526 30545 30561 30586 30605 30622 30573 30451 30357 30366 30390 30459 30523 30573 30614 30652 30692 30720 30720 30630 30544 30545 30569 30628 30676 30709 30720 30737 30757 30763 30768 30692 30584 30515 30519 30567 30610 30652 30671 30686 30706 30727 30738 30668 30547 30494 30508 30579 30656 30714 30735 30750 30762 30769 30784 30684 30573 30512 30515 30556 30617 30666 30706 30730 30755 30763 30780 30701 30603 30555 30568 30614 30674 30716 30759 30775 30807 30821 30860 30809 30718 30651 30639 30685 30731 30761 30781 30818 30840 30833 30837 30789 30685 30627 30636 30683 30745 30779 30801 30795 30816 30818 30824 30715 30610 30568 30573 30605 30652 30664 30661 30666 30682 30703 30692 30582 30520 30518 30531 30572 30631 30655 30666 30691 30705 30707 30683 30588 30524 30508 30542 30574 30616 30626 30603 30580 30616 30681 30621 30536 30492 30495 30525 30565 30568 30545 30518 30506 30517 30514 30393 30306 30310 30365 30440 30460 30467 30465 30488 30498 30525 30470 30358 30319 30344 30412 30462 30499 30501 30501 30509 30522 30533 30469 30400 30349 30367 30429 30471 30485 30509 30509 30528 30540 30546 30463 30418 30402 30413 30481 30519 30517 30495 30499 30505 30507 30411 30314 30294 30324 30390 30426 30453 30443 30459 30475 30496 30475 30366 30297 30309 30379 30417 30446 30447 30451 30460 30476 30493 30404 30334 30320 30327 30396 30430 30458 30468 30466 30475 30496 30491 30403 30332 30337 30371 30427 30457 30485 30483 30488 30499 30520 30475 30388 30344 30374 30427 30483 30514 30522 30518 30519 30546 30550 30426 30337 30333 30379 30457 30498 30521 30521 30542 30548 30586 30549 30434 30380 30411 30470 30526 30559 30570 30569 30580 30590 30622 30570 30477 30439 30473 30545 30592 30621 30610 30620 30633 30654 30680 30586 30505 30509 30564 30620 30655 30668 30668 30679 30702 30713 30713 30616 30560 30568 30631 30691 30715 30731 30723 30736 30754 30771 30732 30622 30581 30605 30667 30728 30734 30751 30751 30760 30783 30800 30724 30620 30590 30633 30695 30743 30756 30759 30758 30775 30802 30802 30699 30631 30628 30651 30717 30758 30773 30770 30774 30786 30805 30802 30689 30626 30632 30666 30718 30755 30756 30750 30763 30783 30796 30744 30637 30596 30619 30685 30735 30751 30740 30750 30790 30821 30839 30718 30605 30615 30647 30710 30750 30759 30748 30781 30842 30913 30956 30899 30852 30936 31045 31179 31307 31419 31584 31805 32012 32231 32413 32468 32525 32616 32754 32888 32994 33069 33126 33188 33252 33310 33346 33249 33120 33044 33025 33000 32970 32948 32965 32990 33049 33117 33161 33063 32962 32944 32970 32992 33008 32997 33050 33073 33123 33122 33120 32949 32803 32742 32727 32729 32715 32701 32678 32656 32668 32677 32678 32533 32402 32334 32326 32377 32392 32391 32379 32357 32324 32295 32261 32113 31930 31806 31774 31805 31809 31786 31769 31753 31737 31733 31760 31746 31600 31512 31460 31493 31537 31524 31507 31483 31477 31484 31498 31498 31371 31277 31289 31373 31500 31625 31762 31886 31992 32144 32282 32404 32457 32364 32253 32189 32152 32132 32093 32064 32068 32100 32248 32401 32552 32668 32604 32563 32625 32710 32833 32912 32962 33016 33058 33120 33174 33215 33219 33043 32915 32880 32899 32962 32991 33018 33011 33032 33047 33084 33121 33142 33044 32914 32856 32863 32938 33004 33025 33020 33037 33064 33095 33124 33150 32985 32851 32770 32780 32837 32895 32904 32909 32912 32937 32957 32991 33002 32885 32728 32631 32652 32699 32754 32770 32780 32782 32785 32815 32834 32850 32805 32645 32547 32542 32583 32656 32677 32682 32689 32692 32722 32735 32761 32752 32624 32525 32497 32533 32603 32645 32657 32654 32670 32685 32719 32745 32737 32594 32470 32445 32481 32543 32584 32602 32597 32601 32618 32644 32672 32689 32561 32410 32355 32379 32431 32479 32483 32497 32509 32521 32556 32578 32604 32545 32401 32298 32309 32371 32420 32439 32448 32440 32446 32479 32495 32510 32514 32373 32248 32221 32243 32321 32347 32344 32328 32311 32318 32336 32345 32356 32232 32084 32014 32052 32117 32158 32159 32157 32174 32198 32237 32268 32294 32210 32066 31992 32001 32062 32157 32245 32290 32298 32323 32365 32446 32617 32833 32762 32714 32845 33125 33484 33876 34300 34743 35206 35678 36083 36490 36858 37072 37246 37455 37640 37759 37851 37856 37841 37861 37841 37868 37782 37802 37709 37422 37207 37075 37007 36920 36775 36525 36392 36422 36523 36730 36910 36928 36812 36694 36613 36613 36640 36728 36814 36926 37073 37248 37439 37612 37610 37364 37052 36736 36374 35993 36200 36460 36650 36704 36661 36690 36806 36750 36531 36379 36262 36230 36177 36129 36089 36044 36042 36069 36115 36165 36137 36040 35978 36032 36099 36201 36274 36351 36331 36309 36244 36231 36225 36113 35890 35728 35666 35640 35619 35528 35442 35342 35225 35172 35183 35183 34989 34668 34396 34246 34177 34106 34008 33918 33805 33735 33685 33645 33566 33344 33119 32969 32918 32889 32869 32809 32742 32686 32677 32640 32610 32527 32327 32136 32074 32052 32080 32088 32091 32062 32042 32058 32060 32054 32005 31852 31715 31623 31610 31628 31636 31602 31582 31582 31596 31605 31603 31608 31465 31329 31248 31217 31218 31239 31272 31282 31335 31421 31497 31663 31901 31878 31707 31795 32158 32647 33054 33427 33817 34243 34729 35224 35737 36253 36672 36992 37271 37533 37781 37981 38098 38125 38124 38143 38203 38279 38351 38395 38292 38119 37967 37899 37843 37832 37851 37877 37895 37919 37805 37590 37391 37158 36871 36617 36444 36311 36204 36084 35974 35882 35813 35754 35701 35677 35637 35500 35366 35316 35321 35371 35437 35450 35464 35489 35530 35551 35590 35634 35631 35551 35472 35430 35439 35481 35514 35544 35577 35584 35529 35484 35455 35441 35463 35505 35684 35841 35860 35766 35598 35423 35290 35180 35091 35083 35109 35137 35088 35059 35081 35166 35295 35400 35477 35541 35597 35671 35751 35841 35908 35918 35754 35650 35616 35621 35611 35637 35662 35681 35706 35753 35793 35834 35856 35758 35647 35588 35594 35628 35619 35574 35504 35442 35460 35448 35483 35547 35727 35917 36073 36184 36276 36377 36498 36588 36677 36754 36852 36996 37102 37233 37354 37464 37558 37770 37921 37990 38112 38240 38298 38348 38384 38415 38423 38278 38032 37812 37626 37411 37299 37174 37041 36934 36819 36712 36598 36549 36426 36201 35970 35795 35705 35630 35593 35540 35501 35481 35452 35404 35336 35248 35013 34840 34775 34831 35012 35163 35273 35248 35233 35287 35341 35368 35411 35306 35196 35146 35214 35301 35246 35233 35236 35272 35319 35382 35395 35354 35174 34915 34712 34631 34423 34176 34053 34003 34024 34042 34096 34108 34151 34068 33893 33765 33732 33762 33871 33983 34120 34286 34470 34662 34867 35119 35344 35538 35783 36049 36244 36429 36557 36726 36993 37188 37321 37473 37660 37795 37794 37571 37428 37353 37272 37197 37122 37041 37006 36982 36976 36962 36956 36894 36760 36589 36491 36512 36556 36631 36739 36838 36890 36937 36995 37027 37048 37025 36893 36744 36629 36570 36513 36483 36463 36438 36426 36431 36422 36450 36470 36406 36257 36150 36089 36086 36093 36085 36101 36100 36118 36145 36165 36210 36249 36196 36076 35979 35939 35929 35963 35994 35995 36010 36038 36064 36094 36134 36182 36158 36037 35934 35883 35889 35922 35943 35958 35969 35990 36018 36034 36069 36125 36075 35934 35808 35753 35748 35767 35785 35781 35781 35796 35775 35781 35758 35674 35600 35531 35438 35337 35405 35550 35649 35707 35644 35516 35315 35106 34890 34683 34380 34009 33670 33458 33321 33205 33063 32885 32673 32505 32370 32201 32019 31815 31487 31136 31049 31233 31534 31901 32210 32355 32341 32203 31996 31819 31793 31834 31734 31556 31419 31314 31088 30795 30584 30424 30384 30298 30305 30341 30260 30142 29924 29697 29595 29504 29430 29403 29389 29343 29236 29159 29036 28928 28850 28804 28614 28474 28421 28417 28407 28393 28381 28365 28327 28291 28268 28285 28310 28315 28243 28199 28221 28243 28276 28292 28295 28300 28310 28339 28355 28379 28392 28357 28283 28241 28272 28306 28325 28351 28341 28360 28389 28414 28425 28436 28442 28443 28355 28316 28336 28354 28381 28406 28438 28447 28457 28492 28494 28530 28539 28545 28482 28429 28422 28435 28449 28479 28484 28503 28514 28528 28550 28563 28583 28584 28563 28498 28476 28491 28532 28562 28578 28592 28610 28636 28662 28677 28702 28727 28717 28659 28627 28635 28676 28697 28710 28721 28745 28764 28773 28800 28817 28811 28845 28812 28753 28745 28765 28794 28820 28833 28848 28866 28880 28902 28905 28924 28926 28947 28908 28871 28853 28881 28876 28906 28913 28923 28930 28944 28946 28960 28969 28977 28985 28920 28892 28881 28900 28930 28965 28984 28991 29012 29031 29054 29064 29077 29095 29090 29039 29020 29027 29033 29070 29093 29099 29105 29128 29136 29150 29170 29186 29207 29173 29112 29123 29154 29163 29187 29209 29198 29218 29216 29247 29257 29244 29240 29225 29177 29125 29107 29123 29164 29159 29176 29187 29197 29221 29246 29255 29297 29294 29274 29214 29194 29197 29239 29261 29270 29272 29284 29297 29314 29325 29336 29344 29351 29290 29262 29253 29271 29298 29319 29338 29347 29352 29364 29388 29385 29403 29403 29359 29297 29285 29282 29307 29325 29323 29312 29311 29320 29318 29320 29324 29318 29283 29210 29204 29258 29296 29323 29340 29330 29324 29312 29318 29317 29320 29319 29301 29250 29240 29253 29266 29288 29284 29303 29355 29389 29425 29509 29557 29587 29595 29563 29574 29590 29632 29679 29703 29686 29708 29729 29752 29746 29741 29751 29718 29681 29682 29694 29694 29690 29686 29699 29726 29763 29822 29859 29893 29911 29843 29813 29781 29795 29818 29844 29854 29871 29876 29881 29890 29901 29901 29869 29800 29762 29758 29775 29819 29855 29870 29887 29881 29892 29877 29868 29864 29795 29746 29724 29739 29744 29770 29786 29778 29778 29772 29756 29762 29790 29790 29731 29681 29675 29697 29729 29753 29766 29782 29800 29801 29805 29825 29851 29836 29780 29741 29738 29775 29800 29822 29831 29839 29823 29816 29840 29865 29867 29871 29806 29731 29693 29715 29756 29792 29805 29815 29834 29847 29855 29872 29883 29892 29888 29816 29758 29734 29755 29775 29815 29825 29838 29836 29847 29858 29856 29860 29866 29884 29832 29769 29763 29779 29820 29845 29865 29884 29896 29905 29925 29936 29945 29962 29977 29925 29861 29845 29846 29877 29902 29934 29946 29938 29973 29972 29966 29978 29992 30018 30008 29960 29915 29918 29929 29969 30000 30015 30029 30044 30053 30081 30073 30072 30087 30098 30067 30013 29990 29994 29999 30035 30034 30038 30041 30051 30066 30070 30082 30095 30112 30114 30071 30034 30025 30071 30110 30136 30155 30153 30148 30154 30169 30180 30189 30189 30170 30110 30075 30081 30116 30139 30152 30174 30166 30187 30202 30213 30215 30233 30236 30239 30178 30135 30130 30143 30155 30176 30174 30167 30163 30161 30172 30181 30191 30200 30163 30096 30036 30019 30043 30057 30078 30085 30075 30083 30083 30083 30092 30112 30106 30074 30005 29960 29953 29951 29996 30001 30021 30012 29995 29994 30020 30011 30016 30032 29971 29895 29843 29851 29876 29908 29923 29922 29940 29958 29960 29958 29968 29962 29968 29897 29836 29810 29809 29847 29845 29858 29850 29854 29847 29872 29868 29889 29884 29882 29806 29766 29762 29795 29817 29850 29863 29877 29888 29897 29911 29911 29928 29936 29892 29824 29800 29819 29845 29861 29888 29893 29903 29901 29913 29922 29934 29938 29949 29893 29846 29859 29878 29896 29909 29919 29913 29926 29938 29962 29964 29984 30000 29950 29902 29879 29879 29908 29932 29959 29954 29971 29981 29990 29985 29999 30007 29994 29935 29897 29908 29921 29942 29966 29966 29973 29989 30002 30003 30038 30059 30073 30035 30010 29998 30020 30039 30066 30097 30106 30133 30159 30179 30195 30213 30224 30171 30140 30116 30163 30221 30253 30271 30251 30232 30192 30188 30205 30237 30245 30217 30155 30116 30104 30099 30100 30101 30101 30094 30085 30086 30116 30146 30173 30182 30132 30110 30112 30121 30156 30163 30184 30204 30234 30245 30280 30297 30304 30314 30289 30222 30205 30199 30221 30242 30248 30263 30271 30274 30278 30292 30292 30300 30307 30227 30177 30157 30167 30185 30202 30217 30217 30211 30234 30250 30245 30260 30252 30261 30153 30100 30088 30089 30099 30106 30106 30092 30089 30091 30097 30107 30102 30113 30107 30039 29979 29958 29963 29988 30018 30040 30048 30069 30083 30083 30093 30105 30120 30128 30104 30032 29992 29995 30014 30034 30059 30078 30083 30095 30098 30090 30079 30075 30082 30120 30057 29997 29992 30009 30031 30044 30049 30035 30025 30043 30058 30074 30078 30098 30106 30080 30008 29966 29973 29996 30010 30020 30023 30038 30068 30085 30101 30138 30149 30175 30204 30164 30112 30117 30110 30120 30136 30170 30188 30202 30220 30235 30265 30268 30271 30307 30259 30211 30218 30252 30276 30298 30317 30327 30334 30352 30367 30368 30384 30385 30406 30385 30327 30304 30309 30321 30361 30383 30395 30399 30404 30407 30430 30416 30427 30434 30419 30373 30336 30333 30353 30395 30420 30440 30450 30470 30480 30478 30510 30507 30523 30526 30456 30399 30409 30437 30467 30487 30489 30491 30525 30524 30546 30563 30571 30582 30546 30486 30460 30465 30486 30509 30510 30506 30512 30512 30528 30556 30557 30589 30603 30551 30502 30486 30508 30512 30516 30528 30526 30522 30525 30530 30528 30537 30542 30520 30431 30401 30404 30404 30427 30421 30416 30430 30444 30456 30471 30483 30487 30473 30408 30362 30358 30387 30395 30401 30399 30398 30409 30421 30444 30444 30458 30448 30382 30326 30322 30340 30362 30372 30366 30367 30361 30376 30391 30412 30416 30413 30366 30298 30267 30288 30306 30313 30312 30321 30316 30332 30330 30342 30351 30359 30338 30265 30210 30213 30229 30249 30251 30260 30256 30260 30253 30266 30286 30290 30293 30238 30188 30175 30202 30219 30229 30239 30243 30245 30254 30265 30285 30287 30298 30270 30188 30159 30163 30183 30203 30209 30216 30230 30236 30264 30267 30283 30288 30303 30290 30211 30199 30201 30209 30219 30234 30227 30243 30243 30255 30268 30298 30283 30297 30260 30194 30180 30197 30233 30246 30275 30285 30293 30317 30346 30355 30362 30377 30406 30363 30291 30277 30292 30309 30349 30348 30363 30374 30394 30410 30428 30437 30455 30464 30441 30366 30354 30370 30400 30421 30425 30434 30446 30454 30474 30486 30499 30517 30528 30514 30442 30410 30425 30433 30460 30464 30454 30444 30448 30456 30452 30462 30455 30463 30474 30398 30368 30367 30385 30409 30417 30430 30447 30451 30475 30495 30507 30511 30523 30504 30442 30410 30417 30438 30449 30457 30462 30461 30466 30466 30474 30484 30516 30528 30497 30438 30431 30446 30456 30466 30466 30475 30477 30498 30538 30591 30609 30579 30585 30500 30399 30375 30371 30403 30494 30534 30547 30600 30681 30772 30848 30891 30906 30888 30824 30684 30598 30632 30754 30910 30955 30945 30941 30979 31090 31239 31370 31494 31473 31306 31138 31064 31027 30979 30934 30922 31017 31192 31410 31606 31759 31787 31768 31722 31753 31824 31957 32063 32173 32282 32431 32606 32773 32889 32952 32870 32761 32672 32635 32610 32597 32565 32579 32668 32839 33039 33212 33316 33229 33069 32922 32850 32845 32873 32879 32882 32945 33045 33142 33248 33354 33362 33326 33209 33107 33024 32947 32879 32906 32960 33080 33197 33320 33368 33365 33223 33008 32901 32841 32828 32875 32937 33007 33088 33162 33183 33148 33042 32865 32647 32488 32373 32340 32331 32427 32577 32689 32775 32827 32833 32788 32682 32505 32413 32356 32333 32329 32394 32462 32566 32620 32672 32696 32688 32673 32579 32434 32327 32299 32293 32359 32481 32612 32741 32853 32935 32946 32932 32858 32726 32636 32650 32697 32746 32820 32910 33013 33136 33281 33379 33424 33451 33346 33213 33074 33003 32993 33020 33123 33250 33349 33447 33532 33555 33550 33551 33430 33293 33168 33090 33068 33093 33147 33202 33231 33234 33225 33213 33200 33134 32958 32809 32752 32809 32944 33114 33265 33406 33485 33562 33602 33613 33655 33670 33528 33377 33259 33235 33275 33342 33401 33466 33489 33503 33486 33475 33476 33419 33237 33083 33035 33079 33181 33295 33394 33455 33482 33486 33500 33502 33535 33548 33412 33267 33241 33287 33358 33468 33547 33582 33605 33618 33618 33669 33664 33631 33485 33377 33368 33433 33522 33608 33652 33660 33643 33634 33670 33688 33700 33679 33621 33470 33335 33262 33199 33105 33022 32907 32879 32895 32924 32996 33100 33232 33358 33339 33288 33253 33183 33095 33028 32985 32939 32887 32856 32897 32996 33116 33198 33134 32970 32851 32738 32636 32673 32751 32838 32883 32958 33097 33238 33375 33517 33634 33602 33486 33339 33228 33240 33254 33364 33588 33804 33901 33959 34215 34535 34787 34943 35081 35200 35184 34969 34663 34558 34573 34643 34825 35066 35369 35744 36032 36228 36456 36614 36736 36783 36858 36892 36890 36899 36883 36878 36930 37030 37022 37041 37094 37090 36911 36681 36502 36440 36342 36306 36221 36113 35991 35895 35761 35633 35574 35521 35326 35114 34952 34845 34781 34795 34827 34875 34869 34911 34908 34911 34899 34856 34698 34565 34516 34490 34451 34403 34338 34336 34382 34492 34649 34850 35080 35243 35243 35143 35055 35008 35068 35079 34958 34933 35018 35312 35619 35684 35583 35363 34952 34541 34163 33830 33553 33372 33247 33101 32945 32845 32821 32839 32804 32744 32682 32683 32709 32781 32893 33093 33331 33602 33888 34191 34595 34922 35263 35379 35291 35026 34863 34830 34774 34707 34599 34507 34450 34430 34414 34353 34317 34210 34074 33962 33914 33884 33863 33858 33872 33901 33932 33928 33899 33892 33894 33809 33718 33681 33654 33599 33450 33268 33089 32990 32990 33008 33025 33004 32943 32833 32752 32699 32724 32781 32826 32837 32833 32867 32902 32957 33005 32994 32885 32758 32620 32588 32756 33104 33695 33988 34167 34301 34382 34427 34413 34305 34051 33803 33601 33450 33312 33217 33098 32923 32741 32541 32335 32103 31897 31612 31404 31305 31386 31556 31751 31890 31927 31905 31825 31707 31645 31611 31443 31216 31174 31230 31283 31337 31374 31313 31275 31225 31183 31133 31099 31008 30902 30888 30962 31023 31033 30988 30883 30788 30724 30681 30695 30699 30664 30617 30645 30718 30790 30841 30877 30859 30846 30843 30861 30860 30824 30774 30736 30680 30651 30655 30663 30689 30606 30531 30447 30461 30536 30532 30516 30512 30480 30457 30467 30506 30547 30543 30503 30465 30429 30397 30401 30397 30454 30464 30447 30464 30497 30522 30479 30443 30373 30346 30364 30355 30386 30416 30444 30419 30410 30443 30471 30430 30401 30370 30360 30390 30398 30412 30488 30600 30636 30644 30658 30653 30667 30663 30673 30696 30758 30739 30772 30851 30962 31028 31148 31375 31517 31489 31491 31527 31524 31457 31322 31208 31255 31559 31901 32177 32466 32689 32857 33007 32977 32895 32843 32806 32772 32762 32776 32774 32737 32746 32746 32721 32567 32396 32225 32091 31965 31858 31762 31661 31549 31323 31162 31107 31318 31653 31933 32111 32186 32196 32236 32222 32163 32150 32209 32302 32449 32639 32818 32950 33017 33064 33158 33259 33347 33462 33531 33535 33318 32981 32704 32753 32923 33055 33145 33210 33192 33093 33065 33161 33210 33200 33245 33222 33085 32940 32804 32712 32623 32562 32556 32576 32606 32528 32408 32221 32063 31855 31696 31599 31589 31663 31818 32077 32362 32724 32944 33020 33198 33408 33683 33864 33964 34011 34003 33883 33724 33601 33498 33270 33030 32860 32716 32613 32529 32463 32457 32482 32558 32759 33009 33247 33380 33457 33479 33445 33294 33067 32832 32612 32421 32243 32116 32071 32010 31822 31669 31545 31431 31369 31287 31175 31148 31220 31273 31344 31473 31522 31581 31705 31941 32199 32394 32501 32443 32288 32196 32210 32224 32217 32084 31955 31913 31957 32037 32125 32141 32105 32054 32007 32033 32024 31979 31760 31583 31489 31485 31505 31495 31404 31321 31228 31218 31246 31253 31063 30847 30770 30819 30905 30983 30997 30949 30871 30787 30700 30658 30644 30467 30365 30340 30427 30525 30601 30673 30700 30625 30541 30537 30639 30750 30730 30671 30664 30756 30895 31008 31098 31174 31201 31175 31100 31034 30973 30897 30828 30827 30904 31018 31117 31173 31152 31069 30984 30909 30844 30780 30694 30624 30621 30653 30742 30823 30903 30931 30889 30799 30657 30495 30385 30335 30312 30319 30414 30561 30746 30910 31009 30985 30934 30844 30701 30595 30541 30556 30614 30739 30876 31019 31109 31138 31158 31096 30906 30667 30626 30693 30812 30921 31034 31176 31264 31323 31324 31244 31152 31011 30934 30946 30965 30964 30996 31076 31171 31299 31367 31428 31477 31435 31249 31003 30830 30773 30778 30854 30957 31088 31214 31300 31353 31321 31132 30994 30910 30909 30952 31015 31015 31043 31125 31240 31351 31457 31475 31367 31068 30727 30600 30646 30744 30820 30848 30897 30988 31087 31152 31196 31031 30839 30696 30629 30668 30717 30742 30811 30907 31000 31084 31117 31121 30980 30786 30668 30560 30520 30527 30554 30608 30675 30757 30863 30915 30891 30724 30505 30376 30344 30440 30580 30646 30676 30707 30775 30872 30928 30984 30912 30785 30712 30661 30645 30685 30687 30744 30814 30891 30986 31123 31216 31188 31077 30900 30806 30761 30804 30905 30892 30916 30970 31048 31133 31156 31127 30992 30895 30806 30730 30679 30742 30806 30952 31144 31375 31559 31688 31748 31665 31496 31306 31231 31232 31304 31384 31410 31436 31460 31532 31610 31661 31646 31528 31473 31458 31453 31491 31576 31605 31601 31636 31717 31800 31857 31884 31794 31622 31480 31402 31435 31531 31560 31604 31666 31729 31809 31884 31952 31915 31808 31715 31670 31631 31584 31552 31544 31564 31671 31800 31910 32005 32035 31898 31779 31722 31725 31805 31870 31908 31937 31973 32033 32102 32154 32195 32184 32118 32049 31960 31927 31962 32012 31997 32010 32065 32137 32214 32260 32238 32037 31788 31640 31616 31678 31692 31726 31756 31834 31885 31904 31875 31866 31705 31499 31315 31219 31244 31320 31397 31486 31583 31680 31784 31833 31850 31692 31452 31298 31245 31338 31412 31490 31540 31643 31729 31833 31903 31983 31943 31735 31584 31529 31596 31664 31698 31672 31704 31772 31824 31899 31968 31932 31656 31447 31314 31268 31288 31303 31317 31415 31541 31635 31688 31744 31788 31617 31336 31173 31216 31329 31489 31610 31748 31857 31939 31982 31998 31940 31750 31524 31415 31454 31537 31591 31631 31710 31813 31871 31908 31920 31937 31887 31695 31516 31453 31407 31412 31435 31500 31594 31675 31744 31783 31759 31635 31434 31272 31272 31346 31386 31437 31530 31628 31700 31743 31758 31784 31808 31662 31453 31372 31369 31409 31454 31531 31621 31712 31763 31788 31749 31673 31485 31320 31308 31361 31393 31424 31504 31607 31685 31713 31760 31792 31801 31769 31580 31436 31402 31417 31431 31473 31556 31670 31713 31765 31793 31729 31664 31515 31417 31465 31546 31563 31632 31739 31851 31935 31992 32034 31984 31899 31738 31512 31369 31278 31272 31289 31387 31512 31598 31675 31756 31743 31676 31625 31534 31508 31510 31537 31592 31710 31863 32005 32064 32106 32132 32129 32102 31945 31726 31551 31488 31489 31585 31705 31803 31853 31884 31842 31771 31728 31733 31696 31600 31564 31623 31762 31904 32017 32076 32121 32119 32085 32036 32004 31926 31751 31651 31640 31730 31884 32008 32101 32144 32118 32070 32037 32021 32104 32018 31894 31858 31901 32010 32123 32197 32201 32170 32129 32032 31943 31928 31825 31675 31616 31681 31829 31971 32059 32113 32083 31997 31917 31880 31935 31935 31783 31684 31685 31761 31871 31932 31987 31996 31984 31975 31954 31935 31883 31692 31490 31408 31442 31525 31607 31653 31630 31601 31560 31509 31483 31500 31448 31285 31187 31200 31278 31354 31404 31448 31445 31393 31308 31221 31303 31340 31215 31137 31128 31212 31322 31394 31431 31407 31319 31200 31110 31091 31228 31251 31186 31172 31214 31291 31336 31350 31372 31371 31315 31233 31163 31120 30971 30853 30803 30882 31013 31141 31234 31276 31212 31123 31030 30992 31034 30996 30944 30927 30994 31155 31271 31292 31274 31211 31150 31040 30953 30989 30988 30919 30866 30901 31026 31139 31164 31157 31143 31076 31035 31011 31027 31062 31006 30935 30920 30964 31038 31124 31144 31169 31147 31048 30958 30891 30877 30851 30814 30806 30874 31005 31143 31213 31226 31205 31146 31084 31080 31102 31075 31016 31016 31073 31217 31362 31483 31507 31557 31564 31554 31495 31437 31388 31398 31356 31373 31447 31550 31599 31603 31546 31468 31354 31269 31247 31249 31300 31355 31501 31685 31908 32031 32117 32152 32179 32205 32177 32127 31988 31910 31849 31788 31724 31688 31715 31765 31789 31786 31760 31678 31572 31420 31330 31393 31501 31567 31644 31737 31814 31889 31923 31911 31885 31816 31712 31539 31533 31685 31799 31833 31883 31915 31944 31955 31955 31932 31868 31723 31541 31448 31485 31578 31666 31766 31877 31982 32067 32104 32148 32172 32053 31710 31390 31326 31393 31411 31409 31472 31575 31662 31695 31674 31585 31453 31246 31052 31050 31148 31186 31184 31197 31185 31205 31231 31270 31306 31315 31278 31078 30894 30836 30850 30862 30934 31049 31143 31191 31204 31207 31127 31002 30795 30678 30793 31005 31088 31137 31171 31200 31212 31232 31236 31231 31197 31077 30845 30679 30676 30731 30795 30842 30911 30941 30960 30997 31038 31043 30982 30764 30587 30577 30725 30833 30867 30874 30867 30893 30896 30926 30920 30845 30654 30405 30278 30351 30478 30569 30621 30684 30753 30797 30804 30812 30790 30798 30736 30707 30794 31018 31179 31266 31305 31332 31387 31427 31447 31448 31426 31367 31161 31038 31061 31157 31204 31202 31225 31222 31190 31177 31159 31088 30969 30754 30641 30811 31059 31190 31267 31353 31419 31482 31505 31553 31589 31575 31459 31250 31118 31198 31348 31461 31505 31515 31485 31440 31378 31361 31317 31175 30940 30798 30821 30953 31056 31126 31205 31294 31392 31497 31550 31608 31607 31421 31224 31169 31300 31413 31457 31433 31453 31471 31531 31589 31661 31634 31435 31198 31041 31085 31196 31238 31261 31290 31323 31280 31109 30933 30818 30688 30477 30288 30231 30302 30430 30480 30459 30473 30545 30637 30715 30809 30889 30726 30544 30501 30560 30711 30800 30865 30871 30918 30932 30925 30906 30879 30819 30636 30503 30478 30533 30627 30715 30770 30882 30995 31094 31171 31212 31189 31005 30847 30754 30769 30772 30784 30886 31028 31086 31066 31102 31142 31159 31100 30891 30689 30591 30642 30713 30770 30859 30967 31054 31183 31215 31174 31100 30944 30901 30940 31055 31270 31497 31722 31961 32194 32420 32625 32802 32912 32937 32882 32942 33068 33250 33511 33762 34007 34232 34443 34682 34880 35111 35208 35313 35401 35512 35612 35697 35832 35962 36128 36310 36483 36626 36847 36908 36855 36752 36638 36597 36654 36753 36824 36817 36734 36625 36524 36444 36246 35952 35698 35534 35451 35395 35380 35363 35344 35319 35322 35309 35310 35245 35074 34913 34842 34791 34765 34796 