47844 47844 47839 47830 47813 47796 47783 47781 47782 47782 46615 47215 47334 47417 47478 47527 47562 47489 47338 47305 47326 47332 47314 47319 47313 47333 47368 47388 47442 47485 47536 47555 47531 47309 47104 47015 46976 47004 47041 47073 47112 47150 47206 47255 47293 47350 47383 47389 47154 46917 46826 46826 46866 46916 46984 47011 47037 47075 47132 47190 47213 47248 47265 47165 46896 46712 46656 46626 46645 46690 46724 46746 46777 46772 46826 46847 46922 46977 47031 46891 46594 46416 46393 46368 46401 46450 46465 46458 46510 46555 46616 46664 46726 46782 46824 46681 46392 46225 46160 46158 46170 46213 46277 46319 46346 46381 46450 46526 46579 46647 46699 46556 46239 46039 45980 45977 46018 46084 46140 46153 46200 46249 46287 46349 46410 46473 46549 46505 46235 46002 45908 45882 45906 45958 46049 46082 46126 46151 46182 46211 46256 46312 46386 46369 46077 45851 45736 45686 45695 45765 45801 45816 45847 45903 45980 46047 46111 46166 46257 46238 45944 45694 45549 45447 45395 45403 45431 45421 45442 45456 45503 45573 45646 45807 45963 46019 45707 45441 45317 45269 45272 45296 45333 45349 45411 45467 45503 45575 45627 45692 45762 45721 45479 45305 45249 45272 45320 45387 45411 45430 45470 45511 45566 45648 45748 45869 45958 45912 45610 45446 45429 45430 45479 45516 45592 45665 45738 45823 45914 46011 46103 46187 46247 46182 45945 45769 45696 45668 45689 45723 45746 45784 45820 45942 46044 46136 46201 46249 46267 46061 45829 45734 45746 45770 45826 45911 45961 45985 46047 46066 46101 46162 46217 46290 46239 45915 45695 45611 45592 45610 45677 45765 45814 45830 45908 45969 46046 46087 46134 46216 46088 45831 45732 45692 45730 45783 45836 45913 45950 45960 45973 46010 46076 46148 46216 46195 45912 45726 45666 45665 45715 45762 45811 45864 45915 45979 46013 46080 46135 46183 46235 46036 45778 45649 45606 45554 45593 45638 45677 45718 45745 45782 45834 45894 45973 46085 46088 45770 45539 45447 45424 45467 45527 45579 45635 45690 45703 45771 45827 45879 45936 45920 45652 45456 45354 45337 45317 45359 45407 45457 45509 45556 45604 45673 45742 45836 45899 45636 45384 45272 45245 45211 45241 45301 45389 45439 45483 45548 45628 45703 45788 45856 45677 45437 45270 45146 45121 45135 45138 45123 45109 45089 45079 45095 45096 45127 45126 44986 44675 44336 44062 43914 43805 43743 43669 43598 43542 43476 43431 43397 43323 43235 42902 42336 41817 41425 41133 40901 40700 40546 40380 40231 40111 40027 39942 39894 39845 39542 39150 38738 38408 38154 38029 37903 37657 37486 37437 37411 37436 37553 37696 37711 37282 36794 36404 36186 36123 36177 36249 36278 36163 36091 36172 36252 36317 36360 36338 36250 36116 35862 35702 35665 35751 35899 36008 36068 36028 36096 36330 36552 36595 36585 36577 36641 36747 36648 36594 36622 36673 36754 36859 36891 36925 37005 37208 37272 37342 37408 37504 37641 37740 37676 37637 37575 37578 37643 37681 37584 37448 37440 37527 37660 37771 37887 37984 38072 38232 38151 38028 37947 37895 37820 37761 37702 37626 37602 37678 37817 37839 37863 37919 38053 38251 38193 38107 37997 37954 37993 38018 38055 38042 38045 38101 38202 38249 38237 38245 38321 38340 38166 38072 38089 38122 38223 38278 38293 38255 38225 38255 38319 38308 38255 38300 38397 38395 38290 38286 38369 38539 38693 38696 38598 38615 38596 38654 38598 38548 38541 38661 38853 38876 38893 38898 38937 39034 39140 39098 38954 38893 38937 39005 38968 38937 38971 39107 39283 39263 39264 39267 39232 39230 39217 39176 39167 39296 39385 39276 39253 39276 39400 39625 39719 39582 39430 39281 39230 39212 39163 38967 38899 38851 38786 38714 38554 38520 38549 38469 38202 38002 37953 38035 38219 38311 38349 38350 38428 38632 38710 38889 39098 39284 39462 39586 39511 39443 39412 39470 39606 39680 39631 39407 39303 39358 39422 39522 39614 39742 39913 39975 39843 39694 39620 39611 39560 39393 39201 39048 39010 39013 38956 38904 38823 38966 39200 39331 39203 38961 38744 38699 38713 38719 38710 38685 38719 38724 38659 38636 38642 38717 38850 38717 38542 38445 38450 38555 38668 38715 38673 38730 38834 38873 38900 38888 38887 38997 39173 39213 39189 39171 39176 39258 39335 39392 39310 39256 39364 39436 39473 39513 39614 39811 40020 39962 39933 39936 39926 39919 39854 39785 39692 39705 39853 40013 40136 40157 40251 40372 40400 40258 40188 40157 40151 40215 40190 40157 40129 40254 40480 40579 40676 40640 40632 40731 40693 40664 40684 40699 40763 40819 40752 40688 40753 40849 40961 41049 41097 41098 41163 41218 41120 41074 41062 41155 41273 41225 41077 40875 40757 40803 40847 40907 40897 40921 40992 41057 40974 40806 40627 40493 40481 40440 40370 40236 40176 40273 40298 40363 40444 40456 40481 40445 40234 40021 39911 39943 40047 40063 40077 40092 40162 40390 40511 40667 40859 41117 41395 41551 41510 41501 41482 41513 41668 41589 41363 41052 41006 41076 41120 41201 41214 41212 41267 41186 40939 40594 40338 40243 40237 40103 39991 39895 39938 40038 40070 40156 40283 40308 40316 40034 39791 39645 39635 39689 39732 39771 39736 39673 39747 39834 39788 39712 39678 39698 39807 39686 39450 39324 39256 39342 39314 39132 38831 38643 38643 38632 38592 38591 38674 38850 39049 39061 38926 38752 38607 38619 38614 38613 38594 38602 38698 38754 38694 38636 38627 38676 38668 38552 38563 38626 38693 38824 38936 38962 38995 39098 39178 39133 39100 39082 39205 39410 39573 39614 39637 39673 39757 39862 39840 39690 39577 39667 39800 39882 39926 39905 39975 40148 40220 40142 40113 40090 40142 40230 40250 40165 40158 40334 40454 40534 40582 40528 40540 40625 40571 40506 40507 40537 40630 40707 40716 40640 40674 40802 40859 40885 40885 40796 40799 40892 40934 40905 40928 40967 41054 41131 41064 40892 40744 40787 40893 40948 40996 41052 41156 41297 41345 41233 41135 41108 41185 41264 41248 41212 41168 41188 41302 41405 41528 41674 41672 41660 41567 41439 41332 41286 41340 41402 41421 41438 41443 41379 41377 41349 41352 41382 41449 41628 41727 41662 41613 41636 41700 41772 41682 41487 41356 41410 41476 41547 41648 41719 41833 42010 41869 41670 41411 41200 41120 41030 40974 40896 40909 41069 41224 41376 41443 41423 41382 41226 40923 40639 40462 40366 40383 40355 40336 40258 40330 40426 40439 40445 40442 40469 40586 40531 40445 40443 40508 40646 40713 40627 40260 40033 40194 40369 40549 40747 40948 41120 41156 41010 41008 41038 41038 41001 40901 40682 40449 40450 40656 40816 41001 41106 41278 41386 41223 40935 40879 40967 41258 41521 41493 41471 41444 41598 41843 42068 42195 42253 42379 42509 42680 42652 42675 42761 42859 42901 42898 42825 42686 42781 42896 43009 43150 43247 43325 43404 43251 43158 43175 43214 43245 43192 43053 42847 42791 42951 43071 43218 43335 43353 43430 43339 43009 42751 42639 42598 42648 42631 42529 42404 42353 42416 42499 42552 42508 42421 42420 42446 42274 42115 42034 42041 42130 42197 42119 41802 41504 41439 41470 41555 41703 41854 42019 42153 42109 41986 41955 41925 41898 41925 41839 41625 41455 41450 41484 41567 41674 41756 41710 41673 41453 41180 41027 40979 41058 41170 41168 41129 41022 41029 41026 41020 41042 41030 41029 41096 41141 40985 40870 40843 40895 40985 40892 40682 40441 40250 40327 40422 40546 40631 40689 40787 40864 40685 40288 39990 39861 39916 40064 40123 40076 39945 40053 40209 40288 40216 40127 40180 40319 40354 40230 40225 40283 40431 40635 40731 40568 40329 40208 40299 40438 40553 40667 40818 40999 41104 40973 40878 40769 40739 40797 40846 40823 40783 40757 40929 41061 41230 41395 41393 41423 41454 41290 41217 41266 41402 41578 41685 41653 41601 41440 41289 41264 41318 41406 41479 41471 41565 41690 41535 41459 41441 41344 41306 41261 41153 41027 41030 41207 41343 41490 41581 41675 41669 41691 41512 41417 41454 41591 41725 41752 41621 41485 41490 41633 41629 41620 41554 41584 41700 41815 41730 41657 41646 41674 41677 41572 41352 41117 41086 41064 41121 41149 41209 41341 41479 41524 41305 41088 41028 41071 41217 41301 41255 41059 41187 41356 41482 41512 41569 41699 41902 42102 42248 42450 42694 42870 42964 42919 42606 42235 42145 42305 42485 42633 42864 43027 43215 43183 42953 42816 42738 42725 42680 42579 42498 42374 42422 42440 42567 42745 42906 42903 42930 42892 42806 42694 42631 42581 42529 42503 42463 42422 42387 42387 42407 42455 42601 42711 42859 42810 42550 42465 42516 42474 42273 41936 41559 41378 41415 41548 41701 41887 42085 42273 42321 42030 41663 41507 41508 41544 41507 41356 41177 41218 41396 41607 41786 41871 41981 42208 42422 42205 41957 41838 41888 42031 42087 41715 40877 40276 39934 39783 39673 39525 39455 39641 39945 40055 39903 39758 40031 40256 40262 40190 40004 40016 40093 40145 40222 40286 40323 40347 40327 40064 39896 39835 39893 39975 40022 40016 40041 40128 40200 40323 40424 40582 40732 40986 41097 40922 40884 40903 40922 40863 40800 40720 40817 41149 41441 41758 41971 42116 42224 42145 41831 41468 41265 41168 41218 41226 41108 40979 40991 41169 41325 41395 41401 41507 41656 41741 41663 41607 41580 41730 41829 41893 41910 42025 42344 42563 42679 42768 42882 42977 43127 43045 42904 42857 42867 42899 42793 42565 42382 42366 42489 42606 42787 42953 42901 42891 42853 42614 42588 42639 42801 42872 42851 42839 42822 42920 43012 43241 43472 43625 43715 43829 43878 43972 44079 44080 44010 43790 43630 43485 43522 43684 43875 44003 44112 44184 44232 44094 43747 43530 43330 43244 43204 43174 43017 43123 43208 43326 43524 43535 43528 43568 43567 43436 43274 43141 43089 43110 43084 42967 42793 42785 42790 42885 43052 43281 43463 43633 43608 43349 43271 42973 42737 42532 42325 42079 41939 41952 42042 42106 42186 42293 42236 42156 41867 41670 41671 41943 42300 42432 42419 42218 42191 42279 42358 42399 42452 42500 42572 42634 42565 42517 42617 42811 42887 42815 42637 42421 42489 42724 42969 43221 43422 43621 43708 43591 43263 42870 42660 42587 42647 42634 42573 42513 42490 42519 42511 42481 42537 42591 42704 42746 42618 42406 42271 42153 42083 41848 41514 41207 41219 41369 41539 41750 41913 42070 42158 42011 41486 41183 41065 41081 41162 41200 41135 41171 41349 41584 41926 42232 42509 42733 42947 42930 42740 42857 42963 42969 42946 42892 42851 43043 43251 43497 43685 43860 44071 44282 44585 44501 44240 44139 44117 44138 44137 44144 44104 44138 44274 44404 44462 44411 44430 44504 44652 44707 44559 44511 44467 44409 44320 44323 44302 44419 44633 44834 45000 45161 45336 45554 45737 45411 45134 44928 44790 44765 44715 44793 44713 44822 44924 45054 45050 44980 45034 45182 45336 45262 45179 45193 45194 45260 45155 45024 44741 44605 44598 44619 44762 44925 45069 45194 45289 44818 44441 44206 44028 43988 44006 43970 43941 44042 44210 44376 44415 44398 44424 44534 44578 44309 44294 44167 44114 44103 43880 43767 43744 43736 43808 43868 44000 44148 44335 44682 44578 44224 43959 43703 43568 43462 43317 43383 43393 43441 43564 43623 43554 43496 43496 43681 43782 43442 43323 43281 43354 43292 43070 42742 42644 42807 43020 43230 43395 43521 43673 43662 43497 43022 42787 42679 42666 42666 42726 42642 42585 42666 42747 42803 42870 43001 43251 43500 43529 43516 43656 43803 43844 43741 43647 43564 43668 43862 44092 44282 44469 44640 44743 44666 44415 44176 44062 44012 44036 44036 44025 43993 44055 44163 44197 44208 44277 44407 44561 44650 44583 44616 44670 44646 44511 44340 44142 43957 43921 43953 43975 44033 44155 44296 44152 43921 43612 43426 43461 43492 43478 43449 43462 43518 43544 43552 43603 43673 43793 43968 44074 44003 43949 43900 43922 43867 43735 43657 43585 43680 43844 44028 44165 44312 44443 44365 44349 44183 44098 44165 44361 44541 44657 44717 44786 44875 44994 45131 45349 45549 45764 45943 45988 45767 45703 45662 45619 45592 45614 45710 45810 45891 46021 46124 46252 46298 46263 46227 46221 46074 46041 46037 46039 46098 46229 46285 46163 46119 46160 46201 46341 46514 46721 46883 46920 46772 46484 46278 46117 46043 46213 46400 46546 46597 46671 46757 46775 46713 46748 46864 46891 46859 46824 46795 46787 46779 46703 46530 46459 46498 46571 46697 46781 46909 47070 47198 47029 46580 46170 45905 45837 45957 46094 46101 46155 46244 46316 46305 46212 46290 46424 46392 46267 46163 46092 46084 46137 46014 45796 45612 45620 45722 45828 45931 46099 46247 46378 46101 45849 45720 45706 45793 45912 46056 46146 46200 46307 46392 46399 46413 46485 46599 46654 46652 46690 46741 46792 46808 46601 46577 46666 46770 46929 47047 47119 47136 47200 47309 47228 47069 46999 47015 47147 47291 47402 47444 47472 47505 47499 47519 47563 47599 47642 47678 47654 47582 47608 47644 47490 47341 47322 47246 47267 47402 47535 47612 47655 47717 47624 47502 47414 47361 47445 47590 47697 47763 47795 47829 47528 47434 47475 47602 47684 47763 47868 47937 48005 47827 47640 47505 47458 47482 47526 47668 47723 47738 47795 47878 47798 47718 47730 47811 47921 47820 47792 47825 47929 48013 47903 47718 47566 47583 47708 47815 47897 47953 48015 48010 48015 47855 47685 47638 47658 47775 47946 48016 48011 48019 48012 48005 48012 48010 48011 48010 48010 48011 48012 48010 41994 41732 41389 41082 40859 40701 40573 40452 40406 40383 40191 39822 39504 39170 38930 38803 38706 38626 38537 38455 38178 37719 37345 37175 37138 37187 37242 37267 37293 37098 36656 36270 35938 35716 35583 35501 35453 35365 35269 35242 35227 35092 34982 34940 34970 34908 34713 34610 34560 34550 34342 34025 33727 33522 33408 33439 33530 33642 33744 33861 33856 33628 33338 33189 33151 33185 33253 33322 33403 33446 33411 33396 33400 33467 33531 33635 33816 33857 33800 33746 33598 33437 33324 33285 33315 33365 33425 33562 33701 33845 33891 33907 33977 33919 33847 33851 33881 33960 34038 34101 34005 33955 33968 34045 34166 34292 34423 34567 34710 34685 34565 34477 34450 34476 34526 34555 34615 34653 34704 34761 34774 34812 34875 34965 35100 35196 35183 35198 35230 35210 35170 35114 35114 35120 35165 35220 35285 35370 35472 35479 35501 35469 35446 35416 35427 35480 35518 35567 35581 35479 35390 35379 35389 35440 35471 35535 35639 35722 35686 35592 35509 35485 35502 35513 35560 35596 35651 35751 35871 35938 35981 36018 36065 36142 36124 36076 36082 36094 36033 35931 35856 35837 35839 35882 35954 36043 36144 36231 36222 36213 36156 36058 36003 36012 36030 36065 36062 36072 35938 35815 35767 35809 35873 35964 36041 36142 36224 36093 35917 35747 35656 35592 35577 35568 35560 35571 35620 35707 35744 35733 35753 35817 35927 35950 35861 35837 35840 35771 35655 35551 35512 35487 35525 35616 35746 35871 35994 36019 36027 35936 35828 35799 35794 35815 35867 35881 35870 35738 35641 35604 35663 35744 35844 35975 36110 36233 36111 35903 35733 35652 35639 35673 35710 35763 35789 35820 35842 35861 35859 35895 35962 36067 36140 36069 35991 35953 35836 35672 35515 35456 35441 35433 35465 35557 35616 35717 35648 35572 35544 35514 35489 35445 35446 35431 35433 35420 35283 35159 35124 35112 35159 35210 35276 35354 35443 35478 35341 35190 35111 35097 35109 35162 35201 35235 35292 35224 35178 35140 35162 35218 35288 35426 35478 35464 35426 35354 35269 35247 35243 35257 35317 35363 35414 35460 35501 35459 35448 35472 35593 35629 35633 35650 35676 35729 35720 35675 35643 35649 35697 35752 35846 35929 36012 36111 36146 36216 36237 36216 36215 36267 36280 36318 36325 36349 36358 36373 36413 36460 36555 36657 36801 36941 37028 37008 36973 36972 36957 36968 36989 37015 37053 37125 37186 37302 37381 37495 37558 37653 37754 37756 37775 37806 37834 37842 37796 37765 37752 37798 37853 37925 38000 38059 38125 38170 38183 38200 38166 38132 38141 38156 38155 38139 38138 38079 38010 37981 37972 38002 38038 38083 38107 38161 38180 38093 37929 37806 37730 37675 37668 37681 37683 37699 37750 37757 37768 37764 37794 37834 37910 37975 37925 37865 37826 37714 37546 37414 37329 37299 37284 37263 37290 37332 37413 37394 37298 37263 37279 37196 37109 37057 37017 37012 37016 36864 36654 36489 36436 36446 36498 36579 36651 36732 36833 36604 36298 36077 35934 35889 35889 35864 35869 35830 35813 35754 35677 35657 35640 35682 35738 35819 35712 35606 35499 35237 35071 34955 34914 34917 34916 34919 34947 35021 35059 34951 34839 34806 34794 34707 34642 34618 34626 34657 34600 34385 34209 34109 34099 34180 34279 34397 34501 34594 34589 34443 34325 34246 34245 34269 34332 34395 34461 34506 34472 34451 34479 34524 34542 34622 34736 34851 34856 34856 34826 34788 34788 34817 34859 34872 34934 35002 35093 35180 35222 35214 35257 35315 35363 35380 35418 35477 35523 35531 35492 35458 35474 35530 35603 35654 35684 35732 35773 35791 35877 35892 35883 35922 35954 35989 36016 36007 36069 36089 36145 36217 36255 36289 36307 36361 36439 36509 36537 36504 36514 36515 36551 36548 36492 36467 36487 36535 36561 36577 36601 36627 36669 36717 36822 36864 36906 36970 37008 36990 36977 36983 37020 37116 37245 37389 37515 37626 37676 37717 37774 37791 37785 37777 37788 37794 37796 37796 37763 37703 37702 37682 37713 37777 37841 37908 38012 38065 38034 37945 37889 37854 37838 37812 37811 37798 37780 37847 37964 37966 37974 38016 38060 38145 38242 38344 38341 38295 38215 38115 38022 37971 37924 37932 37925 37978 38061 38130 38093 38078 38109 38181 38181 38175 38165 38169 38175 38156 37983 37844 37739 37687 37718 37775 37863 37947 38028 38003 37887 37688 37526 37431 37374 37364 37364 37341 37302 37199 37027 36930 36939 37001 37107 37222 37351 37377 37241 37006 36789 36633 36575 36550 36547 36535 36540 36557 36644 36644 36613 36617 36650 36702 36603 36502 36476 36477 36468 36322 36120 35988 35924 35899 35916 35998 36093 36213 36286 36195 36114 35904 35762 35727 35710 35724 35767 35786 35640 35467 35352 35329 35348 35438 35563 35693 35814 35945 35832 35621 35444 35353 35337 35358 35393 35457 35474 35486 35402 35367 35375 35394 35456 35532 35629 35615 35587 35591 35536 35458 35435 35455 35495 35531 35582 35626 35685 35771 35792 35804 35859 35940 36008 35979 35976 36006 36031 36000 35909 35833 35831 35879 35931 36020 36110 36196 36285 36301 36330 36335 36290 36297 36308 36335 36374 36390 36385 36367 36353 36378 36471 36530 36622 36700 36777 36887 36855 36793 36762 36728 36713 36746 36754 36787 36819 36870 36960 37005 37052 37103 37168 37249 37361 37328 37306 37311 37280 37213 37171 37157 37153 37196 37256 37337 37417 37493 37526 37572 37628 37621 37575 37564 37551 37548 37543 37525 37429 37352 37321 37337 37385 37457 37500 37563 37642 37663 37488 37333 37222 37175 37155 37152 37140 37145 37159 37162 37146 37154 37163 37185 37265 37340 37341 37279 37244 37115 36946 36826 36744 36752 36760 36789 36845 36953 37054 37064 36999 36993 37041 37003 36920 36890 36879 36854 36776 36517 36330 36165 36088 36124 36221 36307 36374 36423 36405 36330 36137 35919 35820 35773 35760 35757 35758 35819 35691 35591 35572 35593 35630 35659 35744 36001 36215 36167 36120 36096 36063 36070 36072 36083 36093 36131 36186 36319 36376 36408 36385 36441 36509 36491 36333 36253 36225 36101 35903 35711 35605 35560 35579 35678 35860 36025 36138 36153 36132 36125 36009 35893 35892 35899 35901 35906 35867 35721 35590 35581 35635 35747 35873 35967 36048 36140 36088 35869 35711 35631 35593 35587 35589 35592 35617 35631 35600 35566 35545 35527 35562 35638 35740 35805 35755 35762 35669 35566 35522 35484 35501 35528 35601 35705 35797 35912 35900 35900 35922 36008 36021 36003 35994 36000 36006 35968 35920 35930 36018 36116 36198 36295 36388 36483 36537 36474 36466 36487 36457 36439 36434 36410 36413 36433 36402 36332 36316 36347 36385 36451 36515 36548 36599 36655 36671 36569 36442 36421 36390 36403 36405 36421 36426 36450 36457 36486 36491 36485 36473 36494 36559 36656 36633 36551 36457 36348 36281 36267 36250 36266 36300 36348 36412 36428 36291 36158 36128 36166 36229 36167 36158 36156 36162 36045 35927 35821 35799 35806 35834 35885 35959 36032 36055 35988 35955 35905 35803 35753 35765 35749 35792 35835 35772 35660 35559 35537 35549 35580 35605 35650 35731 35870 35738 35544 35452 35417 35434 35475 35536 35585 35624 35635 35600 35545 35516 35500 35506 35560 35685 35731 35670 35537 35374 35296 35288 35309 35390 35451 35536 35633 35735 35752 35736 35715 35746 35849 35890 35833 35814 35835 35793 35662 35527 35461 35443 35480 35531 35652 35757 35812 35767 35680 35694 35705 35689 35693 35698 35715 35726 35730 35601 35484 35434 35444 35555 35655 35795 35886 36022 36050 36016 35866 35763 35722 35732 35775 35846 35917 35972 35953 35924 35988 36066 36143 36225 36322 36403 36538 36476 36327 36191 36101 36070 36076 36090 36128 36137 36171 36238 36242 36259 36377 36532 36647 36818 36762 36696 36687 36612 36448 36326 36209 36193 36195 36307 36480 36630 36778 36765 36714 36707 36772 36703 36680 36672 36663 36672 36609 36417 36258 36185 36217 36312 36427 36535 36626 36692 36684 36520 36266 36117 36041 36000 35979 35964 35962 35907 35785 35699 35640 35605 35636 35675 35714 35821 35843 35730 35546 35337 35205 35174 35182 35219 35218 35265 35374 35459 35431 35320 35201 35232 35327 35494 35411 35358 35361 35237 35147 35053 35024 35016 35048 35133 35271 35418 35549 35475 35351 35373 35446 35370 35299 35281 35302 35326 35276 35073 34881 34784 34812 34893 34953 35046 35107 35202 35205 35119 34910 34775 34743 34738 34777 34776 34851 34846 34795 34817 34827 34844 34832 34745 34763 34847 34959 34932 34757 34621 34488 34473 34547 34634 34722 34883 35088 35319 35401 35472 35526 35623 35696 35793 35726 35659 35666 35602 35496 35440 35378 35408 35444 35540 35663 35773 35864 35926 35902 35887 35954 35945 35861 35890 35916 35938 35948 35874 35741 35677 35678 35732 35842 35970 36059 36133 36172 36129 36169 36085 35975 35967 35975 35970 35974 35994 35977 35874 35846 35912 35984 36048 36107 36102 36116 36229 36201 36089 35978 35925 35912 35955 35997 36046 36044 36089 36057 36080 36112 36161 36226 36299 36329 36433 36386 36364 36297 36267 36286 36309 36360 36383 36332 36225 36135 36004 35843 35743 35698 35706 35734 35737 35733 35710 35643 35507 35376 35278 35206 35179 35209 35247 35295 35316 35322 35207 35063 34948 34812 34710 34702 34723 34717 34724 34756 34638 34520 34425 34378 34330 34322 34307 34288 34265 34121 33884 33733 33689 33721 33802 33904 33965 33992 34064 34132 34205 34381 34512 34541 34569 34558 34578 34649 34744 34724 34687 34717 34803 34890 35004 35094 35141 35160 35074 34842 34602 34386 34166 33938 33728 33644 33594 33511 33391 33247 33139 33097 33074 32953 32816 32737 32734 32762 32666 32567 32485 32454 32469 32369 32276 32193 32060 31955 31692 31439 31242 31120 31055 30961 30896 30870 30853 30789 30673 30580 30546 30589 30689 30752 30763 30788 30789 30742 30778 30837 30938 31021 31090 31114 31120 31144 31132 31110 31137 31287 31467 31700 31910 32170 32417 32631 32823 32946 33053 33227 33414 33662 33887 34075 34233 34389 34525 34617 34753 34952 35137 35248 35329 35458 35558 35660 35732 35750 35758 35749 35772 35831 35994 36173 36387 36632 36811 36893 36895 36901 36950 36953 36893 36840 36752 36659 36548 36510 36462 36410 36319 36259 36215 36202 36170 36105 36035 36000 35945 35908 35858 35796 35767 35773 35761 35720 35696 35646 35631 35592 35480 35306 35163 35028 34968 34893 34835 34717 34619 34554 34527 34495 34345 34162 34049 33971 33913 33850 33777 33697 33675 33682 33705 33595 33438 33339 33323 33370 33424 33483 33527 33588 33651 33683 33685 33518 33294 33137 33073 33072 33077 33121 33203 33281 33358 33370 33261 33042 32908 32836 32841 32759 32606 32468 32366 32400 32518 32649 32596 32488 32304 32227 32271 32364 32341 32234 32306 32534 32735 32657 32445 32330 32338 32451 32626 32770 32822 32756 32764 32838 32926 32891 32800 32709 32766 32875 32840 32787 32787 32837 32945 32946 32816 32632 32571 32574 32655 32662 32618 32540 32562 32708 32616 32387 32258 32243 32324 32477 32573 32601 32634 32675 32742 32806 32753 32650 32582 32698 32914 32932 32920 32938 33025 33074 33011 32957 32910 32883 32906 32985 33058 33029 32875 32749 32764 32769 32738 32684 32749 32816 32928 33017 33014 32946 33066 33202 33136 32993 32796 32854 33019 33058 33031 33085 33147 33249 33236 33113 33045 33016 32964 33118 33264 33296 33327 33498 33665 33545 33356 33304 33305 33369 33455 33483 33450 33505 33601 33703 33747 33782 33754 33906 34019 34079 34009 34030 34007 33997 33906 33825 33602 33560 33643 33763 33861 33954 34033 34310 34339 34273 34018 34008 33875 33853 33870 34054 34152 34338 34508 34606 34673 34730 34796 34955 35038 35029 34957 34944 34842 34724 34545 34450 34353 34411 34532 34647 34787 34891 35081 35297 35348 35170 35265 35309 35389 35478 35517 35564 35714 36359 36934 37306 37545 37734 37996 38373 38446 38146 37953 37812 37757 37619 37588 37760 37988 38180 38402 38487 38538 38650 38827 38834 38785 38554 38550 38646 38716 38774 38685 38477 38373 38296 38280 38304 38327 38391 38486 38486 38417 38233 38265 38187 38080 37974 37770 37550 37444 37480 37574 37686 37832 37790 37589 37395 37241 37022 36820 36697 36655 36632 36579 36428 35932 35641 35558 35527 35523 35514 35490 35520 35577 35525 35166 34868 34655 34487 34413 34351 34210 34105 34071 34153 34137 34033 33866 33720 33761 33839 33739 33696 33715 33773 33755 33578 33347 33074 32989 33065 33233 33377 33445 33455 33366 33141 32908 32708 32646 32680 32729 32823 32904 32904 32783 32650 32646 32622 32616 32570 32665 32905 33125 33041 32959 32839 32714 32704 32741 32783 32754 32801 33053 33203 33202 32951 32755 32773 32826 32810 32843 32892 32951 33057 33122 32967 32752 32734 32871 33017 33177 33252 33207 33294 33365 33301 33241 33254 33337 33451 33551 33608 33595 33639 33779 33823 33871 33910 33983 34138 34304 34388 34375 34443 34481 34514 34543 34511 34483 34507 34666 34866 34972 35004 35004 35003 35090 35092 35098 35162 35223 35274 35357 35421 35418 35290 35267 35340 35406 35431 35461 35491 35585 35734 35629 35495 35470 35470 35467 35518 35554 35488 35473 35600 35704 35813 35813 35790 35777 35837 35889 35912 35878 35911 35938 35874 35842 35745 35714 35668 35746 35861 35906 35952 35935 35778 35663 35554 35444 35360 35350 35332 35336 35372 35316 35080 34919 35018 35068 35150 35225 35253 35349 35397 35286 35124 34977 34866 34920 34974 35010 34957 34910 34964 35094 35157 35142 35131 35166 35265 35331 35142 35078 35079 35103 35033 34940 34830 34730 34692 34824 34962 35069 35158 35185 35064 34980 34794 34593 34535 34505 34592 34736 34820 34785 34535 34320 34228 34250 34298 34360 34373 34443 34592 34647 34294 34044 33852 33767 33794 33862 33869 33876 33847 34012 34135 34173 34244 34318 34455 34601 34531 34399 34420 34468 34381 34256 34125 34053 33910 33956 34123 34287 34433 34599 34530 34539 34495 34299 34263 34310 34393 34488 34593 34695 34631 34387 34333 34367 34431 34564 34686 34823 35029 35108 34794 34534 34389 34300 34285 34337 34373 34420 34456 34530 34622 34640 34684 34749 34866 35078 35213 35105 35082 35096 35043 34986 34971 34988 34982 34923 34944 35060 35128 35141 35091 35001 34957 35003 34964 34825 34791 34742 34733 34752 34634 34458 34278 34205 34248 34269 34347 34336 34348 34393 34363 34286 34189 34203 34190 34217 34335 34382 34403 34389 34353 34375 34457 34541 34632 34776 34886 34924 34818 34711 34609 34519 34495 34585 34675 34700 34700 34764 34938 35139 35224 35283 35374 35539 35715 35733 35749 35819 35924 36040 36009 35851 35652 35564 35658 35757 35900 36056 36127 36134 36097 35994 35713 35548 35539 35556 35670 35744 35782 35657 35409 35316 35314 35355 35475 35586 35693 35843 35869 35566 35322 35159 35127 35245 35340 35363 35318 35258 35330 35419 35411 35397 35339 35386 35512 35542 35398 35367 35332 35253 35132 35001 34897 34806 34768 34860 34925 35069 35230 35167 35102 35070 34862 34728 34764 34805 34875 34945 34968 34712 34374 34224 34265 34327 34439 34541 34639 34784 34875 34451 34168 34030 33970 33972 33986 33988 34012 34005 34058 34025 34039 34097 34166 34351 34424 34269 34145 34227 34254 34238 34244 34226 34206 34338 34604 34872 35087 35272 35231 35212 35314 35297 35156 35128 35179 35175 35192 35157 34972 34711 34641 34805 35036 35261 35477 35639 35787 35797 35756 35554 35471 35476 35484 35534 35562 35651 35599 35517 35586 35664 35717 35788 35872 36005 36132 36081 36107 36097 36091 36073 36102 36111 36172 36246 36351 36529 36676 36712 36702 36741 36861 36992 36999 36949 36923 36903 36783 36662 36567 36532 36566 36635 36827 36993 37097 37068 37017 37081 37136 37007 37045 37031 37015 37026 37023 36908 36751 36640 36645 36700 36729 36754 36757 36826 36860 36836 36614 36490 36424 36365 36332 36263 36165 35989 35785 35677 35647 35636 35639 35652 35732 35728 35670 35364 35038 34754 34542 34508 34413 34311 34344 34353 34418 34469 34421 34335 34301 34348 34412 34434 34340 34280 34236 34063 33923 33819 33698 33661 33653 33798 33874 33992 33919 33741 33658 33727 33666 33629 33610 33657 33694 33723 33558 33361 33196 33196 33393 33574 33765 33933 34025 33976 33893 33729 33542 33539 33583 33671 33854 34022 34038 33991 34103 34372 34590 34775 34924 35063 35220 35257 34996 34749 34602 34557 34541 34622 34628 34583 34504 34472 34491 34483 34447 34431 34402 34422 34462 34520 34485 34401 34319 34268 34298 34300 34208 34077 34071 34228 34334 34381 34395 34391 34433 34459 34366 34405 34457 34511 34507 34465 34420 34376 34347 34457 34643 34721 34766 34756 34693 34574 34485 34394 34355 34362 34387 34425 34380 34101 33832 33710 33694 33635 33588 33576 33632 33745 33748 33627 33501 33470 33462 33529 33586 33614 33574 33555 33510 33417 33320 33216 33071 33025 33081 33183 33224 33189 33145 33067 33097 33165 33209 33206 33248 33291 33255 33060 32871 32757 32811 32901 33004 33081 33162 33248 33193 33132 33080 33069 33069 33150 33234 33282 33336 33267 33117 33076 33073 33084 33100 33192 33284 33385 33435 33331 33210 33136 33216 33316 33431 33544 33631 33696 33601 33453 33256 33086 33098 33098 33222 33333 33417 33395 33254 33151 33149 33156 33186 33249 33316 33417 33456 33474 33508 33633 33728 33752 33840 33900 33957 34014 33987 33954 33850 33809 33814 33866 33954 34049 34082 34001 33895 33755 33702 33725 33751 33760 33800 33841 33888 33858 33724 33612 33580 33633 33754 33786 33787 33831 33797 33673 33613 33571 33571 33640 33730 33796 33862 33918 33894 33832 33848 33914 33968 33969 34032 34115 34148 34160 34051 33911 33810 33776 33808 33842 33866 33872 33810 33698 33618 33537 33442 33495 33553 33631 33722 33807 33724 33555 33456 33442 33421 33445 33469 33524 33641 33642 33435 33205 33126 33143 33198 33318 33406 33447 33437 33298 33177 33052 32981 32952 33041 33183 33306 33299 33192 33084 33006 32991 33058 33129 33169 33167 33172 33203 33149 33010 32837 32770 32811 32876 32857 32907 32998 32973 32897 32840 32822 32818 32836 32873 32939 32978 33003 32953 32846 32666 32540 32419 32521 32604 32734 32900 32848 32704 32567 32541 32547 32547 32565 32536 32496 32460 32280 32142 32111 32194 32311 32432 32590 32703 32746 32601 32482 32372 32231 32148 32092 32144 32321 32445 32478 32407 32408 32466 32536 32674 32795 32875 32959 32958 32828 32737 32692 32688 32747 32846 32893 33014 33039 32985 32896 32905 32982 33047 33121 33164 33229 33295 33264 33180 33094 33072 33091 33177 33267 33313 33387 33452 33452 33443 33426 33403 33447 33524 33598 33626 33629 33612 33569 33542 33591 33612 33679 33733 33793 33874 33948 33895 33792 33736 33748 33753 33723 33651 33626 33706 33666 33644 33662 33682 33781 33873 33962 34057 34134 34174 34147 34141 34133 34125 34157 34228 34327 34404 34497 34426 34324 34287 34287 34352 34421 34493 34546 34585 34640 34619 34569 34498 34483 34511 34537 34571 34529 34575 34532 34465 34455 34444 34442 34448 34507 34563 34590 34601 34502 34414 34434 34486 34471 34435 34475 34536 34615 34573 34432 34298 34217 34224 34254 34305 34323 34341 34252 34045 33925 33784 33753 33793 33854 33913 33965 33976 33808 33598 33517 33460 33425 33414 33387 33445 33462 33361 33062 32912 32883 32913 33024 33126 33228 33244 33286 33182 32937 32778 32739 32797 32924 33025 33076 32997 32897 32768 32719 32761 32807 32869 32887 32931 33018 32972 32839 32731 32692 32760 32933 33011 33062 33062 33105 33089 33111 33210 33267 33311 33559 33740 33711 33658 33587 33526 33529 33658 33592 33603 33647 33667 33745 33793 33683 33595 33766 33946 34125 34302 34479 34638 34783 34739 34659 34467 34236 34137 34092 34073 34100 34116 34106 33970 33878 33854 33837 33824 33771 33729 33735 33744 33750 33600 33565 33562 33593 33694 33759 33820 33865 33873 33787 33680 33619 33560 33563 33637 33733 33800 33824 33821 33770 33750 33752 33795 33837 33851 33876 33901 33887 33779 33625 33582 33519 33629 33671 33730 33803 33889 33890 33832 33769 33701 33699 33742 33783 33851 33908 33879 33738 33618 33593 33537 33584 33654 33732 33811 33864 33755 33581 33502 33510 33463 33441 33457 33499 33588 33512 33429 33261 33215 33246 33293 33382 33465 33517 33510 33381 33169 32975 32894 32853 32892 32953 33024 33069 33001 32928 32864 32859 32903 32968 33049 33036 33060 33095 32992 32792 32610 32593 32678 32722 32825 32851 32917 32900 32817 32766 32788 32849 32898 32961 33033 33091 33094 32886 32648 32632 32669 32797 32845 32905 33007 33105 33080 32921 32802 32785 32801 32902 33030 33224 33386 33470 33397 33269 33021 32919 32945 33055 33224 33340 33422 33226 33017 32917 32882 32903 32998 33111 33237 33339 33297 33051 32866 32800 32813 32917 33019 33088 33121 33135 33091 32966 32890 32861 32898 32948 32984 33015 32983 32930 32793 32733 32781 32822 32912 32926 32965 33009 33058 33079 32994 32842 32807 32748 32803 32752 32814 32921 32969 32892 32774 32756 32743 32769 32806 32801 32825 32895 32816 32682 32557 32513 32504 32579 32681 32778 32906 32931 32773 32601 32540 32520 32483 32485 32498 32558 32595 32499 32286 32173 32199 32307 32463 32633 32743 32801 32738 32584 32460 32344 32239 32176 32192 32241 32371 32346 32233 32135 32102 32183 32302 32422 32457 32470 32526 32515 32401 32251 32148 32180 32211 32341 32329 32397 32465 32433 32403 32345 32378 32417 32497 32579 32611 32616 32563 32345 32285 32302 32388 32395 32475 32585 32686 32817 32754 32646 32550 32533 32554 32586 32609 32619 32550 32471 32361 32301 32231 32258 32379 32512 32665 32779 32876 32726 32593 32522 32468 32506 32571 32590 32606 32631 32609 32420 32299 32325 32400 32592 32757 32879 32966 32965 32845 32751 32658 32608 32635 32732 32785 32662 32688 32631 32582 32529 32537 32553 32566 32565 32606 32618 32605 32574 32437 32368 32436 32477 32638 32714 32847 33011 33079 33059 32988 32913 32927 32938 32964 32940 32947 32953 32751 32590 32471 32536 32560 32592 32678 32761 32883 32847 32683 32546 32444 32443 32486 32557 32596 32492 32452 32217 32024 31831 31804 31890 32014 32178 32312 32334 32174 31934 31800 31737 31752 31872 32157 32408 32570 32530 32345 32211 32155 32191 32286 32394 32505 32604 32701 32721 32645 32564 32524 32561 32661 32787 32833 32834 32870 32747 32627 32550 32543 32595 32615 32625 32676 32692 32723 32750 32870 32954 33084 33010 33040 33051 33111 33125 32961 32771 32636 32588 32620 32689 32771 32825 32818 32768 32570 32418 32315 32276 32359 32453 32582 32711 32746 32522 32351 32282 32282 32266 32304 32371 32482 32583 32477 32440 32346 32357 32431 32548 32699 32826 32904 32928 32867 32827 32799 32791 32856 32934 32971 32933 33037 33008 32983 32922 32903 32984 33085 33149 33235 33294 33352 33336 33281 33228 33228 33297 33299 33423 33458 33525 33523 33439 33394 33405 33452 33518 33597 33691 33806 33885 33842 33765 33748 33821 33920 33908 33942 34009 34099 34096 33990 33886 33797 33804 33860 33901 33950 34005 34033 33940 33818 33796 33771 33735 33763 33782 33834 33905 33944 33830 33713 33697 33705 33725 33782 33794 33843 33934 33839 33518 33307 33217 33236 33314 33388 33482 33517 33566 33502 33337 33189 33095 33125 33292 33466 33485 33400 33354 33225 33135 33117 33143 33206 33215 33244 33329 33324 33224 33060 32999 32986 33020 33061 33004 33094 33150 33201 33071 32939 32904 32917 32962 33025 33137 33215 33286 33186 33059 32955 32925 32806 32796 32832 32896 32961 32987 32784 32573 32487 32504 32553 32628 32765 32932 33078 33068 32940 32676 32573 32576 32632 32729 32848 32947 32907 32754 32637 32616 32665 32784 32896 32976 33035 33157 33067 32886 32781 32701 32746 32841 32919 32957 32960 33060 33006 32931 32886 32801 32802 32818 32943 32918 32963 32979 32863 32775 32746 32779 32829 32954 33070 33188 33290 33341 33232 33169 33151 33162 33107 33100 33142 33214 33242 33122 32963 32815 32770 32783 32774 32751 32732 32805 32760 32745 32652 32575 32633 32704 32802 32923 33038 33093 33011 32887 32819 32861 32893 32951 32981 32981 33074 32695 32643 32542 32441 32489 32592 32739 32898 33044 33153 33121 33077 33022 33045 33158 33330 33504 33667 33667 33532 33361 33191 33129 33177 33281 33370 33449 33533 33634 33518 33657 33666 33691 33726 33721 33574 33429 33379 33289 33245 33241 33291 33323 33346 33236 33153 33095 32972 32876 32923 33043 33159 33284 33310 33076 32814 32679 32714 32804 32929 33057 33153 33266 33187 32929 32609 32377 32311 32378 32502 32655 32761 32637 32309 32080 32013 32044 32134 32319 32497 32708 32851 32770 32311 32009 31929 31979 32101 32258 32408 32548 32564 32203 31929 31854 31792 31694 31753 31985 32039 32089 32015 31721 31565 31539 31638 31784 31924 31931 31894 31883 31761 31636 31517 31455 31462 31552 31695 31725 31759 31797 31702 31632 31659 31697 31739 31800 31856 31873 31839 31691 31611 31662 31754 31874 31911 32011 32083 32181 32190 32072 31964 31930 31967 32018 32041 32091 32111 32128 32077 32073 32047 32028 32104 32219 32319 32449 32577 32533 32342 32259 32232 32227 32230 32266 32319 32415 32440 32407 32215 32114 32136 32170 32301 32439 32545 32644 32616 32517 32386 32309 32260 32254 32378 32535 32806 32880 32887 32972 33058 33265 33429 33453 33570 33701 33825 33800 33655 33519 33439 33482 33594 33685 33660 33704 33700 33591 33499 33435 33411 33399 33437 33489 33529 33547 33413 33189 33109 33115 33228 33287 33306 33353 33391 33353 33249 33148 33067 33052 33044 33053 33084 33052 33040 32970 32810 32780 32638 32646 32687 32731 32822 32903 32746 32490 32315 32254 32212 32259 32307 32394 32490 32498 32107 31839 31729 31747 31857 31996 32151 32195 32156 31964 31710 31508 31408 31416 31564 31715 31852 31828 31786 31594 31478 31468 31543 31640 31713 31805 31873 31918 31861 31675 31586 31552 31641 31614 31624 31679 31753 31659 31477 31390 31338 31429 31507 31528 31566 31599 31593 31457 31366 31377 31330 31364 31462 31558 31700 31822 31716 31468 31377 31379 31414 31418 31493 31644 31917 32064 32060 31866 31789 31881 32005 32164 32337 32505 32524 32412 32317 32267 32262 32227 32175 32257 32346 32484 32376 32183 32064 32051 32112 32238 32391 32510 32605 32718 32811 32946 33048 33087 33190 33282 33359 33320 33315 33205 33092 33065 33078 33144 33226 33292 33348 33430 33537 33531 33517 33568 33576 33598 33656 33725 33780 33749 33602 33433 33280 33263 33242 33245 33255 33291 33290 33218 33114 33074 33088 33040 33069 33145 33220 33291 33341 33197 33034 32929 32923 32966 32976 32983 33147 33333 33365 33167 32884 32798 32804 32909 33062 33218 33325 33282 33121 32988 32906 32884 32975 33117 33282 33430 33371 33170 32918 32745 32713 32746 32921 33234 33593 33850 33844 33679 33477 33315 33269 33247 33327 33179 33112 33007 32717 32467 32347 32379 32426 32447 32495 32544 32568 32515 32272 32155 32070 32162 32099 32159 32247 32393 32467 32388 32252 32199 32200 32240 32225 32257 32319 32340 32153 31893 31766 31627 31658 31756 31847 31967 32121 32065 31985 32059 32066 32057 32079 32115 32153 32194 32148 31983 31679 31630 31629 31707 31846 32000 32126 32200 32113 31972 31747 31685 31691 31770 31939 32096 32138 31984 31827 31708 31700 31821 31926 32083 32122 32166 32170 32037 31809 31597 31618 31787 31984 32093 32088 32153 32094 31996 31938 31944 31979 32060 32102 32134 32170 32123 31893 31731 31735 31818 31847 31864 31972 32065 32147 32051 31923 31793 31746 31765 31843 31933 32059 32118 31947 31778 31677 31710 31743 31866 31980 32082 32184 32184 32052 31921 31887 31856 31843 31931 31950 32026 32076 32082 31921 31834 31887 31995 32129 32280 32429 32416 32250 32099 31959 31905 31885 31899 32094 32360 32491 32307 32111 32003 32012 32130 32254 32419 32496 32533 32482 32344 32164 31938 31840 31913 32021 32196 32276 32153 31952 31872 31941 32082 32212 32259 32324 32389 32397 32268 32103 31965 32015 32143 32301 32326 32372 32397 32260 32218 32237 32291 32384 32511 32727 32806 32845 32800 32729 32743 32786 32929 32829 32800 32844 32894 32840 32691 32563 32483 32472 32518 32571 32599 32585 32433 32423 32591 32786 32734 32774 32848 32904 32986 32943 32756 32503 32390 32385 32421 32469 32456 32445 32379 32164 32078 31967 31985 32100 32199 32345 32505 32535 32355 32240 32226 32241 32244 32320 32421 32591 32649 32499 32271 32194 32237 32372 32555 32702 32834 32838 32710 32533 32346 32320 32403 32515 32611 32725 32717 32395 32143 31998 32000 32130 32264 32347 32348 32296 32140 31982 31816 31711 31799 31982 32093 32182 32119 31869 31631 31566 31654 31779 31924 31909 31931 31930 31908 31696 31528 31535 31761 31959 31975 31970 32054 32067 31981 31939 31971 32045 32104 32162 32207 32201 32148 32023 31979 32087 32187 32267 32300 32326 32380 32405 32326 32209 32092 32060 32063 32111 32173 32279 32447 32412 32347 32278 32280 32280 32356 32485 32633 32730 32632 32439 32313 32297 32394 32457 32543 32654 32785 32733 32587 32498 32479 32549 32619 32716 32860 32955 32813 32564 32417 32402 32420 32475 32515 32544 32582 32535 32395 32220 32175 32273 32401 32617 32786 32947 32957 32791 32687 32625 32661 32736 32830 32937 33055 33052 32840 32526 32363 32298 32353 32478 32606 32683 32688 32522 32326 32216 32228 32336 32525 32646 32806 32803 32580 32401 32295 32320 32415 32528 32578 32605 32641 32678 32568 32460 32424 32469 32599 32712 32714 32679 32688 32551 32419 32368 32362 32370 32396 32408 32488 32564 32547 32414 32324 32351 32360 32458 32433 32439 32473 32357 32217 32144 32110 32126 32138 32205 32272 32342 32338 32209 32138 32069 32145 32106 32112 32182 32270 32278 32125 31954 31875 31880 31965 32055 32119 32193 32296 32279 32151 32089 31917 31945 32023 32172 32319 32434 32261 31986 31840 31848 31875 31907 31988 32150 32408 32337 32191 31828 31698 31746 31881 32038 32197 32403 32313 32117 32020 31960 31957 31992 32076 32228 32435 32420 32197 32002 31930 31954 32044 32229 32351 32458 32459 32305 31999 31709 31583 31638 31764 31856 31969 32008 31831 31649 31593 31660 31812 31978 32095 32160 32157 32138 31998 31800 31662 31618 31719 31864 31892 31968 31904 31702 31560 31567 31584 31626 31634 31677 31881 32146 32168 32233 32203 32240 32139 32126 32230 32317 32471 32410 32165 31887 31791 31942 32197 32460 32716 32893 32889 32743 32552 32338 32309 32409 32512 32662 32763 32789 32562 32384 32327 32297 32368 32484 32589 32800 32903 32873 32551 32352 32289 32316 32390 32450 32537 32535 32395 32167 31992 31938 31958 32068 32261 32447 32474 32372 32250 32157 32126 32173 32248 32337 32355 32392 32470 32474 32394 32281 32310 32427 32557 32521 32559 32644 32636 32526 32393 32351 32302 32296 32328 32371 32428 32387 32158 32096 32025 32013 31988 32065 32169 32301 32385 32255 32023 31809 31731 31715 31752 31774 31666 31913 32171 32184 31932 31778 31813 31903 32050 32188 32272 32168 31900 31644 31449 31252 31127 31226 31519 31816 31978 31802 31609 31532 31563 31669 31795 31864 31904 31870 31773 31495 31220 31033 31094 31305 31530 31596 31624 31587 31396 31277 31278 31326 31379 31441 31440 31437 31393 31312 31240 31296 31352 31387 31400 31434 31516 31650 31684 31485 31298 31198 31215 31281 31271 31216 31257 31380 31405 31360 31300 31270 31348 31466 31598 31809 31916 31716 31503 31343 31304 31260 31260 31326 31467 31669 31758 31547 31300 31236 31315 31497 31683 31825 31935 31925 31699 31529 31393 31236 31043 31033 31212 31488 31582 31388 31259 31203 31317 31478 31652 31728 31762 31755 31705 31574 31380 31118 31092 31307 31512 31658 31675 31691 31580 31513 31524 31597 31661 31717 31751 31816 31883 31844 31595 31568 31670 31831 31855 31873 31947 32041 32087 31942 31793 31691 31649 31689 31771 31870 31935 31942 31853 31715 31678 31575 31593 31683 31806 31969 32104 31967 31678 31559 31724 31839 31998 32173 32364 32551 32440 32091 31636 31417 31398 31483 31643 31807 31882 31754 31461 31162 30933 30940 31087 31262 31491 31663 31611 31294 31065 30989 31066 31280 31447 31556 31581 31574 31507 31328 31140 31012 31067 31312 31401 31464 31369 31293 31089 30994 31057 31135 31236 31278 31330 31452 31503 31452 31316 31270 31378 31503 31530 31482 31551 31643 31627 31530 31473 31399 31442 31446 31538 31702 31836 31869 31703 31615 31656 31618 31564 31623 31715 31861 31924 31682 31423 31297 31268 31249 31146 31230 31455 31737 31764 31626 31365 31270 31389 31566 31781 32036 32194 32001 31678 31492 31416 31406 31508 31605 31831 32079 32086 31660 31421 31330 31428 31613 31769 31860 31929 31834 31678 31563 31465 31439 31505 31707 31939 32033 31914 31669 31479 31438 31567 31715 31826 31864 31872 31970 32056 31951 31767 31608 31732 31880 31976 31863 31829 31754 31589 31531 31534 31597 31639 31685 31804 31947 32085 31985 31769 31731 31772 31841 31785 31750 31837 31932 31889 31720 31589 31597 31747 31897 32006 32144 32225 32154 32026 32019 31993 31843 31802 31846 31935 32103 32211 32114 31893 31860 32083 32374 32470 32410 32400 32488 32197 31794 31336 31269 31310 31458 31665 31879 32016 31794 31429 31206 31147 31124 31161 31276 31595 31902 31765 31364 31086 30969 31036 31183 31356 31528 31586 31606 31485 31260 31092 31055 31124 31236 31293 31215 31111 30905 30681 30627 30741 30861 30908 30927 30914 30955 30926 30744 30570 30605 30806 30973 30943 30945 31046 30996 30793 30695 30652 30679 30709 30772 30934 31050 31144 30987 30851 30873 30952 30916 30915 30964 31053 31206 31152 30922 30738 30617 30644 30758 30850 30932 31003 31128 30973 30834 30654 30592 30673 30830 31013 31176 31245 30965 30686 30639 30693 30712 30814 30995 31257 31445 31345 30952 30748 30713 30838 31044 31226 31417 31476 31423 31319 31194 31086 31012 31037 31262 31463 31570 31456 31262 31074 31039 31137 31302 31461 31550 31568 31587 31398 31205 31037 30954 31080 31311 31405 31398 31450 31430 31287 31193 31180 31270 31319 31365 31442 31458 31495 31319 31172 31181 31372 31365 31311 31381 31475 31621 31595 31432 31256 31183 31215 31330 31405 31517 31552 31304 31069 30995 30937 30939 31040 31163 31340 31504 31514 31155 30860 30720 30783 30875 30976 31034 31280 31522 31418 31086 30828 30787 30878 31005 31148 31336 31395 31052 30721 30583 30548 30564 30616 30854 31121 31295 31188 30799 30600 30542 30651 30826 31004 31120 31118 31113 31021 30820 30669 30604 30740 30901 31001 31089 31003 30703 30448 30425 30551 30744 30872 30947 31106 31272 31361 31313 31262 31264 31356 31488 31557 31552 31604 31542 31354 31229 31162 31171 31207 31226 31236 31226 31229 31082 30940 30948 31079 31111 31083 31105 31186 31300 31283 31108 30955 30844 30856 30938 30979 31016 31121 31174 30989 30883 30787 30772 30857 30979 31168 31372 31515 31295 31037 30942 31014 31171 31337 31452 31590 31746 31624 31284 31092 31052 31140 31276 31435 31582 31678 31610 31360 31225 31167 31165 31273 31416 31546 31718 31832 31624 31401 31263 31277 31394 31577 31653 31703 31710 31630 31441 31290 31241 31371 31487 31720 31866 31905 31806 31559 31423 31391 31484 31562 31564 31555 31599 31663 31546 31310 31178 31129 31309 31407 31443 31522 31631 31611 31394 31226 31117 31145 31212 31311 31313 31285 31337 31262 31114 31106 31097 31137 31241 31375 31510 31694 31693 31328 31023 30904 30967 31102 31218 31279 31351 31302 31019 30871 30748 30741 30859 31021 31208 31391 31523 31358 31018 30881 30898 30945 31050 31174 31355 31508 31375 30898 30611 30548 30665 30866 31095 31253 31366 31354 31200 30948 30799 30795 30905 31080 31253 31297 31195 31019 30788 30655 30719 30842 30970 31008 31041 31047 31028 30962 30864 30851 30956 31063 31130 31087 31077 31118 30990 30835 30786 30794 30860 30936 31050 31141 31280 31475 31391 31227 31104 30978 30936 30997 31102 31259 31447 31322 31056 30922 30902 30962 31133 31288 31413 31585 31553 31280 31085 30992 30931 30987 31107 31229 31393 31546 31423 31139 30967 30979 31072 31174 31288 31400 31543 31449 31166 30929 30781 30807 30939 31086 31260 31384 31358 31084 30852 30800 30877 31033 31166 31314 31466 31607 31459 31078 30850 30779 30897 31048 31181 31227 31239 31108 30893 30756 30696 30738 30883 31045 31214 31260 31192 30972 30793 30750 30795 30847 30866 30829 30785 30871 30883 30749 30627 30652 30796 30959 30932 30935 31039 31105 31010 30847 30735 30599 30610 30636 30706 30789 30877 30833 30684 30660 30733 30731 30740 30801 30905 31068 31005 30726 30386 30238 30278 30447 30639 30864 30991 30964 30561 30298 30214 30226 30363 30492 30631 30788 30956 30729 30433 30389 30592 30877 31128 31330 31523 31570 31325 30870 30593 30552 30681 30922 31119 31170 31140 31060 30883 30736 30737 30816 30961 31217 31382 31483 31315 31041 30822 30779 30864 31000 31069 31107 31087 31175 31098 30833 30657 30715 30929 31168 31248 31226 31254 31262 31103 30995 30959 31006 31061 31082 31158 31171 31206 31049 30923 30956 31019 30890 30878 30886 31006 31182 31142 30868 30538 30457 30543 30704 30791 30857 30992 31175 30899 30628 30445 30396 30557 30761 31042 31284 31342 31037 30743 30753 30825 30993 31214 31485 31742 31957 31699 31134 30856 30844 30969 31185 31341 31393 31387 31253 31071 30847 30771 30809 30954 31190 31352 31357 31245 31033 30830 30765 30830 30950 31014 31019 31040 31140 31158 31011 30760 30719 30912 31075 31087 31092 31229 31283 31212 31190 31240 31323 31406 31526 31663 31744 31881 31851 31772 31687 31693 31578 31560 31619 31748 31901 31765 31468 31225 31164 31288 31437 31600 31764 31922 31894 31685 31355 31142 31127 31244 31433 31679 31840 31839 31487 31184 31103 31178 31338 31461 31738 31979 32031 31605 31117 30936 30975 31172 31402 31587 31617 31545 31413 31265 31196 31187 31284 31556 31816 31895 31765 31511 31247 31083 31137 31263 31400 31481 31483 31513 31541 31413 31284 31320 31524 31762 31787 31711 31713 31776 31697 31557 31428 31417 31392 31391 31451 31480 31555 31557 31464 31405 31362 31228 31173 31190 31287 31411 31437 31238 30891 30688 30636 30707 30741 30672 30725 30985 30875 30617 30391 30395 30558 30790 31057 31277 31384 31204 30975 31075 31331 31493 31693 32021 32371 32598 32295 31876 31632 31584 31719 31927 32077 32194 32298 32470 32501 32489 32540 32683 32902 33079 33009 32835 32728 32463 32252 32155 32062 31996 31918 31827 31807 31735 31524 31177 31139 31200 31285 31297 31346 31437 31541 31518 31330 31174 31072 31073 31204 31411 31605 31670 31729 31629 31433 31157 30968 30971 31048 31210 31387 31514 31224 30734 30607 30664 30874 31089 31181 31375 31640 31546 31113 30764 30653 30724 30898 31073 31232 31372 31153 30809 30554 30532 30666 30893 31231 31502 31609 31272 30851 30554 30495 30646 30824 31096 31180 31201 31203 31104 30951 30689 30619 30970 31291 31402 31272 31246 31004 30740 30655 30753 30872 30931 30958 31031 31097 31121 30869 30768 30908 31046 30955 30926 31005 31174 31310 31208 31074 30982 30956 31038 31230 31444 31633 31708 31607 31570 31483 31329 31335 31387 31450 31575 31694 31642 31355 31072 30971 30983 31067 31231 31418 31687 31801 31512 31157 31001 30983 31135 31317 31496 31639 31597 31272 30990 30900 30940 31061 31262 31547 31841 31844 31443 31176 31013 31115 31350 31519 31638 31762 31752 31621 31483 31393 31401 31463 31646 31835 31925 31861 31660 31418 31259 31332 31455 31611 31725 31731 31731 31816 31760 31613 31559 31720 32003 31901 31814 31846 31916 31840 31704 31613 31556 31597 31582 31613 31630 31718 31619 31363 31371 31529 31499 31504 31580 31668 31812 31748 31500 31355 31180 31141 31039 30709 30935 31150 31325 31310 31161 31015 30937 30956 31077 31267 31485 31569 31229 30858 30669 30740 30840 30958 31062 31284 31564 31517 31102 30833 30819 30926 31062 31232 31401 31504 31285 31058 31124 31328 31546 31722 31985 32118 32054 31624 31173 30878 30846 31015 31216 31405 31463 31473 31454 31285 31166 31115 31189 31396 31598 31513 31443 31402 31145 30934 30954 31040 31181 31229 31297 31401 31463 31326 31111 31070 31125 31195 31186 31180 31234 31324 31342 31174 31059 30981 30956 31026 31154 31265 31363 31407 31312 31251 31228 31226 31277 31342 31460 31605 31723 31463 31131 31003 31091 31260 31450 31591 31660 31779 31608 31280 31027 30956 31013 31130 31338 31505 31677 31455 31159 31013 31038 31129 31252 31414 31658 31878 31729 31392 31205 31186 31302 31510 31677 31783 31810 31698 31467 31272 31188 31220 31348 31566 31726 31787 31725 31517 31335 31356 31500 31612 31675 31667 31645 31735 31703 31539 31357 31396 31555 31698 31678 31650 31708 31643 31507 31456 31465 31546 31555 31556 31620 31787 31919 31779 31495 31490 31599 31581 31570 31612 31653 31698 31564 31370 31242 31223 31247 31353 31553 31856 32180 32243 32174 32002 31688 31559 31592 31712 31862 31989 31761 31355 31076 31040 31137 31282 31487 31655 31774 31675 31316 30972 30809 30912 31064 31298 31499 31671 31555 31147 30875 30884 31015 31170 31262 31354 31540 31469 30983 30627 30541 30585 30761 30971 31127 31212 31149 30976 30891 30949 31077 31188 31270 31439 31482 31435 31037 30765 30610 30649 30827 31028 31139 31261 31313 31232 31088 30940 30893 30973 31131 31322 31343 31337 31310 31111 30994 31020 31117 31233 31302 31367 31439 31489 31402 31222 31123 31097 31218 31314 31307 31373 31456 31346 31154 31051 31067 31109 31175 31177 31222 31364 31329 31172 31102 31135 31119 31142 31199 31285 31418 31425 31282 31227 31199 31223 31275 31369 31514 31745 31885 31812 31546 31299 31300 31401 31591 31765 31907 31958 31693 31375 31140 31093 31154 31219 31344 31558 31710 31639 31278 31009 30945 31004 31182 31361 31541 31717 31730 31492 31302 31220 31282 31412 31635 31904 32121 32006 31813 31636 31572 31577 31680 31754 31828 31811 31815 31836 31745 31642 31487 31371 31390 31377 31310 31276 31242 31012 30830 30794 30752 30912 31012 31056 31108 31126 30982 30728 30574 30681 30867 31142 31217 31249 31292 31235 31095 31023 31046 31071 31060 31112 31220 31327 31403 31090 30852 30794 30801 30857 30918 30965 31107 31347 31321 31097 30876 30796 30761 30743 30779 30957 31141 31178 30932 30725 30592 30585 30699 30842 31058 31256 31373 31063 30666 30484 30471 30517 30630 30763 30981 31155 31031 30676 30444 30409 30533 30730 30960 31144 31295 31201 30897 30693 30620 30655 30784 31058 31283 31339 31184 30802 30477 30426 30520 30635 30743 30730 30684 30707 30641 30431 30266 30333 30597 30818 30942 30819 30797 30801 30634 30447 30296 30235 30247 30325 30469 30543 30650 30560 30438 30435 30469 30537 30546 30594 30668 30748 30641 30391 30165 30107 30193 30323 30458 30635 30829 30919 30717 30482 30261 30262 30353 30434 30572 30647 30609 30230 29966 29897 29907 30032 30189 30416 30742 31030 30898 30525 30294 30324 30494 30670 30809 30886 30893 30738 30427 30065 29860 29940 30256 30667 30965 31067 31020 30814 30685 30731 30858 31012 31088 31106 31088 31092 30958 30606 30383 30420 30655 30944 30991 30978 31027 31013 30894 30806 30763 30777 30864 30983 31086 31141 31104 30986 31046 31136 31118 31166 31269 31410 31553 31650 31522 31252 31181 31184 31281 31402 31478 31499 31678 31789 31699 31437 31251 31270 31383 31506 31628 31738 31568 31220 30990 30997 31113 31239 31324 31498 31737 31853 31575 31196 31016 31009 31084 31210 31351 31422 31465 31278 31116 31047 31158 31401 31596 31766 31846 31824 31444 31000 30770 30782 30889 31012 31061 31150 31235 31281 31160 31090 31136 31260 31449 31475 31427 31400 31353 31119 30923 30866 30872 30951 31003 31107 31227 31360 31299 31161 31114 31143 31129 31139 31179 31268 31351 31215 30838 30577 30539 30584 30736 30879 31026 31184 31271 31045 30813 30626 30583 30621 30661 30752 30846 30725 30312 30088 30075 30245 30479 30719 30957 31137 31251 31018 30618 30360 30317 30382 30541 30740 30848 30781 30381 30015 29963 29993 30094 30255 30499 30742 30960 30778 30362 30160 30185 30293 30444 30551 30664 30692 30452 30242 30136 30009 30005 30194 30511 30757 30901 30672 30309 30137 30137 30216 30366 30513 30544 30529 30605 30494 30309 30222 30341 30652 30870 30956 30907 30862 30641 30469 30415 30412 30579 30644 30735 30860 30907 30758 30534 30531 30714 30917 30941 30898 30923 30993 30853 30636 30548 30555 30556 30625 30755 30843 30910 30864 30771 30772 30876 30952 30964 31014 31049 31115 31017 30762 30532 30440 30517 30720 30911 31010 31050 31087 30957 30852 30759 30798 30902 30978 31073 31166 31172 30816 30522 30459 30588 30815 30979 31063 31228 31286 31128 30882 30771 30821 30967 31127 31250 31368 31492 31334 31203 31170 31148 31253 31391 31620 31844 31875 31504 31074 30841 30836 30993 31196 31344 31395 31387 31252 31091 30988 30944 30984 31200 31375 31479 31397 31158 30867 30760 30877 31042 31163 31212 31253 31261 31217 31097 30955 30876 30938 31154 31198 31198 31189 31121 30892 30750 30705 30710 30754 30792 30816 30797 30825 30633 30508 30529 30772 30842 30790 30805 30887 31005 30864 30657 30531 30485 30455 30537 30686 30846 30959 30869 30739 30723 30646 30577 30594 30697 30853 31034 30892 30561 30426 30398 30537 30738 30890 31023 31129 31113 30867 30679 30508 30503 30620 30760 30968 31138 31149 30833 30511 30452 30565 30764 30922 31023 31205 31228 30871 30471 30320 30421 30600 30795 30906 31026 30886 30535 30269 30130 30035 30092 30312 30686 30980 30946 30590 30297 30230 30388 30609 30786 30860 30840 30852 30729 30512 30399 30404 30668 31063 31662 31492 31336 31025 30786 30605 30378 30449 30580 30616 30808 31090 31123 31008 31006 31139 31347 31290 31141 31027 30994 30969 30823 30711 30652 30682 30864 31148 31394 31618 31712 31581 31547 31511 31347 31301 31343 31466 31687 31796 31570 31213 31003 31133 31366 31547 31765 31994 32126 32058 31754 31364 31191 31153 31279 31511 31686 31682 31239 30880 30885 30983 31128 31288 31392 31659 31886 31503 31001 30820 30828 31015 31299 31521 31639 31625 31361 31147 31093 31162 31268 31299 31554 31824 31786 31298 30879 30643 30686 30930 31181 31316 31328 31291 31255 31200 31194 31142 31166 31319 31522 31535 31362 31158 30887 30826 31003 31189 31287 31292 31274 31396 31568 31460 31288 31292 31516 31687 31679 31519 31515 31501 31378 31346 31341 31236 31203 31315 31434 31606 31748 31640 31592 31738 31852 31767 31717 31719 31785 31911 31799 31521 31272 31217 31355 31535 31729 32007 32228 32129 31943 31535 31376 31410 31521 31781 32049 32152 31785 31257 31028 31043 31226 31506 31824 32051 32352 32258 31774 31255 31082 31130 31342 31640 31871 31839 31342 30961 30865 30929 31073 31270 31472 31759 31931 31704 31202 31004 31023 31201 31522 31754 31773 31735 31783 31808 31896 31950 31972 32130 32340 32509 32341 31944 31581 31339 31391 31569 31580 31636 31603 31835 32132 32315 32522 32650 32669 32773 32779 32484 32274 32174 31933 31837 31866 31957 32022 32017 32128 32471 32782 32679 32469 32528 32845 32970 32786 32694 32635 32631 32531 32255 32048 31871 31825 32004 32271 32461 32592 32423 32358 32360 32238 32113 32158 32172 32344 32488 32277 31814 31499 31505 31732 32023 32336 32602 32796 32671 32185 31691 31534 31609 31723 31957 32094 32040 31559 31177 31064 31149 31333 31578 31821 32108 32315 31830 31225 30967 30907 31023 31302 31475 31478 31420 31303 31161 31071 31117 31234 31474 31754 31916 31624 31392 31051 30872 30953 31103 31242 31290 31333 31460 31660 31653 31562 31502 31637 31912 31938 31731 31738 31661 31411 31275 31264 31262 31226 31255 31402 31580 31689 31606 31448 31521 31781 31879 31769 31808 31869 31940 31860 31658 31469 31331 31383 31573 31769 31868 31958 31773 31633 31571 31570 31478 31553 31625 31698 31891 31748 31447 31161 31128 31262 31450 31703 31916 32093 31971 31802 31513 31325 31264 31201 31373 31620 31696 31471 31012 30905 31012 31205 31483 31756 31959 32187 32057 31519 31194 31123 31198 31410 31575 31692 31746 31515 31278 31219 31229 31353 31518 31735 32037 32136 31641 31181 30894 30834 30966 31128 31222 31195 31185 31140 30977 30833 30777 30815 31061 31401 31387 31304 31222 30926 30763 30802 30894 30940 30836 30859 31047 31110 30950 30812 30820 31093 31384 31290 31266 31342 31375 31178 31003 30872 30750 30726 30862 31132 31276 31405 31236 30930 30929 30899 30867 30897 30958 31070 31234 31108 30828 30476 30512 30705 30814 30938 30996 30978 30760 30646 30532 30459 30532 30628 30785 31007 31196 31022 30549 30366 30473 30650 30880 31141 31316 31471 31330 31040 30667 30574 30706 30851 31096 31280 31444 31140 30739 30605 30654 30762 30967 31182 31455 31727 31639 31156 30890 30843 30900 31133 31373 31512 31501 31265 31001 30873 30840 30914 31097 31390 31684 31683 31309 30938 30758 30786 31029 31319 31448 31482 31595 31546 31430 31332 31303 31463 31770 32002 32014 31897 31575 31247 31143 31273 31444 31616 31680 31714 31827 31927 31787 31685 31740 31942 32223 32321 32257 32132 31906 31579 31480 31525 31609 31622 31751 31976 32150 32354 32349 32292 32408 32628 32553 32442 32466 32584 32610 32483 32205 31984 31878 32038 32290 32531 32758 32936 32813 32766 32746 32515 32336 32305 32369 32528 32667 32436 31946 31643 31700 31912 32133 32326 32624 32777 32674 32546 32109 31927 31958 32009 32173 32360 32330 31736 31256 31171 31290 31434 31598 31797 32021 32267 32028 31403 31054 31024 31138 31392 31643 31773 31648 31081 30754 30655 30743 30947 31183 31376 31673 31760 31331 30841 30677 30683 30905 31219 31516 31645 31837 32005 32200 32370 32519 32696 32920 33248 33429 33230 32558 32163 32073 32258 32540 32762 32758 32658 32886 32931 32926 32922 32990 33164 33398 33537 33230 32872 32449 32028 31881 31960 32099 32000 32038 32191 32332 32304 32191 32099 32167 32344 32515 32241 32066 32012 31788 31610 31558 31511 31427 31423 31639 31875 32110 32226 32118 32070 32288 32378 32089 32087 32141 32144 32034 31837 31551 31379 31534 31913 32327 32655 32834 32763 32703 32774 32747 32584 32587 32814 33038 33249 33163 32890 32524 32299 32649 33031 33202 33429 33584 33409 33271 33030 32761 32691 32750 32779 32815 32886 32682 32096 31639 31387 31349 31349 31354 31404 31564 31435 31113 30707 30628 30737 30966 31223 31493 31705 31393 30902 30785 30847 31008 31211 31367 31456 31658 31401 30846 30524 30521 30655 30901 31232 31551 31773 31438 31215 31251 31391 31556 31796 31997 32253 32426 32044 31527 31309 31290 31373 31586 31794 31933 31791 31479 31348 31447 31543 31646 31856 32159 32437 32313 31799 31391 31162 31191 31381 31597 31702 31576 31548 31654 31560 31421 31337 31362 31626 31972 32078 31950 31815 31607 31466 31498 31668 31766 31651 31650 31987 32112 31965 31822 31726 31815 32039 32189 32088 32109 32016 31778 31696 31753 31821 31701 31690 32033 32228 32287 32132 32002 32024 32222 32226 32115 32109 32221 32168 32026 31945 31869 31762 31685 31851 31996 32181 32232 32021 31630 31599 32005 32192 31948 31932 32008 31967 31838 31719 31646 31634 31827 32187 32726 33112 33135 32982 33168 33156 32775 32632 32536 32545 32706 32580 32237 31833 31248 31306 31728 32051 32295 32465 32411 32174 31879 31422 31319 31356 31440 31698 31900 31757 31296 30887 30971 31205 31472 31678 31810 32099 32212 31941 31378 31134 31145 31195 31353 31539 31659 31355 30839 30697 30846 31022 31210 31409 31691 32040 32082 31679 31173 30971 30982 31126 31368 31508 31645 31457 31100 30975 31068 31123 31255 31523 31889 32264 31991 31545 31181 31043 31098 31336 31546 31759 31854 31893 31850 31937 31933 32011 32194 32572 32970 32868 32610 32233 31887 31781 31921 32101 32117 32115 32342 32609 32616 32534 32582 32753 33078 33354 33224 33178 33088 32835 32625 32613 32703 32641 32672 32908 33222 33492 33569 33555 33646 33909 34177 34188 34170 34239 34066 33723 33401 33130 32943 32840 32891 33060 33252 33324 33128 32942 32950 32913 32756 32597 32596 32647 32574 32347 32167 32049 32034 31864 31949 32206 32527 32850 32756 32434 32348 32493 32382 32276 32274 32272 32257 32107 31963 31838 31720 31846 32311 32676 32957 33104 32912 32841 32763 32432 32369 32448 32623 32847 33145 32921 32462 32022 31991 32271 32595 32865 33047 33124 32918 32846 32462 32218 32245 32310 32446 32651 32649 32171 31651 31495 31663 31860 32061 32306 32542 32702 32523 31926 31449 31347 31386 31513 31763 31962 31885 31327 31061 31078 31237 31451 31738 32069 32435 32574 32009 31313 31017 31010 31188 31476 31661 31696 31457 31048 30894 30983 31100 31337 31613 31976 32246 32071 31470 31057 30941 31023 31297 31516 31600 31608 31606 31462 31425 31426 31531 31703 31993 32349 32288 31909 31488 31268 31284 31468 31557 31527 31519 31581 31707 31618 31527 31505 31637 31883 32101 31908 31829 31746 31550 31460 31518 31552 31472 31443 31610 31868 32072 32116 32146 32161 32354 32419 32234 32225 32413 32450 32246 32118 32046 31921 31922 32099 32396 32642 32719 32541 32371 32427 32600 32429 32330 32384 32462 32382 32271 32139 31910 31804 31894 32086 32293 32377 32337 32130 32091 32116 31972 31928 31962 32029 32162 31999 31640 31314 31147 31173 31310 31531 31792 32074 32105 32019 31905 31622 31561 31600 31751 31942 32150 31887 31252 30840 30631 30709 30945 31158 31408 31672 31595 31301 30992 30805 30857 30989 31176 31424 31433 30892 30314 30193 30316 30557 30831 31151 31417 31639 31362 30739 30411 30401 30566 30863 31166 31300 31197 30779 30528 30577 30780 31000 31233 31488 31798 31871 31100 30486 30322 30415 30668 31019 31241 31220 31105 30822 30631 30666 30825 31053 31311 31577 31827 31587 31042 30687 30601 30736 31038 31248 31299 31277 31278 31167 31119 31123 31162 31226 31447 31691 31811 31610 31125 30852 30791 30916 31171 31363 31380 31417 31488 31393 31300 31248 31294 31402 31614 31815 31979 31766 31448 31232 31178 31333 31539 31681 31725 31769 31798 31664 31574 31541 31602 31752 31991 32131 32167 31953 31599 31396 31444 31599 31733 31824 31869 31945 31970 31813 31740 31751 31878 32161 32429 32485 32487 32273 31933 31769 31851 31974 31988 31991 32028 32164 32309 32267 32296 32484 32739 32986 32895 32780 32754 32532 32261 32181 32169 32171 32097 32175 32366 32518 32594 32564 32553 32604 32790 32580 32332 32237 32178 31958 31786 31709 31740 31688 31710 31826 32029 32179 32152 32044 32052 32272 32155 32003 31956 31961 31959 31690 31495 31453 31353 31338 31467 31586 31716 31818 31671 31604 31747 31809 31625 31560 31572 31647 31673 31424 31068 30834 30962 31011 31237 31481 31668 31776 31600 31486 31447 31384 31293 31333 31419 31561 31540 31227 30811 30578 30608 30736 30965 31230 31490 31572 31378 31147 30922 30882 30990 31128 31271 31456 31181 30568 30314 30395 30657 30937 31247 31513 31758 31860 31692 31324 31018 30966 31041 31229 31549 31825 31524 31025 30891 31012 31203 31429 31750 32056 32290 32092 31408 30876 30782 30880 31123 31426 31611 31746 31491 31235 31177 31359 31589 31863 32175 32555 32831 32571 31900 31513 31453 31583 31856 32055 32085 31931 31663 31472 31507 31628 31789 32004 32298 32561 32549 31941 31424 31237 31238 31416 31586 31657 31612 31716 31712 31661 31678 31820 31998 32237 32526 32546 32387 32096 31778 31677 31776 31895 31923 31902 32002 32182 32328 32324 32329 32371 32547 32814 32828 32638 32550 32271 31989 31943 32013 32046 31954 31991 32191 32316 32371 32267 32078 32056 32281 32379 32231 32216 32228 31974 31782 31737 31744 31777 31876 31979 32194 32380 32349 32154 32067 32162 32321 32191 32093 32138 32138 31941 31771 31680 31591 31643 31769 31981 32160 32293 32236 32019 31838 31875 31837 31859 31858 31915 32026 31833 31580 31359 31273 31450 31682 31894 32098 32271 32174 32076 31776 31580 31637 31738 31849 32027 32074 31704 31264 31024 31134 31349 31611 31895 32219 32398 32247 31861 31549 31477 31500 31628 31819 31967 31908 31534 31207 31168 31242 31459 31748 32044 32365 32263 31676 31180 30988 31012 31199 31429 31542 31609 31522 31280 31200 31212 31299 31467 31707 32009 32056 31656 31099 30768 30718 30862 31090 31221 31267 31313 31330 31253 31225 31224 31328 31581 31837 31929 31736 31373 30950 30752 30808 30986 31145 31163 31167 31217 31221 31040 30904 30967 31192 31491 31553 31432 31343 31167 30890 30804 30852 30950 30884 30862 30971 31089 31052 30834 30756 30899 31140 31278 31219 31177 31196 31126 31013 31027 31073 31055 31080 31136 31203 31316 31273 31145 31076 31205 31334 31385 31353 31400 31447 31290 31106 30999 31025 31103 31247 31380 31469 31564 31570 31427 31332 31284 31215 31185 31235 31366 31412 31184 30968 30830 30841 30913 31051 31222 31338 31427 31325 31138 31107 31088 31095 31145 31250 31408 31510 31221 30923 30766 30834 30942 31118 31269 31453 31588 31429 31265 31144 31114 31129 31216 31364 31527 31663 31408 31082 30930 30969 31145 31407 31645 31875 31892 31552 31119 30817 30736 30800 30914 31089 31273 31226 30788 30574 30527 30615 30800 31022 31253 31505 31618 31344 30983 30795 30796 30913 31080 31250 31401 31267 30774 30500 30435 30560 30749 30941 31162 31337 31217 30852 30495 30405 30484 30627 30827 31041 31212 31028 30579 30269 30224 30364 30438 30454 30461 30512 30239 29833 29658 29675 29812 29949 30141 30277 30304 30059 29740 29682 29805 29987 30171 30301 30333 30298 30241 30104 30013 30050 30168 30325 30470 30558 30642 30647 30388 30214 30340 30502 30562 30493 30429 30432 30331 30014 29898 29940 30027 30075 30144 30259 30388 30348 30041 29903 29981 30143 30324 30522 30737 30887 30909 30741 30542 30401 30306 30275 30295 30359 30380 30352 30072 29788 29617 29645 29854 30111 30277 30382 30449 30246 30047 30024 30174 30364 30508 30621 30708 30698 30338 29979 29803 29811 29890 29976 30070 30164 29988 29501 29147 29119 29256 29422 29567 29728 29921 30041 29827 29639 29623 29729 29846 29941 29960 29857 29641 29181 28887 28859 28995 29184 29368 29414 29308 29090 28825 28739 28793 28895 29081 29279 29436 29505 29566 29346 29155 29059 29169 29326 29331 29197 29042 28965 28748 28633 28740 28960 29099 29056 28920 28931 28980 28753 28547 28594 28826 29121 29355 29549 29704 29825 29624 29489 29425 29263 29073 28890 28854 28985 29123 29048 28916 28814 28699 28549 28573 28763 29003 29095 28908 28812 28864 29021 29210 29374 29502 29609 29740 29567 29056 28701 28584 28667 28865 29049 29202 29345 29175 28769 28504 28630 28948 29265 29454 29646 29906 30002 29823 29676 29649 29685 29703 29677 29643 29577 29319 28957 28894 29072 29295 29489 29594 29515 29363 29129 28969 28999 29203 29526 29936 30335 30599 30715 30728 30493 30165 29929 29840 29782 29709 29611 29607 29731 29679 29603 29636 29624 29546 29410 29471 29657 29877 30101 30223 30439 30658 30793 30837 30770 30699 30611 30534 30247 29844 29521 29396 29446 29638 29830 30015 30152 29731 29180 28986 29145 29432 29597 29647 29847 30060 29961 29731 29635 29736 29890 30033 30092 29959 29759 29470 29022 28852 28952 29149 29383 29486 29392 29251 29218 29056 28900 28890 29023 29288 29543 29674 29766 29842 29722 29394 29258 29247 29180 29035 28875 28846 28973 29091 28905 28812 28705 28584 28459 28453 28583 28770 28974 28983 28993 29077 29163 29235 29284 29284 29285 29271 29113 28637 28289 28238 28392 28665 28943 29146 29070 28831 28315 28057 28224 28650 29099 29520 29769 29803 29793 29636 29269 28973 28839 28829 28876 28819 28694 28692 28807 28730 28739 28874 28851 28738 28613 28689 28929 29141 29139 29014 28947 28993 29098 29149 29123 29068 29100 29133 28921 28526 28247 28262 28481 28766 28990 29008 28892 28460 28035 28030 28301 28519 28675 28907 29159 29341 29406 29184 28980 28916 28999 29112 29109 28906 28705 28632 28615 28567 28666 28881 28935 28842 28643 28579 28683 28830 28746 28719 28876 29130 29354 29516 29671 29757 29766 29696 29409 29058 28739 28579 28646 28855 29039 29195 29226 28914 28492 28280 28376 28564 28752 28982 29317 29674 29897 29690 29374 29246 29219 29287 29313 29226 29047 28826 28520 28412 28560 28815 29048 29125 29045 28883 28842 28905 28779 28725 28851 29159 29434 29583 29623 29582 29625 29574 29340 29146 29017 28912 28855 28939 29141 29311 29430 29215 28770 28428 28335 28483 28641 28798 29021 29346 29567 29393 29180 29050 29176 29416 29621 29611 29440 29236 28802 28490 28551 28770 29046 29258 29188 28948 28725 28625 28480 28463 28643 29015 29453 29737 29846 29788 29712 29664 29378 29216 29060 28916 28770 28711 28809 29007 29185 29083 28872 28695 28589 28608 28699 28837 28999 29182 29428 29402 29312 29237 29196 29270 29378 29408 29326 29162 28725 28226 28164 28398 28676 28946 29149 29166 29011 28806 28505 28433 28562 28805 29172 29570 29861 29976 29925 29783 29493 29322 29214 29066 28831 28535 28331 28421 28644 28628 28621 28749 28818 28756 28644 28609 28764 29001 29118 29037 29058 29150 29271 29272 29186 29156 29226 29359 29232 28717 28246 28086 28222 28470 28717 28893 28981 28875 28463 28112 28069 28208 28456 28689 28976 29259 29465 29518 29216 29008 28978 29043 29073 28948 28682 28375 28216 28185 28151 28278 28515 28765 28837 28726 28556 28563 28736 28746 28640 28747 29064 29324 29508 29513 29382 29249 29250 29088 28685 28281 28040 27995 28146 28376 28595 28804 28859 28528 28214 28097 28209 28381 28515 28587 28770 29009 29012 28868 28834 28926 29009 29041 28992 28812 28521 28237 27961 27867 28009 28243 28524 28698 28637 28432 28231 28269 28250 28190 28273 28555 28870 29096 29206 29236 29354 29464 29310 29051 28753 28448 28173 28059 28199 28448 28674 28831 28579 28255 28096 28052 28155 28400 28605 28819 29086 29206 28997 28822 28766 28852 28971 29119 29101 28898 28619 28215 27890 27962 28204 28502 28768 28742 28593 28418 28367 28351 28322 28446 28758 29184 29518 29696 29689 29683 29688 29591 29294 29053 28757 28450 28325 28490 28749 29035 29294 29268 28973 28845 28799 28880 29047 29209 29409 29629 29868 29953 29690 29460 29421 29427 29476 29513 29459 29243 28962 28741 28592 28681 28895 29155 29245 29141 28962 28881 29001 29147 29003 28860 28982 29193 29334 29388 29390 29376 29380 29348 29049 28682 28466 28431 28570 28804 29026 29146 29095 28938 28571 28190 28256 28493 28709 28929 29244 29598 29854 29998 30061 29902 29726 29535 29381 29257 29091 28854 28745 28883 28959 28844 28870 28912 28834 28681 28695 28867 29043 29142 29185 29059 29025 29091 29177 29249 29336 29452 29486 29409 29111 28455 27986 27977 28232 28531 28766 28879 28770 28527 28247 27988 27933 28087 28421 28899 29304 29556 29638 29592 29599 29373 29090 28824 28638 28450 28226 28174 28343 28537 28613 28430 28269 28117 27999 27984 28111 28332 28567 28843 29127 29104 29021 28930 28947 29113 29311 29374 29308 29125 28659 28070 27904 28075 28307 28532 28652 28623 28549 28428 28466 28414 28456 28663 29010 29333 29550 29712 29839 29943 30038 29895 29684 29338 28956 28570 28299 28390 28726 29004 29158 28880 28569 28431 28372 28515 28781 29073 29330 29598 29750 29539 29336 29253 29298 29418 29607 29745 29672 29416 29007 28369 28102 28207 28449 28698 28892 28930 28834 28781 28845 28765 28643 28605 28859 29191 29475 29609 29653 29675 29678 29392 29064 28791 28516 28381 28428 28620 28828 29001 29160 28991 28550 28251 28223 28447 28669 28809 28923 29141 29412 29404 29072 28799 28728 28745 28753 28737 28628 28445 28371 28387 28303 28340 28488 28632 28604 28459 28331 28352 28538 28785 28842 28904 29065 29212 29321 29296 29217 29258 29337 29365 29175 28628 28203 28208 28522 28858 29097 29214 29198 29036 28785 28493 28381 28473 28642 28949 29320 29614 29783 29759 29653 29573 29258 29086 28981 28843 28635 28514 28586 28816 29051 29219 28971 28610 28389 28347 28491 28646 28737 28907 29185 29466 29497 29167 28902 28897 29027 29172 29152 29015 28822 28659 28684 28594 28566 28671 28807 28846 28742 28594 28652 28840 29011 29075 29022 29091 29224 29324 29384 29343 29338 29387 29472 29447 29045 28531 28335 28473 28755 29017 29185 29245 29148 28984 28840 28637 28511 28506 28651 28955 29285 29503 29570 29576 29564 29272 28947 28736 28598 28490 28419 28483 28679 28889 29076 29023 28720 28437 28251 28227 28365 28502 28657 28912 29210 29455 29336 29061 28794 28674 28632 28607 28509 28364 28200 28140 28066 28128 28337 28590 28757 28719 28606 28477 28499 28576 28518 28360 28396 28595 28815 28974 29031 29063 29062 29052 28958 28599 28147 27926 27978 28225 28509 28708 28753 28644 28467 28124 27911 27860 27857 27884 28082 28393 28633 28825 28946 28935 28662 28475 28492 28468 28280 28067 27934 28001 28203 28412 28448 28238 28071 27968 27959 28072 28146 28163 28176 28330 28496 28407 28292 28237 28188 28107 28087 28121 28009 27808 27617 27541 27516 27680 27906 28159 28351 28409 28327 28279 28374 28464 28395 28240 28345 28562 28790 29001 29070 29008 28900 28839 28832 28578 28061 27736 27679 27860 28128 28377 28546 28720 28793 28736 28451 28260 28180 28133 28160 28308 28497 28646 28753 28811 28826 28651 28347 28198 28187 28084 27965 27940 28086 28307 28537 28737 28696 28496 28323 28201 28218 28321 28332 28311 28432 28646 28827 28772 28621 28534 28534 28572 28615 28605 28445 28251 28145 28204 28239 28233 28334 28547 28722 28663 28579 28636 28739 28744 28724 28677 28635 28649 28744 28788 28880 29026 29132 29088 28914 28652 28185 27856 27931 28207 28489 28762 28951 28968 28893 28839 28970 29007 28730 28513 28553 28701 28867 28979 29065 29090 29060 29028 28908 28620 28352 28136 28065 28159 28324 28528 28708 28851 28848 28453 27940 27797 27907 28029 28153 28350 28556 28695 28754 28784 28744 28480 28262 28156 28010 27804 27582 27532 27693 27927 28137 28278 28107 27875 27679 27624 27750 27878 27946 27972 28160 28377 28546 28381 28075 27922 27979 28117 28173 28033 27813 27653 27661 27826 27846 27793 27890 28011 27998 27869 27803 27896 27956 28050 28292 28457 28428 28368 28317 28296 28372 28459 28452 28297 28085 27878 27772 27655 27733 27935 28175 28365 28382 28204 28066 28138 28262 28284 28183 28139 28245 28440 28633 28705 28650 28592 28514 28420 28283 27977 27656 27652 27932 28317 28674 28875 28866 28693 28575 28646 28742 28614 28514 28660 29002 29332 29671 29926 30102 30127 30160 30061 29834 29744 29841 30041 30200 30262 30398 30531 30684 30856 31122 31194 31161 31084 30933 30858 30803 30835 30945 31120 31200 30998 30594 30344 30327 30480 30736 30958 31151 31375 31271 31176 30985 30699 30605 30719 30838 30733 30749 30823 31021 31255 31493 31520 31356 31244 30893 30713 30738 30717 30884 31017 31177 31128 30824 30645 30638 30743 30895 31116 31339 31286 30977 30908 30902 30822 30774 30686 30494 30372 30380 30565 30836 31130 31330 31318 31011 30627 30353 30263 30386 30618 30855 30943 30833 30785 30561 30472 30538 30687 30822 30940 31142 31088 30910 30816 30825 30713 30564 30420 30314 30244 30290 30452 30639 30887 31092 31246 31153 30800 30360 30135 30162 30345 30536 30662 30724 30748 30735 30579 30511 30533 30591 30841 31147 31078 31115 31036 31005 30950 30651 30516 30563 30730 30867 31106 31353 31606 31905 32219 32337 31815 31336 30921 30816 30914 30957 31019 31028 31022 31074 31193 31227 31147 31130 31297 31351 31149 30940 30838 30947 31130 30999 30608 30161 29963 30055 30536 31001 31270 31497 31743 31760 31186 30611 30307 30384 30618 30777 30866 30875 30970 31259 31651 32020 32144 32210 32337 32238 32047 31876 31779 31850 31938 31862 31574 31109 30902 30869 31028 31291 31511 31747 32081 32049 31751 31255 30889 30818 30895 30993 31155 31147 31192 31338 31627 31858 31816 31778 31917 31768 31573 31449 31428 31562 31681 31741 31434 31027 30786 30805 31009 31232 31428 31745 31948 31914 31720 31312 30984 30908 30939 30951 30872 30831 30888 31146 31552 31917 31913 31870 31806 31543 31350 31273 31303 31539 31669 31698 31412 31057 30911 31077 31377 31828 32156 32544 33026 32942 32914 32818 32737 32693 32686 32772 32753 32686 32849 33179 33597 33687 33591 33657 33760 33461 33078 32857 32693 32610 32456 32341 31856 31370 31303 31522 31877 32175 32424 32678 32885 32655 32183 31654 31358 31408 31486 31542 31640 31614 31602 31812 32078 32189 32166 32211 32249 32063 31862 31795 31797 31915 31911 31619 31160 30846 30777 30907 31133 31386 31587 31797 32010 31707 31243 30862 30707 30813 30981 31085 31144 31147 31211 31459 31643 31757 31754 31824 31951 31873 31751 31798 32028 32366 32400 32073 31617 31146 31157 31533 32017 32486 32836 33063 33066 32643 31922 31401 31212 31198 31191 31145 31130 31063 30929 30754 30649 30650 30741 30783 30996 31176 31106 30950 30991 30973 30886 30742 30687 30766 30659 30670 30839 31059 31283 31296 31208 31299 31105 30872 30768 30766 30872 30986 31066 31032 30619 30240 30148 30264 30463 30653 30820 31073 31359 31133 30758 30421 30240 30324 30467 30608 30637 30557 30693 30977 31187 31260 31164 31270 31431 31337 31112 31069 31100 31253 31265 31047 30727 30422 30457 30731 31117 31432 31600 31907 32125 31600 30945 30679 30659 30828 30934 30933 31049 31002 30831 30710 30676 30743 30813 30931 31206 31302 31166 31051 30963 30803 30725 30717 30732 30777 30966 31331 31810 32273 32431 32152 31959 31722 31268 31089 31139 31351 31622 31732 31738 31358 30794 30632 30758 30979 31233 31436 31590 31898 31936 31414 31077 30922 30982 31116 31226 31340 31234 31225 31375 31306 31248 31183 31245 31540 31549 31391 31333 31325 31369 31200 30950 30754 30600 30524 30714 31057 31414 31661 31757 31650 31490 31054 30796 30809 30892 31006 31106 31172 31065 30790 30651 30744 30990 31265 31528 31769 31942 31839 31491 31081 30801 30750 30908 31051 31149 30997 30910 30972 30978 30918 30875 30871 31031 31138 30936 30870 30916 31055 31068 30894 30771 30478 30444 30580 30803 31013 31117 31189 31183 31043 30562 30292 30298 30401 30520 30674 30814 30855 30549 30300 30332 30417 30530 30647 30849 31110 31217 30982 30675 30430 30307 30387 30542 30671 30660 30732 31019 31190 31264 31221 31190 31304 31484 31348 31193 31118 31085 31106 30923 30710 30529 30432 30561 30784 31014 31183 31291 31433 31412 31133 30823 30722 30737 30861 31014 31113 31205 31092 30891 30812 30889 31001 31090 31246 31586 31725 31626 31317 30883 30673 30730 30803 30970 30978 31019 31263 31532 31761 31736 31612 31600 31735 31659 31470 31433 31465 31598 31518 31224 31033 30849 30819 31095 31435 31796 32052 32201 32162 31929 31422 31216 31226 31353 31580 31746 31797 31727 31421 31216 31329 31569 31864 32045 32197 32439 32274 32119 31887 31700 31621 31708 31817 31953 31864 31855 32131 32478 32702 32706 32697 32806 32583 32346 32223 32211 32362 32497 32214 31699 31408 31414 31689 32026 32340 32530 32665 32900 32389 31827 31526 31431 31561 31721 31711 31836 32014 32267 32624 32809 32887 32912 33028 33263 33562 33221 32896 32784 32492 32302 32104 31957 31971 31851 31984 32435 32865 33188 33150 33114 33186 32850 32372 32195 32307 32542 32708 32626 32395 31974 31744 31984 32282 32501 32632 32751 32903 32751 32146 31749 31566 31575 31736 31878 32063 32134 32108 32564 32709 32766 32775 32854 33065 33363 33159 33020 33030 32977 32769 32505 32270 32149 31991 32090 32314 32586 32834 32821 32660 32678 32352 32035 31927 31946 32083 32156 32075 31723 31201 31018 31105 31409 31782 32029 32239 32545 32731 32286 31937 31667 31544 31569 31593 31603 31613 31568 31812 32030 32118 32097 32055 32313 32533 32443 32367 32402 32432 32256 31944 31714 31511 31368 31535 31714 31850 31972 31992 31913 31804 31340 31185 31230 31328 31515 31601 31569 31501 31114 30990 31051 31151 31264 31357 31550 31807 31566 31172 30837 30609 30610 30692 30752 30773 30719 30897 31150 31418 31632 31719 31905 32224 32180 31861 31764 31771 31872 31896 31698 31614 31647 31807 32005 32406 32763 32932 32943 32899 32758 32285 31961 31904 31999 32091 32057 32107 31910 31493 31320 31382 31557 31811 32030 32284 32555 32426 31928 31427 31153 31174 31346 31437 31520 31385 31372 31717 31786 31728 31646 31658 31854 32005 31789 31624 31599 31607 31540 31387 31279 31187 31082 31193 31442 31608 31760 31653 31518 31560 31377 31163 31064 31083 31219 31495 31601 31333 30910 30832 31100 31399 31699 31952 32139 32456 32411 31803 31223 30920 30882 31051 31260 31375 31429 31392 31136 31081 31088 31085 31119 31409 31770 31859 31643 31414 31139 30989 30954 30980 31038 30979 30838 30990 31287 31443 31340 31260 31333 31448 31234 31113 31125 31229 31394 31219 30893 30544 30400 30510 30763 30988 31144 31261 31287 31346 30682 30283 30290 30456 30695 30899 31014 31046 30702 30453 30492 30606 30760 30949 31197 31464 31549 31205 30733 30433 30448 30624 30771 30876 30926 30878 31015 31063 31074 31047 31059 31352 31482 31306 31119 31007 30856 30694 30518 30380 30302 30366 30666 30975 31256 31476 31380 31281 31206 30909 30716 30724 30824 31030 31247 31252 30809 30412 30433 30570 30836 31143 31292 31474 31723 31484 30857 30492 30399 30543 30788 30908 30950 30986 31016 31001 30910 31009 31139 31256 31554 31790 31770 31689 31567 31359 31250 31210 31197 31215 31153 31287 31561 31792 31863 31778 31761 31931 31956 31589 31520 31548 31694 31678 31323 30947 30674 30727 30941 31155 31394 31577 31746 31770 31574 31109 30914 31038 31186 31435 31616 31707 31456 31082 31023 31030 31142 31340 31504 31717 31908 31648 31262 30953 30733 30788 30891 30969 30982 30921 31038 31411 31768 31996 32026 32063 32235 32049 31710 31545 31596 31541 31488 31433 31346 31251 31092 31224 31566 31899 32107 31935 31731 31821 31610 31323 31239 31275 31410 31599 31405 30985 30543 30501 30863 31056 31345 31628 31852 31970 31552 30880 30634 30656 30791 31030 31229 31193 30916 30231 29928 29989 30199 30467 30716 30971 31203 31147 30861 30549 30380 30435 30629 30677 30705 30722 30663 30818 30905 30920 30853 30860 31069 31256 31062 30881 30926 30737 30462 30377 30351 30379 30382 30408 30587 30750 30948 30902 30772 30799 30753 30574 30492 30509 30618 30804 30703 30437 30237 30089 30243 30450 30566 30765 30981 31114 31100 30765 30381 30340 30401 30545 30824 31028 31055 30615 30278 30153 30240 30438 30678 30880 31129 31403 31132 30634 30346 30244 30335 30559 30752 30880 30901 30901 30722 30630 30608 30680 30847 31132 31345 31328 31256 31002 30675 30552 30653 30784 30906 30947 31042 31232 31433 31463 31449 31475 31688 31875 31661 31539 31503 31517 31465 31321 31126 30912 30899 31013 31243 31455 31715 31820 31707 31718 31469 31244 31270 31290 31338 31516 31666 31401 30898 30623 30666 30786 31061 31332 31464 31758 31925 31542 30944 30656 30585 30718 30959 31157 31250 31160 30926 30751 30717 30859 31135 31379 31616 31925 31743 31355 30910 30558 30482 30676 30850 30904 30861 30875 30873 30798 30699 30662 30752 30969 31183 31091 30936 30826 30602 30396 30470 30559 30651 30679 30777 30858 31040 31212 31151 31012 30979 31118 31160 30929 30845 30791 30768 30680 30540 30433 30397 30461 30574 30752 30896 31096 31163 31021 30991 30857 30652 30582 30633 30706 30874 31054 30866 30536 30334 30396 30624 30798 30988 31205 31386 31259 30819 30368 30203 30238 30331 30505 30753 30929 30837 30501 30222 30161 30316 30470 30618 30831 31137 31163 30697 30246 30026 30017 30189 30477 30683 30716 30711 30633 30431 30299 30294 30459 30691 30961 31142 31032 30852 30529 30320 30326 30534 30689 30727 30671 30688 30764 30756 30695 30714 30768 30923 31107 31038 30932 30876 30830 30639 30584 30568 30594 30563 30571 30645 30820 30975 31002 30875 30805 30949 30991 30934 30987 31046 31117 31058 30831 30629 30507 30521 30702 30925 31163 31424 31682 31615 31402 31047 30830 30766 30757 30865 31065 31213 31030 30560 30293 30329 30590 30928 31260 31539 31800 31782 31257 30725 30447 30404 30523 30756 30924 31028 30967 30674 30483 30462 30607 30841 31099 31259 31298 31114 30632 30231 30088 30191 30438 30652 30780 30711 30661 30612 30516 30509 30574 30754 30983 31112 31058 30880 30793 30559 30364 30427 30556 30642 30634 30597 30628 30809 30982 31006 30971 30996 31140 31205 31085 31020 31043 31029 30845 30660 30590 30580 30618 30674 30836 31091 31247 31269 31122 31047 30974 30784 30739 30788 30906 31145 31206 30866 30576 30450 30540 30784 31027 31277 31544 31648 31400 30940 30544 30464 30535 30732 31028 31191 31270 30997 30573 30411 30521 30753 30930 31165 31408 31644 31385 30797 30372 30229 30296 30488 30678 30785 30824 30780 30626 30552 30607 30692 30877 31119 31266 31189 31133 30926 30670 30582 30685 30799 30806 30765 30824 30895 30974 30864 30711 30659 30729 30778 30765 30704 30634 30627 30513 30420 30342 30369 30479 30834 31205 31557 31849 32035 31882 31729 31494 31269 31110 31006 31024 31185 31253 31009 30637 30431 30418 30514 30807 31047 31261 31489 31437 31136 30755 30474 30383 30420 30510 30659 30809 30508 30115 29901 29926 30102 30297 30544 30796 31013 30926 30448 30030 29854 29856 29987 30224 30467 30485 30467 30274 30054 30032 30018 30065 30184 30419 30503 30459 30206 29805 29578 29552 29728 29946 30057 30051 30127 30100 29939 29804 29827 30018 30292 30497 30592 30540 30419 30186 29932 29859 29962 30084 30058 30100 30187 30310 30434 30332 30266 30284 30443 30438 30374 30313 30298 30296 30119 30002 29904 29873 29935 29999 30138 30274 30333 30312 30129 30073 30002 30033 30074 30093 30169 30310 30270 29997 29708 29712 29807 29973 30151 30267 30367 30552 30464 30211 29989 29926 29976 30052 30187 30393 30552 30222 29893 29716 29751 29922 30175 30334 30550 30780 30718 30318 29929 29779 29828 29985 30188 30372 30450 30302 29947 29684 29663 29750 29917 30138 30404 30585 30471 30002 29597 29507 29646 29916 30154 30301 30312 30299 30230 30072 29986 29923 29930 30104 30344 30486 30488 30384 30154 29984 29950 30069 30213 30171 30137 30197 30265 30256 30034 29817 29737 29924 30106 30150 30141 30173 30123 29947 29924 30022 30071 30128 30183 30252 30358 30441 30368 30188 30239 30335 30354 30353 30316 30355 30503 30553 30313 30069 30002 30100 30254 30414 30546 30678 30837 30753 30474 30188 30093 30136 30237 30408 30642 30830 30759 30340 30029 29992 30159 30351 30523 30693 30890 31019 30604 30118 29879 29889 30011 30214 30462 30593 30614 30465 30169 30009 30087 30299 30530 30775 30996 31135 31083 30734 30398 30252 30311 30399 30456 30584 30659 30710 30588 30346 30320 30455 30679 30906 31112 31243 31298 31366 31112 30787 30605 30564 30618 30727 30866 30935 30959 30776 30520 30391 30420 30612 30854 31103 31293 31424 31460 31104 30716 30609 30837 31041 31234 31359 31497 31566 31261 30770 30397 30297 30387 30566 30739 30897 31067 31178 31031 30762 30556 30516 30626 30716 30730 30727 30746 30575 30217 30018 30021 30101 30246 30526 30841 31086 31253 31074 30805 30684 30719 30826 30912 30948 30982 31046 31015 30684 30432 30393 30428 30366 30268 30220 30198 30213 29993 29778 29710 29776 29897 30007 30087 30126 30253 30355 30081 29850 29766 29885 30112 30327 30565 30739 30689 30177 29773 29611 29463 29318 29262 29225 29152 29027 28847 28558 28567 28923 29377 29764 30107 30364 30517 30533 30283 29939 29607 29468 29605 29684 29572 29466 29448 29282 29063 29005 29120 29308 29475 29619 29821 30105 30359 30204 29910 29773 29804 29870 29869 29827 29780 29655 29403 28891 28743 28834 28900 28893 28954 29098 29319 29468 29276 28859 28647 28686 28735 28818 28873 28921 29015 29194 29173 29173 29187 29315 29443 29453 29496 29525 29449 29160 28766 28700 28920 29277 29487 29457 29292 29220 29349 29376 29292 29373 29621 29919 30124 30297 30488 30674 30709 30374 29944 29583 29371 29340 29427 29585 29674 29587 29342 28973 28774 28776 28945 29264 29615 29909 30167 30306 30212 30085 30093 30174 30158 30065 29901 29701 29544 29504 29379 29345 29369 29281 29128 28927 28903 29067 29327 29455 29470 29618 29807 29964 30077 30213 30345 30479 30550 30352 29881 29510 29444 29562 29728 29850 29901 29819 29580 29086 28879 28907 29085 29365 29720 30078 30299 30341 30206 29933 29799 29811 29794 29672 29482 29356 29368 29518 29451 29276 29080 28891 28739 28587 28557 28622 28832 29083 29103 29167 29302 29332 29385 29469 29501 29478 29355 28994 28455 28199 28285 28526 28777 28938 28909 28673 28393 28044 27928 28041 28301 28612 28939 29139 29209 29181 29063 28751 28553 28481 28393 28264 28138 28160 28369 28617 28542 28334 28172 27969 27855 27924 28103 28260 28450 28674 28689 28563 28451 28363 28292 28308 28449 28584 28626 28352 27856 27721 27939 28239 28490 28610 28488 28340 28201 27982 27791 27800 28056 28448 28834 29143 29320 29277 29335 29272 29165 29089 29020 28937 28841 28839 28946 29121 29200 28952 28602 28369 28235 28320 28550 28703 28822 29015 29152 29101 29077 29145 29261 29422 29519 29558 29542 29388 29026 28652 28622 28831 29092 29266 29239 29093 28956 29014 29047 29026 29123 29414 29775 30080 30258 30254 30260 30285 30116 29850 29623 29454 29357 29342 29515 29755 29972 30090 29780 29286 28935 28897 29120 29390 29651 30005 30375 30624 30445 30079 29808 29739 29742 29730 29714 29615 29474 29385 29278 29318 29471 29618 29527 29319 29119 29134 29328 29542 29569 29653 29830 30031 30098 30037 29999 29996 29938 29829 29438 28931 28684 28745 28999 29234 29397 29482 29420 29166 28626 28369 28408 28533 28755 29081 29459 29748 29903 29892 29716 29444 29321 29236 29079 28873 28662 28587 28727 28934 28901 28702 28480 28328 28270 28327 28434 28553 28665 28894 28995 28911 28896 28877 29000 29142 29181 29009 28778 28550 28124 27801 27851 28119 28375 28513 28418 28226 28079 28102 28209 28147 28152 28392 28755 29014 29146 29151 29222 29258 29216 28857 28446 28207 28090 28093 28246 28478 28698 28872 28764 28294 27985 27999 28210 28450 28715 28995 29302 29588 29701 29506 29251 29084 29037 29062 29025 28903 28726 28662 28739 28712 28747 28890 28875 28805 28773 28843 28957 29102 29266 29347 29484 29685 29836 29894 29930 29945 29904 29856 29752 29373 28907 28843 29058 29360 29665 29848 29729 29467 29212 29195 29238 29258 29393 29732 30078 30322 30430 30433 30377 30227 29916 29597 29362 29127 28997 29072 29289 29528 29729 29625 29166 28767 28624 28773 29071 29305 29448 29638 29842 29832 29518 29216 29150 29192 29267 29289 29197 28995 28854 28823 28702 28697 28698 28601 28553 28470 28409 28527 28662 28742 28681 28620 28660 28745 28792 28814 28909 28975 28954 28821 28487 28005 27825 28001 28317 28599 28755 28725 28548 28317 28067 27872 27831 27897 28102 28447 28777 29083 29245 29213 29085 28748 28501 28286 28043 27911 27896 28021 28206 28385 28520 28364 28074 27901 27871 27955 28028 28047 28138 28356 28559 28619 28471 28299 28175 28144 28242 28284 28191 28100 28122 28268 28275 28260 28325 28353 28266 28150 28099 28243 28379 28433 28384 28339 28455 28638 28812 28864 28871 28877 28896 28918 28704 28246 28018 28153 28466 28759 29003 29124 29002 28764 28622 28626 28620 28616 28660 28871 29190 29484 29640 29737 29779 29770 29543 29340 29181 29015 28881 28901 29097 29344 29557 29718 29552 29177 28884 28846 29059 29249 29423 29578 29811 29997 29967 29609 29233 29045 28968 28894 28797 28663 28525 28580 28779 28923 28987 29131 29208 29144 29011 28958 29046 29133 29135 29285 29348 29411 29446 29430 29383 29402 29365 29320 29228 29074 28854 28604 28645 28891 29202 29399 29504 29384 29216 29100 29171 29096 28794 28732 28970 29300 29566 29691 29682 29631 29587 29563 29179 28698 28382 28355 28582 28969 29342 29652 29816 29757 29511 29048 28794 28796 28837 28979 29265 29552 29753 29803 29779 29715 29352 28943 28726 28609 28497 28422 28473 28713 28990 29182 29197 28814 28455 28286 28316 28511 28641 28648 28826 29155 29457 29570 29277 28965 28877 28909 29002 28972 28795 28560 28429 28531 28639 28583 28602 28652 28577 28493 28444 28525 28667 28708 28855 28985 28946 28945 28953 28938 28986 29019 29030 28987 28856 28685 28456 28320 28478 28745 28992 29112 28970 28775 28691 28800 28937 28816 28789 28997 29326 29593 29753 29825 29871 29979 30035 29983 29530 28976 28693 28803 29098 29392 29614 29714 29548 29274 28922 28668 28612 28683 28876 29183 29533 29770 29874 29861 29869 29697 29342 29073 28897 28715 28610 28665 28908 29193 29427 29504 29111 28689 28393 28383 28526 28723 28952 29291 29635 29923 29964 29628 29388 29247 29172 29104 29017 28880 28734 28770 28961 28992 29037 29093 28996 28876 28716 28815 29074 29277 29449 29771 29933 29968 29938 29907 29946 30030 30031 29955 29821 29546 29209 28853 28842 29092 29378 29548 29399 29162 28984 29035 29173 29213 29186 29345 29637 29903 30028 29971 29860 29840 29835 29760 29337 28864 28728 28912 29227 29531 29706 29598 29281 28955 28657 28473 28452 28604 28995 29498 29893 30112 30168 30083 30106 30001 29740 29392 29022 28743 28706 28873 29095 29264 29419 29302 28845 28451 28358 28568 28829 28917 29010 29282 29591 29788 29674 29341 29152 29059 29049 28956 28782 28537 28431 28545 28813 28923 28992 29045 29058 29053 29036 29155 29306 29341 29391 29501 29357 29200 29162 29173 29246 29322 29343 29306 29144 28885 28545 28391 28541 28822 29064 29125 28955 28723 28627 28711 28827 28665 28478 28585 28880 29153 29325 29332 29285 29287 29356 29303 28932 28459 28274 28432 28710 28969 29079 28994 28738 28527 28341 28229 28170 28181 28398 28825 29276 29622 29804 29852 29782 29611 29194 28892 28720 28596 28524 28552 28716 28979 29282 29576 29585 29254 28913 28845 29021 29163 29153 29167 29330 29532 29646 29538 29177 28939 28850 28882 28968 28892 28703 28567 28649 28833 28889 28794 28791 28815 28789 28720 28673 28718 28751 28762 28857 28985 29034 29083 29134 29091 29061 29007 28956 28912 28803 28623 28424 28257 28345 28595 28884 29122 29148 29018 28747 28632 28653 28643 28391 28358 28497 28691 28899 29016 29031 29053 29094 29147 29097 28691 28283 28167 28333 28569 28773 28900 28904 28734 28501 28299 28168 28106 28191 28490 28932 29357 29617 29715 29669 29665 29648 29458 29068 28685 28410 28310 28416 28642 28876 29074 29241 29235 28853 28413 28357 28521 28666 28762 28958 29236 29484 29658 29769 29787 29578 29295 29131 29052 28948 28789 28769 28930 29163 29403 29571 29289 28732 28334 28260 28446 28687 28875 29138 29523 29851 30054 29975 29592 29345 29241 29186 29215 29156 28952 28811 28901 29155 29404 29359 29088 28807 28629 28546 28611 28768 28920 29147 29476 29767 29760 29473 29217 29188 29207 29196 29163 29103 28929 28806 28897 29032 29030 29062 29131 29051 28908 28788 28807 28966 29064 29233 29478 29562 29460 29329 29255 29240 29272 29270 29228 29113 28887 28648 28472 28379 28503 28717 28959 29088 28989 28838 28744 28772 28826 28900 28857 28886 29069 29259 29337 29330 29371 29362 29260 29147 29003 28626 28219 28140 28359 28654 28926 29102 29077 28900 28762 28828 29117 29174 29065 29146 29404 29664 29851 29963 29982 29938 29807 29621 29351 28888 28454 28374 28593 28903 29156 29303 29296 29118 28934 28786 28588 28443 28493 28794 29236 29651 29942 29980 29875 29772 29731 29599 29259 28824 28558 28517 28674 28920 29155 29311 29304 29076 28691 28334 28245 28347 28515 28789 29118 29402 29583 29594 29567 29585 29317 28952 28616 28361 28199 28177 28349 28591 28776 28877 28760 28327 27897 27741 27789 27922 28160 28459 28817 29131 29293 29277 29040 28712 28465 28360 28272 28177 28049 27987 28128 28377 28618 28693 28420 28088 27824 27700 27731 27843 28084 28449 28870 29204 29285 29008 28497 28158 28016 28059 28066 27949 27790 27776 27978 28270 28426 28357 28280 28162 28017 27920 28004 28181 28272 28380 28609 28886 28845 28671 28498 28475 28579 28739 28747 28500 28201 28010 28113 28267 28291 28378 28501 28420 28278 28132 28155 28289 28427 28584 28833 28921 28978 29022 28979 28892 28903 28955 28936 28866 28800 28698 28541 28497 28668 28940 29194 29306 29206 29048 29024 29174 29291 29393 29397 29444 29511 29563 29547 29512 29502 29442 29346 29257 29077 28796 28499 28556 28844 29159 29395 29403 29260 29079 29016 29154 29362 29405 29227 29208 29314 29479 29676 29896 29992 29982 29980 29912 29732 29202 28594 28368 28557 28896 29182 29408 29459 29336 29144 29164 29279 29206 29052 29060 29275 29588 29790 30025 30263 30327 30251 30194 30084 29605 28953 28468 28421 28591 28795 28929 28858 28709 28625 28568 28492 28295 28165 28209 28462 28782 29024 29206 29224 29139 29089 29094 28951 28581 28207 28014 28089 28343 28707 29012 29209 29137 28983 28834 28601 28524 28574 28675 28889 29178 29401 29451 29313 29160 29138 29067 28744 28458 28251 28087 28064 28208 28448 28676 28831 28815 28587 28267 28030 28000 28065 28144 28342 28601 28875 29109 29231 29278 29307 29015 28635 28459 28410 28261 28087 28009 28141 28363 28653 28866 28793 28522 28356 28235 28163 28196 28364 28632 29001 29391 29714 29743 29394 29024 28899 28915 28854 28683 28457 28168 28030 28212 28554 28715 28788 28875 28883 28887 28850 28822 28878 29024 29250 29518 29806 29740 29474 29171 28955 28903 28923 28926 28889 28761 28659 28762 28765 28737 28792 28883 28787 28639 28517 28537 28627 28680 28790 29002 29095 29175 29231 29181 29260 29384 29460 29375 29185 28948 28803 28687 28700 28868 29036 29132 29069 28925 28795 28810 28928 29076 29132 29141 29207 29313 29405 29490 29612 29735 29824 29840 29688 29416 28955 28644 28713 28922 29144 29265 29187 28997 28799 28725 28773 28784 28756 28902 29171 29412 29529 29552 29592 29689 29812 29837 29720 29224 28694 28543 28671 28879 29025 29064 28965 28803 28609 28533 28506 28507 28680 29010 29387 29661 29795 29784 29689 29604 29541 29405 29009 28457 28056 28048 28369 28825 29125 29259 29184 29089 28972 28913 28829 28825 28885 29136 29502 29758 29823 29720 29521 29438 29517 29423 29063 28642 28360 28298 28456 28716 28952 29097 29051 28934 28772 28490 28441 28548 28649 28759 29011 29361 29636 29802 29852 29835 29665 29248 29009 28928 28871 28761 28745 28840 29009 29193 29366 29465 29202 28776 28461 28412 28549 28668 28796 28974 29193 29396 29502 29480 29179 28947 28854 28803 28746 28603 28366 28272 28432 28717 28980 29040 28790 28536 28430 28399 28417 28574 28862 29235 29633 29887 30025 29818 29398 29152 29046 28939 28695 28452 28275 28282 28545 28851 29123 29214 29261 29228 29143 29026 29094 29296 29540 29750 30059 30347 30404 30075 29631 29340 29243 29250 29136 28895 28538 28302 28384 28648 28692 28664 28667 28601 28494 28427 28497 28665 28825 29050 29330 29522 29322 29043 28891 28855 28943 29053 29010 28796 28548 28415 28481 28682 28714 28681 28668 28563 28463 28383 28384 28501 28663 28890 29200 29430 29354 29209 29121 29164 29313 29477 29504 29365 29099 28813 28783 28869 28899 29004 29131 29188 29202 29197 29217 29291 29297 29300 29408 29515 29435 29352 29326 29288 29305 29395 29520 29594 29464 29239 29120 29124 29125 29196 29370 29521 29560 29474 29294 29286 29373 29461 29589 29634 29575 29566 29597 29597 29704 29828 29983 30097 30084 29913 29646 29238 29078 29144 29347 29603 29764 29716 29638 29542 29416 29353 29485 29642 29651 29605 29584 29625 29616 29572 29575 29565 29456 29247 29013 28805 28727 28780 28849 28805 28727 28616 28536 28565 28693 28904 29202 29302 29248 29105 28985 28933 28912 28943 28900 28756 28613 28560 28688 28694 28642 28684 28735 28636 28512 28335 28303 28432 28622 28867 29165 29259 29253 29174 29081 29195 29393 29501 29403 29150 28858 28716 28770 28732 28721 28740 28751 28665 28526 28320 28272 28400 28622 28872 29188 29298 29219 29072 28910 28912 29006 29110 29038 28828 28556 28347 28206 28132 28247 28452 28636 28698 28589 28377 28295 28338 28422 28582 28750 28793 28851 28898 28887 28912 29042 29195 29204 29053 28828 28600 28416 28262 28283 28462 28677 28820 28728 28545 28373 28337 28386 28552 28797 28888 28957 29038 29081 29135 29225 29263 29118 28821 28518 28321 28184 28118 28223 28446 28673 28807 28746 28585 28430 28473 28644 28963 29279 29379 29471 29513 29434 29391 29400 29353 29204 29058 28900 28821 28749 28721 28798 28961 29049 28987 28860 28665 28567 28619 28863 29186 29452 29537 29505 29405 29337 29322 29355 29393 29295 29094 28899 28765 28590 28586 28748 28959 29111 29119 29082 28999 29021 29169 29425 29663 29751 29845 29906 29908 29805 29640 29493 29448 29341 29136 28877 28440 28101 28158 28458 28779 29042 29172 29120 28965 28868 28944 29011 28841 28766 28919 29160 29316 29392 29501 29761 29990 30067 29880 29476 28747 28194 28194 28458 28723 28922 29012 28990 28934 28940 29086 29032 28831 28798 28955 29175 29331 29367 29310 29358 29395 29481 29413 28965 28454 28193 28200 28419 28686 28893 29030 28972 28824 28642 28572 28447 28331 28433 28710 29094 29404 29457 29321 29179 29122 29171 28983 28500 28101 27863 27868 28110 28435 28709 28863 28894 28804 28715 28449 28292 28200 28269 28504 28831 29082 29196 29201 29142 29180 29274 29172 28749 28271 27904 27819 28001 28256 28468 28628 28771 28817 28632 28203 28013 28073 28311 28582 28919 29169 29309 29364 29339 29270 29186 28924 28684 28394 28119 27930 27885 28020 28204 28407 28595 28751 28548 28142 27849 27883 28047 28196 28382 28664 28917 29002 29000 28986 28772 28490 28342 28334 28241 28123 27970 27924 28011 28224 28460 28673 28509 28137 27835 27696 27830 28102 28312 28541 28828 29097 29253 29269 28962 28685 28535 28550 28491 28316 28123 27957 27979 28170 28411 28599 28500 28288 28105 27980 27998 28090 28231 28478 28812 29144 29349 29366 29086 28710 28589 28610 28570 28364 28147 27979 27948 28088 28327 28522 28487 28392 28279 28158 28104 28235 28360 28445 28539 28765 29033 29218 29149 28908 28779 28763 28935 28982 28814 28529 28329 28353 28486 28670 28652 28494 28322 28151 28022 28029 28109 28214 28475 28837 29240 29465 29337 28924 28743 28777 28900 28882 28756 28593 28447 28453 28607 28818 28908 28746 28429 28177 28022 28082 28267 28516 28776 29104 29378 29548 29589 29314 28926 28760 28777 28895 28886 28712 28522 28528 28748 28986 29145 29005 28714 28489 28335 28307 28447 28584 28773 29012 29338 29606 29698 29451 29083 28849 28790 28816 28742 28583 28401 28346 28486 28739 28951 28932 28715 28444 28287 28172 28206 28309 28435 28673 29047 29400 29593 29498 29184 29017 28976 28952 28863 28634 28400 28259 28302 28510 28748 28834 28722 28529 28371 28237 28226 28257 28302 28508 28806 29177 29421 29353 29038 28800 28722 28739 28704 28504 28265 28058 28038 28242 28529 28650 28596 28541 28435 28343 28251 28281 28401 28576 28814 29101 29320 29183 28913 28655 28564 28612 28739 28722 28540 28288 28094 28041 28104 28120 28234 28393 28497 28421 28299 28161 28145 28250 28474 28797 29068 29172 29138 29013 28869 28814 28813 28813 28679 28457 28236 28042 27938 28049 28291 28540 28722 28736 28675 28502 28469 28520 28609 28656 28646 28744 28856 28864 28788 28759 28764 28792 28729 28545 28314 27946 27732 27833 28080 28342 28577 28678 28607 28430 28371 28470 28498 28349 28314 28521 28859 29126 29268 29240 29234 29263 29289 29187 28809 28326 28061 28156 28431 28745 28989 29062 28956 28818 28689 28683 28602 28454 28442 28651 28903 29084 29111 28974 28902 28889 28906 28782 28365 27967 27775 27809 28038 28322 28565 28759 28787 28669 28536 28370 28223 28155 28270 28594 29011 29338 29488 29424 29337 29316 29302 29168 28777 28309 28010 27918 28014 28264 28517 28728 28878 28860 28776 28511 28290 28229 28276 28454 28761 29148 29375 29418 29342 29264 29234 29181 28943 28551 28214 28040 28041 28184 28403 28631 28815 28915 28821 28549 28128 27944 27951 27988 28144 28354 28511 28532 28466 28373 28325 28216 27948 27896 27995 27983 27962 28062 28201 28362 28505 28437 28253 28019 27647 27565 27688 27719 27890 28221 28554 28816 29016 29091 29068 28983 28729 28402 28081 27800 27651 27729 28047 28401 28706 28933 29073 28938 28468 28171 28267 28468 28662 28900 29235 29494 29638 29669 29613 29455 29128 28806 28619 28494 28361 28269 28334 28545 28788 28979 29147 29060 28620 28200 28071 28158 28302 28516 28879 29285 29577 29699 29696 29555 29334 29176 29090 28977 28777 28531 28434 28597 28878 29152 29360 29265 28888 28523 28344 28472 28693 28800 28866 29108 29437 29664 29759 29533 29264 29122 29122 29102 28881 28621 28424 28424 28597 28809 28965 28901 28751 28544 28439 28396 28429 28504 28636 28880 29201 29447 29388 29082 28782 28612 28549 28616 28596 28423 28220 28138 28274 28511 28593 28564 28536 28428 28315 28160 28118 28252 28398 28596 28883 29167 29175 28983 28765 28639 28586 28591 28538 28414 28221 28034 28038 28244 28308 28359 28461 28477 28396 28233 28125 28214 28327 28437 28649 28922 29009 28886 28816 28767 28821 28890 28885 28745 28484 28212 28105 28226 28353 28376 28467 28519 28456 28274 28096 28107 28230 28356 28579 28968 29229 29209 29148 29125 29186 29327 29390 29326 29083 28783 28550 28533 28602 28548 28516 28568 28461 28227 28000 28019 28162 28379 28554 28851 29125 29133 28961 28752 28615 28671 28727 28653 28475 28319 28178 28190 28369 28508 28468 28447 28472 28415 28357 28298 28324 28306 28322 28539 28871 29272 29432 29366 29234 29239 29415 29596 29634 29463 29148 28839 28772 28940 29101 29062 28931 28776 28633 28545 28552 28627 28597 28652 28863 29148 29416 29450 29226 29014 28812 28663 28618 28493 28265 28073 28110 28339 28643 28926 29031 28914 28702 28624 28571 28640 28757 28914 29144 29408 29622 29686 29600 29250 28903 28692 28671 28678 28591 28451 28321 28350 28547 28821 29072 29214 28976 28686 28434 28326 28360 28409 28463 28626 28888 29142 29357 29543 29577 29391 29164 28890 28629 28378 28091 27913 28013 28256 28496 28699 28766 28538 28312 28197 28340 28514 28642 28758 28915 29126 29320 29335 29265 29090 28848 28595 28554 28542 28381 28192 28148 28284 28503 28736 28899 28974 28625 28155 27909 27972 28111 28193 28358 28640 28946 29155 29207 29205 29209 29044 28925 28858 28688 28486 28408 28480 28679 28882 29058 29133 29044 28634 28182 28030 28132 28275 28482 28803 29203 29488 29616 29592 29532 29502 29284 29025 28716 28440 28272 28257 28403 28614 28831 29000 29070 28920 28547 28223 28200 28365 28530 28716 28996 29272 29461 29519 29481 29411 29288 29032 28808 28581 28360 28198 28234 28433 28698 28922 29109 29200 29007 28528 28218 28259 28346 28463 28698 29039 29324 29451 29456 29407 29486 29486 29312 29042 28729 28514 28459 28575 28766 28956 29082 29125 28979 28653 28233 28125 28181 28313 28551 28927 29248 29448 29498 29448 29444 29458 29335 29063 28789 28557 28511 28680 28899 29089 29210 29223 29213 29081 28767 28519 28460 28529 28794 29204 29584 29828 29919 29856 29814 29843 29856 29601 29126 28695 28486 28582 28852 29091 29262 29351 29299 29206 29109 28880 28668 28506 28509 28783 29170 29534 29775 29793 29697 29696 29715 29708 29454 28987 28557 28404 28537 28839 29121 29299 29361 29270 29068 28871 28754 28708 28685 28821 29170 29536 29797 29841 29722 29666 29704 29816 29715 29241 28697 28404 28381 28603 28870 29090 29183 29098 28934 28788 28755 28741 28637 28653 28909 29328 29749 30024 30036 29940 29889 29917 29909 29674 29130 28540 28254 28298 28602 28894 29115 29217 29173 29044 28919 28888 28754 28585 28525 28718 29046 29320 29412 29403 29385 29414 29410 29332 29065 28606 28157 27973 28065 28327 28629 28914 29107 29023 28862 28668 28678 28654 28583 28591 28840 29175 29396 29450 29372 29290 29206 29119 29046 28719 28211 27868 27847 28104 28393 28629 28797 28791 28669 28442 28339 28301 28151 28032 28120 28380 28662 28871 28915 28962 29029 29111 29093 28947 28481 28018 27814 27910 28116 28328 28482 28558 28405 28218 28059 28047 27996 27959 28057 28313 28651 28987 29190 29233 29246 29292 29351 29356 29023 28484 28072 27997 28196 28470 28644 28754 28795 28709 28527 28339 28198 28124 28132 28209 28433 28718 28947 29104 29170 29194 29198 29225 29057 28601 28100 27811 27866 28151 28396 28566 28626 28569 28484 28302 28099 28075 28072 28166 28386 28688 28901 28929 28915 28841 28824 28844 28701 28422 28058 27789 27746 27919 28186 28390 28536 28619 28601 28514 28272 28189 28173 28185 28266 28493 28727 28909 28980 28972 28951 28958 28854 28622 28316 28054 27961 28068 28290 28528 28737 28914 28938 28809 28574 28271 28130 28099 28149 28341 28639 28874 29042 29045 29017 29034 29080 28932 28650 28281 28022 27930 28039 28312 28579 28795 28970 29001 28885 28583 28354 28318 28298 28295 28490 28767 28995 29140 29198 29217 29240 29301 29165 28891 28521 28277 28257 28404 28639 28863 29038 29117 28983 28755 28391 28259 28324 28405 28482 28727 28971 29161 29291 29308 29348 29420 29337 28933 28431 28072 27942 28056 28341 28628 28849 28995 28984 28873 28720 28537 28416 28337 28407 28694 29033 29322 29473 29471 29433 29433 29414 29339 29017 28526 28154 28022 28143 28439 28738 29001 29172 29157 29035 28844 28696 28537 28413 28449 28746 29118 29398 29515 29505 29494 29511 29551 29519 29196 28637 28188 28043 28166 28412 28675 28910 29089 29061 28966 28829 28777 28624 28531 28597 28911 29277 29578 29683 29595 29522 29521 29541 29523 29179 28621 28208 28152 28382 28705 28970 29150 29162 29047 28857 28750 28711 28568 28468 28629 28988 29332 29536 29533 29445 29431 29462 29480 29324 28863 28383 28195 28299 28559 28836 29032 29118 28985 28750 28572 28565 28564 28488 28507 28746 29045 29287 29374 29286 29310 29420 29588 29565 29198 28624 28202 28213 28469 28749 28955 29008 28880 28737 28625 28658 28666 28495 28416 28559 28814 29043 29217 29257 29263 29305 29486 29572 29351 28806 28297 28219 28398 28634 28843 28870 28742 28523 28335 28388 28432 28279 28176 28334 28605 28864 29002 29047 29084 29138 29177 29185 28954 28409 28001 27954 28138 28362 28561 28705 28663 28426 28173 28143 28257 28176 28034 28040 28213 28374 28434 28423 28458 28501 28565 28646 28535 28098 27735 27709 27944 28244 28476 28630 28665 28584 28403 28272 28365 28285 28096 28133 28485 28750 28933 29063 29123 29071 29013 28987 28933 28569 28089 27909 28038 28261 28428 28473 28368 28170 28011 27986 28195 28148 27924 27846 28117 28517 28959 29395 29749 29946 30087 30109 30063 29766 29514 29553 29807 30044 30106 30020 29957 29955 30125 30336 30635 30716 30560 30352 30254 30240 30345 30542 30796 30984 30967 30780 30701 30631 30673 30837 31016 31087 31100 31022 30940 30849 30884 31087 31278 31202 30885 30599 30465 30574 30772 31020 31210 31299 31331 31242 31037 30821 30694 30738 30861 30920 30916 30969 31238 31565 31895 32171 32197 31837 31382 31009 30804 30830 31012 31168 31206 31108 31007 31166 31462 31618 31673 31565 31383 31232 31032 30990 31121 31286 31372 31441 31250 30941 30875 31097 31383 31660 31867 31963 31975 31798 31691 31708 31576 31339 31123 30909 30810 30900 31097 31373 31567 31662 31682 31592 31140 30730 30578 30628 30708 30788 30739 30824 30951 31169 31409 31592 31462 31087 30700 30439 30376 30520 30729 30882 30916 30889 30928 30914 30919 30939 30974 30997 30960 30819 30641 30524 30570 30750 30877 30719 30388 30132 30104 30237 30343 30531 30791 30978 31117 31081 30939 30761 30657 30550 30519 30485 30494 30761 31178 31493 31684 31826 31742 31286 30842 30583 30527 30629 30752 30773 30688 30686 30779 30897 30932 30947 30898 30720 30429 30220 30129 30221 30421 30592 30624 30557 30411 30445 30573 30738 30900 31068 31118 31038 30856 30780 30776 30702 30531 30386 30275 30354 30585 30850 31124 31376 31592 31715 31511 31044 30672 30535 30606 30677 30675 30643 30553 30603 30737 30868 30926 30994 30870 30572 30313 30307 30372 30526 30696 30751 30698 30527 30419 30388 30451 30630 30867 30910 30733 30575 30439 30459 30351 30229 30102 30019 30072 30175 30228 30289 30527 30854 30959 30599 30101 29758 29682 29795 29979 30168 30226 30273 30283 30341 30337 30327 30360 30428 30348 30243 30127 30141 30333 30467 30537 30273 30006 29822 29764 29702 29798 30120 30468 30643 30615 30318 29957 29791 29839 29979 30090 30156 30189 30177 30242 30324 30470 30488 30327 30068 29884 29867 30003 30229 30418 30562 30626 30470 30243 30110 30096 30176 30392 30610 30623 30552 30459 30431 30409 30318 30197 29971 29988 29998 30100 30197 30293 30483 30648 30439 30113 29838 29775 29927 30072 30265 30442 30530 30526 30468 30318 30244 30313 30492 30705 30744 30625 30460 30401 30432 30361 30299 30036 29956 30188 30285 30392 30555 30794 31130 31003 30610 30260 30205 30381 30666 30885 30931 30865 30931 31081 31119 31231 31427 31682 31907 31810 31565 31360 31334 31427 31307 31048 30730 30630 30654 30794 30997 31163 31424 31622 31352 30704 30250 30238 30403 30635 30791 30805 30758 30751 30736 30642 30622 30646 30802 31034 30985 30825 30740 30808 30966 30847 30712 30526 30412 30435 30629 30819 31043 31309 31432 31068 30536 30191 30105 30245 30474 30620 30684 30676 30651 30582 30553 30625 30726 30880 31007 30922 30772 30728 30703 30600 30461 30362 30265 30290 30356 30511 30684 30870 31022 30905 30594 30257 30144 30193 30323 30531 30673 30732 30680 30289 30043 30021 30127 30325 30578 30676 30600 30429 30341 30254 30285 30357 30413 30273 30420 30795 31146 31425 31673 31648 31473 31158 30994 31053 31375 31800 32124 32239 32099 31904 31862 32305 32762 33075 33317 33440 33259 33049 32736 32336 32200 32193 32034 31784 31622 31716 32010 32336 32569 32491 32217 31862 31510 31402 31438 31578 31644 31548 31192 30776 30650 30738 30952 31220 31470 31616 31489 31161 30655 30339 30325 30405 30485 30520 30531 30673 30938 31212 31251 31094 30889 30656 30565 30553 30718 30941 31083 30934 30445 30121 30077 30245 30466 30683 30873 31074 31052 30545 30118 29934 29966 30120 30239 30238 30262 30298 30436 30448 30439 30437 30483 30503 30387 30242 30185 30194 30205 30004 29571 29320 29340 29408 29558 29620 29761 30055 30068 29578 29125 28967 29057 29196 29360 29573 29625 29689 29536 29453 29459 29488 29615 29854 29892 29814 29663 29485 29264 29210 29268 29300 29356 29387 29418 29411 29413 29450 29456 29459 29385 29364 29385 29463 29613 29693 29864 29695 29447 29326 29348 29268 29293 29535 29915 30144 30051 29700 29480 29492 29663 29887 29977 30120 30133 30174 30151 30135 30246 30457 30546 30608 30580 30507 30541 30608 30507 30414 30291 30316 30370 30469 30546 30529 30759 30915 30740 30499 30339 30301 30421 30617 30771 30929 30989 30745 30628 30656 30697 30859 31132 31426 31482 31507 31322 31021 30819 30823 30985 31124 31259 31336 31382 31351 31300 31202 31207 31339 31556 31567 31576 31501 31462 31416 31340 31280 31301 31333 31397 31450 31563 31691 31791 31809 31758 31546 31421 31370 31380 31412 31565 31665 31540 31200 30896 30802 30903 31028 31207 31480 31758 31747 31373 30914 30632 30575 30742 30912 31045 31088 31060 31006 30970 30995 31061 31210 31220 31155 31018 30944 30869 30663 30534 30504 30504 30568 30602 30719 30859 31035 31172 31041 30712 30530 30426 30467 30525 30678 30849 30863 30521 30178 30056 30200 30403 30639 30910 31034 31025 30640 30194 29997 29986 30173 30406 30532 30601 30595 30643 30529 30480 30548 30662 30627 30558 30434 30391 30378 30245 30064 29966 29967 30057 30131 30277 30312 30401 30588 30530 30291 30118 30013 30049 30161 30385 30539 30633 30331 29997 29888 29990 30106 30285 30548 30796 30765 30331 29829 29590 29671 29900 30136 30320 30409 30425 30444 30279 30090 30153 30357 30504 30522 30448 30367 30369 30258 30107 30007 29919 29900 29951 30081 30181 30258 30292 30181 29966 29807 29725 29785 29929 30142 30371 30419 30066 29730 29684 29762 29895 30210 30529 30683 30636 30204 29809 29746 29948 30191 30318 30367 30331 30326 30266 30066 30078 30303 30381 30310 30271 30262 30411 30570 30493 30277 30072 30108 30368 30579 30770 31042 31300 31093 30586 30118 29937 30046 30286 30441 30520 30550 30573 30501 30380 30359 30528 30759 30767 30630 30529 30511 30440 30353 30306 30248 30319 30426 30589 30635 30803 31003 30872 30570 30273 30165 30242 30452 30643 30743 30767 30558 30367 30220 30286 30646 30947 31111 31035 30834 30585 30358 30347 30443 30464 30463 30520 30553 30504 30554 30538 30580 30565 30447 30344 30389 30503 30665 30890 30598 30166 29952 29978 30084 30231 30589 30943 31052 30652 30082 29810 29862 30092 30366 30499 30589 30646 30799 30859 30870 30971 31078 31038 30852 30652 30626 30730 30564 30374 30183 30128 30258 30555 30710 30870 31141 31035 30546 30085 29894 30013 30291 30527 30673 30752 30756 30680 30786 30798 30931 31163 31303 31268 31085 30958 30820 30690 30692 30723 30721 30706 30869 31123 31299 31356 31174 30908 30507 30322 30337 30466 30656 30846 30751 30423 30192 30332 30478 30718 31075 31302 31281 31012 30487 30228 30238 30360 30520 30537 30609 30733 30961 31047 30967 30894 30895 30697 30530 30476 30659 30970 30987 30698 30470 30538 31032 31746 32238 32730 33338 33432 32863 32128 31589 31524 31699 31831 31927 32124 32557 32907 33331 33516 33827 34363 34691 34534 34244 33928 33493 33233 33057 32859 32724 32766 32859 33270 33453 33320 33154 32865 32431 32090 31891 31927 32183 32192 31919 31351 30977 30956 31211 31412 31593 31859 31966 31471 30740 30293 30246 30462 30665 30784 30774 30827 30909 30953 30950 30948 31072 31223 31086 30875 30784 30758 30628 30510 30429 30333 30257 30303 30612 30965 31144 31073 30981 30965 30900 30742 30667 30730 31028 31209 30909 30392 30140 30195 30608 30870 31215 31628 31772 31275 30521 30201 30239 30482 30704 30805 30814 30821 30768 30855 31061 31325 31667 31978 32112 31929 31605 31070 30684 30675 30756 30720 30657 30793 31102 31740 32157 32360 32460 32458 32307 32056 31952 32081 32383 32431 32006 31440 31126 31161 31698 32149 32485 32728 32479 32002 31288 30811 30714 30817 30977 31027 30638 30099 29735 30031 30754 31592 31841 31921 31947 31839 31682 31826 32208 32331 32069 31894 31861 32006 32501 32827 32824 32649 32463 32148 31592 31238 31153 31229 31068 30716 30332 30281 30481 30877 31138 31438 31492 31083 30483 30073 30049 30258 30521 30631 30631 30550 30224 30128 30248 30390 30552 30847 31012 30908 30719 30358 30083 30067 30112 30145 30212 30221 30383 30647 30681 30509 30593 30784 30650 30552 30571 30643 30786 30627 30316 30017 29949 30143 30521 30775 31002 31307 31318 30889 30407 30259 30314 30528 30773 30946 30749 30284 30123 30313 30480 30732 31115 31489 31650 31398 30956 30681 30687 30852 30966 30895 30952 31149 31435 31550 31530 31624 31848 31803 31684 31671 31838 31963 31824 31611 31371 31340 31594 32228 32727 33079 33251 33182 32764 32412 32257 32269 32410 32536 32559 32255 31954 31879 32247 32674 32971 33267 33644 33831 33387 32818 32602 32620 32756 32759 32663 32647 32840 33100 33163 33361 33604 33930 34377 34332 