15255 15247 15259 15257 15257 15262 17924 17954 17956 17969 17994 17986 17985 17993 17992 17988 17985 17989 17990 17994 17998 18002 18014 18021 18036 18042 18065 18078 18091 18094 18110 18118 18124 18142 18147 18141 18148 18135 18129 18111 18107 18100 18105 18085 18086 18080 18083 18084 18066 18076 18081 18073 18095 18081 18089 18094 18099 18095 18107 18108 18114 18116 18112 18096 18075 18050 18046 18026 18025 18016 18014 18009 17995 17990 17990 17989 17989 17983 17984 17984 17983 17980 17996 17997 17999 17997 18006 18009 17990 17973 17954 17943 17926 17920 17902 17899 17896 17888 17890 17883 17878 17876 17879 17875 17877 17868 17882 17873 17889 17871 17887 17897 17899 17909 17896 17887 17865 17841 17842 17829 17816 17822 17824 17821 17807 17815 17829 17818 17824 17818 17823 17818 17801 17810 17848 17914 17984 18049 18125 18197 18258 18313 18391 18439 18495 18535 18582 18618 18646 18660 18664 18663 18670 18662 18657 18667 18668 18671 18660 18660 18658 18653 18645 18628 18608 18609 18604 18562 18557 18533 18503 18465 18451 18431 18381 18360 18330 18314 18279 18253 18242 18217 18219 18210 18186 18166 18157 18131 18113 18093 18094 18095 18108 18117 18021 17990 17964 17973 17997 18029 18143 18298 18289 18235 18190 18145 18066 18135 18146 18104 18009 17991 17951 17889 17836 17800 17752 17707 17662 17613 17566 17509 17461 17428 17396 17363 17360 17366 17360 17349 17306 17275 17246 17198 17166 17147 17130 17116 17089 17083 17076 17089 17089 17101 17109 17118 17136 17130 17123 17114 17111 17072 17065 17045 17043 17045 17062 17049 17043 17026 16994 16998 16979 16994 16999 16997 17025 17048 17073 17118 17152 17172 17196 17217 17238 17267 17293 17319 17329 17334 17343 17343 17316 17312 17310 17298 17311 17333 17349 17379 17417 17454 17481 17488 17486 17464 17441 17455 17448 17444 17443 17441 17452 17457 17475 17469 17474 17492 17496 17504 17504 17521 17508 17509 17522 17521 17517 17514 17524 17526 17543 17553 17569 17572 17601 17622 17639 17639 17642 17638 17634 17634 17635 17633 17647 17648 17652 17656 17668 17659 17665 17689 17686 17693 17700 17701 17706 17717 17704 17707 17705 17701 17694 17710 17703 17714 17723 17715 17729 17722 17736 17731 17743 17742 17754 17755 17748 17748 17726 17727 17715 17709 17714 17717 17713 17715 17715 17720 17723 17717 17715 17721 17719 17725 17700 17688 17680 17659 17643 17643 17634 17625 17615 17617 17618 17607 17610 17607 17596 17601 17605 17580 17565 17529 17529 17497 17476 17468 17461 17456 17448 17440 17435 17428 17418 17408 17401 17403 17404 17388 17361 17333 17311 17291 17270 17267 17250 17248 17238 17237 17228 17228 17231 17221 17224 17230 17226 17194 17170 17153 17134 17112 17106 17096 17092 17099 17094 17083 17097 17086 17095 17107 17097 17102 17118 17091 17084 17059 17052 17047 17024 17024 17028 17026 17037 17044 17034 17040 17056 17063 17062 17076 17082 17106 17107 17093 17079 17088 17071 17068 17073 17072 17075 17086 17082 17091 17107 17103 17121 17134 17140 17152 17161 17176 17172 17180 17182 17167 17161 17154 17165 17160 17180 17188 17180 17192 17202 17212 17231 17233 17243 17271 17268 17286 17296 17302 17320 17319 17317 17318 17322 17326 17334 17349 17350 17364 17361 17365 17379 17385 17390 17402 17417 17417 17431 17443 17461 17465 17473 17488 17491 17494 17500 17507 17497 17498 17508 17514 17517 17532 17534 17537 17550 17562 17558 17571 17577 17587 17602 17605 17620 17617 17626 17630 17644 17649 17647 17638 17655 17645 17644 17651 17655 17654 17652 17655 17670 17664 17663 17657 17670 17673 17663 17672 17688 17685 17684 17686 17708 17700 17685 17683 17676 17658 17649 17646 17631 17636 17621 17619 17605 17600 17585 17595 17578 17584 17578 17580 17576 17580 17582 17583 17578 17571 17579 17579 17582 17581 17572 17558 17538 17509 17500 17465 17448 17435 17436 17410 17402 17391 17389 17390 17355 17364 17355 17360 17348 17354 17345 17346 17347 17356 17359 17353 17355 17360 17369 17355 17355 17310 17289 17274 17253 17231 17225 17210 17205 17204 17197 17180 17168 17169 17168 17171 17156 17163 17164 17160 17172 17164 17177 17165 17181 17188 17194 17185 17193 17197 17187 17171 17141 17132 17114 17100 17099 17083 17086 17087 17068 17066 17077 17066 17072 17075 17071 17078 17079 17079 17086 17078 17092 17095 17102 17112 17111 17114 17135 17131 17132 17106 17100 17087 17081 17072 17070 17066 17063 17071 17069 17059 17068 17080 17071 17070 17076 17078 17097 17097 17108 17116 17121 17120 17133 17138 17145 17149 17153 17176 17167 17159 17161 17149 17149 17150 17143 17150 17149 17151 17154 17159 17154 17171 17158 17168 17170 17179 17185 17191 17190 17204 17208 17219 17210 17212 17229 17244 17246 17245 17248 17246 17245 17239 17233 17239 17241 17232 17243 17230 17239 17222 17232 17233 17225 17219 17229 17242 17234 17244 17239 17238 17230 17238 17248 17254 17244 17237 17230 17224 17225 17208 17215 17208 17193 17191 17183 17179 17176 17174 17166 17161 17164 17163 17162 17151 17161 17156 17163 17157 17152 17163 17155 17160 17156 17161 17161 17148 17138 17130 17124 17099 17091 17072 17080 17064 17061 17048 17045 17031 17030 17032 17020 17014 17023 17007 17009 17001 17014 17006 17005 17009 17004 16995 17004 16998 17014 17015 17001 16980 16970 16944 16938 16915 16922 16913 16905 16898 16884 16879 16888 16867 16861 16871 16866 16862 16862 16869 16864 16862 16872 16875 16865 16879 16883 16884 16888 16879 16888 16873 16869 16861 16855 16840 16834 16838 16832 16827 16821 16829 16829 16820 16812 16807 16817 16820 16818 16818 16817 16824 16826 16816 16825 16824 16830 16821 16815 16798 16790 16782 16783 16767 16765 16771 16767 16745 16754 16743 16747 16737 16741 16741 16727 16741 16741 16748 16743 16753 16753 16754 16765 16760 16770 16779 16768 16774 16759 16744 16750 16730 16740 16728 16720 16724 16710 16722 16698 16699 16704 16705 16711 16704 16705 16703 16703 16699 16708 16723 16708 16718 16717 16721 16719 16723 16711 16696 16686 16691 16678 16669 16677 16667 16673 16666 16652 16653 16645 16653 16654 16652 16652 16648 16652 16648 16663 16655 16655 16657 16665 16657 16666 16663 16673 16655 16655 16648 16644 16648 16631 16633 16620 16615 16629 16615 16606 16606 16595 16586 16581 16592 16586 16572 16587 16583 16581 16574 16570 16576 16580 16574 16578 16564 16546 16544 16531 16523 16509 16516 16513 16499 16496 16498 16487 16486 16483 16475 16490 16472 16468 16475 16472 16483 16478 16486 16488 16482 16499 16505 16496 16500 16506 16510 16516 16516 16530 16527 16531 16521 16513 16506 16494 16490 16490 16496 16486 16493 16478 16471 16479 16472 16468 16478 16473 16481 16466 16470 16473 16472 16484 16481 16486 16486 16493 16503 16491 16503 16504 16516 16507 16510 16507 16502 16485 16480 16474 16479 16477 16484 16472 16472 16462 16474 16464 16460 16458 16465 16467 16469 16469 16466 16470 16462 16471 16474 16482 16479 16486 16481 16480 16473 16456 16465 16454 16448 16438 16434 16426 16428 16419 16403 16401 16407 16388 16383 16384 16384 16386 16390 16387 16388 16374 16383 16385 16388 16394 16387 16377 16362 16353 16346 16324 16323 16310 16305 16303 16290 16286 16272 16268 16259 16264 16262 16261 16248 16249 16254 16264 16249 16257 16260 16263 16273 16265 16257 16246 16236 16221 16206 16197 16176 16174 16179 16163 16167 16155 16153 16135 16150 16139 16129 16146 16135 16141 16139 16142 16150 16139 16149 16157 16148 16157 16160 16159 16158 16144 16139 16129 16129 16110 16102 16098 16092 16090 16087 16078 16071 16076 16073 16071 16070 16079 16087 16079 16078 16078 16086 16080 16097 16094 16095 16082 16080 16069 16073 16062 16060 16057 16050 16050 16053 16055 16050 16050 16040 16052 16052 16056 16059 16073 16083 16082 16081 16092 16091 16097 16113 16108 16110 16132 16116 16113 16096 16093 16087 16093 16077 16086 16081 16077 16087 16088 16081 16093 16086 16086 16093 16104 16105 16109 16105 16118 16118 16116 16129 16124 16142 16136 16117 16122 16112 16097 16104 16101 16088 16092 16096 16095 16081 16095 16093 16081 16095 16089 16084 16096 16092 16093 16086 16093 16108 16113 16111 16110 16121 16123 16121 16127 16124 16119 16107 16100 16106 16088 16084 16082 16083 16076 16075 16060 16067 16082 16066 16066 16067 16065 16071 16065 16071 16079 16080 16074 16091 16093 16102 16095 16103 16096 16081 16080 16062 16052 16045 16049 16039 16041 16027 16021 16019 16026 16017 16014 16016 16007 16013 16022 16036 16036 16029 16029 16034 16035 16049 16053 16054 16052 16063 16071 16069 16084 16077 16076 16067 16058 16040 16041 16037 16030 16020 16035 16020 16012 16011 16015 16001 16009 16020 16014 16007 16006 16018 16021 16015 16022 16034 16034 16041 16057 16046 16055 16064 16068 16059 16057 16042 16043 16027 16021 16019 16019 16012 16011 16010 16004 15997 16001 16011 15996 16004 15994 16008 15995 16010 16011 16013 16005 16019 16013 16028 16030 16024 16031 16048 16043 16033 16028 16011 16001 15996 15993 15990 15989 15996 15989 15982 15975 15995 15970 15986 15986 15977 15993 15981 15991 15988 15992 15989 15999 16005 16011 16004 16005 16011 16000 15999 15989 15979 15966 15968 15972 15964 15949 15943 15948 15938 15939 15943 15924 15920 15927 15937 15921 15922 15925 15926 15936 15932 15935 15941 15934 15933 15917 15908 15904 15900 15889 15891 15886 15892 15880 15887 15871 15882 15880 15887 15886 15888 15894 15899 15899 15903 15913 15909 15919 15918 15931 15933 15948 15942 15941 15940 15933 15919 15901 15895 15895 15885 15875 15872 15894 15873 15889 15875 15876 15886 15882 15886 15886 15881 15890 15894 15900 15901 15904 15908 15916 15920 15933 15932 15942 15937 15947 15954 15951 15932 15933 15924 15910 15899 15899 15899 15894 15882 15889 15886 15878 15885 15885 15890 15899 15895 15898 15892 15900 15908 15913 15917 15924 15928 15932 15937 15939 15949 15932 15919 15906 15910 15896 15886 15887 15873 15878 15888 15873 15866 15873 15879 15873 15870 15877 15871 15873 15869 15875 15889 15878 15878 15888 15892 15884 15895 15897 15880 15886 15865 15852 15848 15847 15837 15833 15834 15834 15830 15814 15826 15823 15821 15815 15814 15817 15819 15824 15822 15818 15825 15828 15838 15833 15831 15813 15805 15798 15783 15771 15789 15773 15765 15787 15768 15772 15774 15776 15773 15783 15787 15793 15794 15790 15805 15799 15812 15811 15811 15814 15834 15839 15837 15842 15824 15803 15797 15783 15777 15777 15768 15759 15767 15768 15763 15757 15757 15764 15756 15770 15769 15768 15776 15778 15778 15785 15806 15797 15797 15810 15823 15818 15828 15835 15832 15839 15827 15816 15803 15801 15802 15779 15779 15783 15775 15780 15773 15770 15782 15772 15782 15776 15778 15789 15788 15795 15797 15800 15800 15809 15819 15817 15826 15836 15839 15842 15849 15857 15859 15846 15840 15827 15814 15814 15798 15794 15803 15786 15790 15787 15788 15790 15782 15782 15784 15792 15779 15792 15789 15806 15790 15797 15796 15802 15801 15799 15806 15808 15806 15812 15797 15782 15769 15769 15754 15753 15744 15744 15743 15738 15745 15735 15742 15736 15744 15752 15755 15756 15759 15761 15766 15768 15788 15793 15791 15798 15791 15778 15763 15752 15737 15738 15727 15738 15731 15721 15731 15720 15721 15727 15727 15710 15731 15731 15717 15739 15742 15737 15739 15755 15752 15757 15767 15772 15779 15779 15786 15765 15752 15738 15736 15726 15714 15698 15702 15702 15693 15693 15695 15683 15688 15696 15689 15693 15695 15691 15702 15693 15701 15697 15703 15697 15712 15721 15712 15701 15683 15675 15671 15656 15642 15636 15630 15629 15623 15615 15613 15599 15603 15603 15598 15599 15615 15610 15605 15609 15611 15610 15626 15623 15642 15640 15648 15631 15631 15609 15609 15589 15594 15586 15592 15595 15589 15595 15587 15590 15586 15591 15598 15614 15608 15607 15616 15616 15633 15633 15627 15644 15652 15662 15659 15658 15650 15642 15628 15612 15614 15602 15606 15596 15597 15608 15600 15599 15582 15603 15599 15600 15597 15604 15608 15617 15620 15633 15632 15646 15646 15642 15659 15658 15654 15645 15637 15630 15635 15614 15615 15605 15603 15602 15622 15611 15606 15612 15608 15614 15620 15619 15615 15635 15635 15632 15640 15631 15651 15650 15660 15655 15657 15661 15658 15659 15651 15634 15628 15627 15625 15599 15611 15602 15593 15603 15599 15594 15594 15600 15594 15593 15594 15600 15600 15604 15613 15609 15623 15627 15631 15644 15634 15638 15639 15623 15609 15607 15608 15610 15601 15609 15610 15609 15606 15609 15617 15614 15627 15638 15627 15644 15650 15649 15655 15656 15669 15671 15684 15686 15702 15699 15698 15702 15694 15686 15667 15665 15656 15647 15629 15642 15638 15638 15630 15629 15635 15628 15645 15632 15642 15640 15641 15656 15656 15654 15665 15671 15672 15667 15675 15687 15692 15699 15700 15688 15677 15669 15663 15644 15630 15636 15623 15635 15617 15620 15614 15622 15618 15616 15622 15626 15632 15636 15634 15645 15639 15645 15653 15662 15663 15674 15684 15674 15678 15655 15656 15642 15632 15625 15608 15600 15609 15599 15598 15599 15595 15588 15579 15585 15588 15592 15592 15590 15582 15585 15583 15598 15604 15600 15607 15613 15609 15606 15589 15571 15561 15554 15550 15536 15532 15520 15521 15519 15512 15510 15520 15515 15528 15512 15521 15513 15527 15526 15537 15547 15551 15548 15562 15548 15536 15528 15510 15509 15507 15492 15497 15501 15506 15492 15488 15490 15489 15503 15502 15511 15517 15514 15529 15533 15538 15540 15551 15551 15571 15560 15566 15565 15546 15531 15521 15512 15507 15503 15490 15496 15503 15497 15486 15490 15488 15499 15497 15505 15500 15506 15520 15516 15537 15534 15540 15539 15550 15563 15565 15570 15563 15564 15551 15541 15524 15518 15517 15512 15511 15506 15513 15505 15503 15510 15505 15505 15510 15503 15519 15513 15508 15519 15517 15530 15525 15530 15530 15545 15542 15550 15543 15551 15540 15519 15511 15500 15496 15496 15499 15490 15483 15490 15496 15486 15481 15491 15496 15506 15502 15509 15513 15516 15530 15543 15548 15551 15549 15566 15579 15569 15550 15541 15534 15527 15521 15525 15517 15519 15521 15519 15518 15528 15522 15533 15526 15528 15535 15536 15552 15558 15555 15557 15569 15574 15590 15583 15591 15596 15604 15592 15584 15578 15575 15569 15555 15553 15563 15553 15558 15553 15546 15555 15555 15552 15554 15557 15564 15573 15572 15577 15580 15592 15594 15607 15598 15603 15612 15617 15617 15608 15602 15595 15581 15579 15568 15567 15565 15559 15562 15555 15552 15562 15560 15562 15567 15569 15572 15577 15579 15595 15584 15607 15606 15611 15616 15623 15626 15635 15626 15611 15597 15582 15585 15587 15570 15566 15577 15566 15559 15568 15570 15572 15573 15569 15592 15579 15593 15592 15594 15595 15594 15611 15617 15626 15634 15631 15624 15599 15593 15583 15573 15558 15570 15567 15554 15553 15552 15536 15536 15541 15532 15541 15536 15534 15535 15540 15540 15555 15550 15539 15550 15563 15564 15566 15563 15543 15527 15506 15510 15494 15502 15506 15501 15502 15505 15501 15490 15503 15509 15511 15517 15524 15526 15526 15535 15533 15554 15546 15560 15562 15566 15555 15538 15524 15505 15509 15502 15495 15482 15486 15480 15491 15479 15478 15486 15488 15485 15479 15496 15494 15497 15509 15495 15505 15520 15524 15534 15525 15550 15533 15531 15513 15493 15485 15474 15476 15461 15464 15473 15459 15471 15464 15462 15451 15459 15470 15461 15466 15472 15475 15482 15480 15490 15493 15517 15511 15526 15529 15533 15528 15509 15507 15485 15484 15478 15464 15468 15464 15460 15450 15446 15460 15443 15455 15446 15455 15454 15452 15461 15464 15454 15463 15460 15472 15476 15479 15473 15485 15497 15482 15477 15468 15464 15441 15438 15434 15427 15428 15429 15431 15431 15427 15425 15438 15453 15442 15453 15446 15460 15471 15469 15483 15491 15488 15502 15503 15518 15509 15495 15474 15457 15453 15463 15449 15454 15450 15446 15449 15449 15446 15447 15445 15436 15448 15458 15455 15464 15462 15474 15471 15482 15499 15484 15497 15501 15515 15505 15508 15484 15470 15454 15449 15432 15441 15439 15429 15434 15424 15434 15421 15419 15414 15411 15430 15424 15423 15425 15432 15423 15434 15427 15430 15447 15442 15438 15453 15447 15423 15418 15403 15386 15379 15371 15371 15371 15373 15371 15363 15361 15361 15366 15368 15379 15379 15389 15387 15391 15407 15401 15414 15409 15430 15427 15447 15427 15421 15407 15397 15382 15370 15371 15367 15362 15353 15344 15355 15359 15353 15354 15359 15369 15364 15369 15380 15384 15382 15387 15382 15397 15393 15410 15417 15410 15403 15393 15390 15373 15371 15355 15353 15344 15354 15340 15342 15334 15336 15343 15337 15343 15343 15330 15347 15345 15350 15348 15354 15363 15365 15361 15374 15379 15373 15371 15350 15341 15321 15325 15315 15299 15305 15296 15306 15292 15291 15302 15290 15301 15292 15304 15308 15306 15315 15332 15325 15335 15340 15352 15358 15356 15344 15339 15322 15317 15307 15304 15305 15303 15315 15312 15324 15314 15321 15323 15327 15337 15347 15340 15343 15348 15364 15373 15376 15386 15395 15397 15399 15397 15388 15388 15368 15361 15363 15354 15353 15364 15341 15349 15351 15350 15342 15363 15347 15372 15361 15376 15370 15379 15367 15382 15382 15394 15397 15400 15401 15400 15411 15398 15401 15372 15360 15356 15346 15341 15340 15338 15329 15332 15326 15328 15323 15329 15325 15331 15343 15339 15352 15353 15350 15367 15362 15376 15390 15389 15399 15396 15386 15369 15361 15352 15347 15359 15343 15354 15359 15372 15367 15364 15361 15367 15373 15374 15386 15382 15395 15401 15401 15416 15416 15423 15429 15434 15447 15444 15445 15436 15417 15404 15408 15393 15398 15393 15392 15391 15384 15381 15385 15390 15395 15395 15393 15387 15414 15415 15414 15419 15421 15434 15437 15440 15450 15446 15457 15461 15454 15437 15424 15413 15393 15396 15383 15390 15369 15369 15375 15362 15366 15350 15357 15356 15362 15364 15368 15360 15374 15381 15387 15384 15378 15387 15391 15397 15392 15366 15354 15339 15346 15342 15331 15335 15335 15338 15329 15328 15323 15344 15349 15354 15358 15371 15375 15369 15375 15389 15390 15398 15410 15401 15395 15385 15378 15357 15351 15350 15342 15329 15335 15336 15337 15334 15330 15339 15331 15349 15343 15360 15361 15361 15369 15372 15381 15393 15383 15398 15407 15402 15403 15395 15374 15359 15347 15347 15331 15342 15337 15330 15331 15337 15326 15327 15330 15330 15330 15336 15343 15342 15346 15352 15350 15362 15353 15357 15376 15371 15373 15363 15349 15328 15318 15304 15297 15298 15300 15288 15288 15287 15281 15293 15285 15296 15283 15293 15287 15290 15295 15300 15293 15309 15319 15311 15326 15321 15315 15297 15290 15282 15285 15283 15287 15278 15294 15295 15300 15296 15314 15303 15311 15314 15332 15340 15339 15334 15359 15365 15365 15369 15380 15377 15375 15359 15349 15337 15324 15330 15332 15321 15327 15333 15332 15317 15319 15329 15335 15333 15352 15354 15349 15367 15362 15375 15381 15388 15395 15390 15404 15412 15399 15397 15368 15366 15357 15360 15357 15347 15345 15344 15342 15337 15334 15349 15331 15341 15345 15342 15343 15354 15353 15362 15363 15364 15370 15370 15370 15360 15351 15338 15322 15316 15316 15309 15310 15303 15301 15298 15294 15292 15292 15301 15302 15304 15307 15314 15310 15328 15337 15338 15339 15350 15354 15343 15328 15311 15309 15300 15307 15313 15297 15304 15307 15315 15326 15313 15336 15326 15332 15333 15336 15349 15351 15352 15374 15371 15370 15389 15394 15406 15403 15411 15382 15368 15364 15341 15338 15347 15338 15343 15339 15338 15329 15331 15343 15347 15341 15349 15344 15356 15373 15366 15377 15378 15394 15397 15400 15404 15419 15410 15405 15383 15386 15369 15368 15358 15350 15349 15349 15355 15342 15355 15349 15351 15357 15354 15368 15359 15376 15374 15379 15384 15391 15403 15406 15410 15416 15427 15436 15431 15427 15413 15408 15387 15387 15374 15369 15371 15366 15353 15350 15355 15342 15347 15348 15360 15356 15360 15361 15362 15364 15366 15388 15379 15381 15381 15396 15390 15383 15374 15365 15348 15343 15341 15336 15343 15332 15329 15324 15326 15329 15335 15334 15341 15329 15340 15348 15353 15355 15370 15366 15364 15370 15374 15367 15350 15349 15330 15328 15337 15336 15339 15335 15351 15343 15333 15340 15353 15349 15360 15367 15369 15375 15385 15387 15393 15396 15414 15404 15394 15371 15369 15366 15353 15338 15347 15357 15338 15348 15348 15348 15357 15361 15358 15371 15374 15375 15382 15386 15391 15387 15413 15420 15422 15417 15417 15403 15396 15382 15373 15383 15376 15381 15369 15377 15379 15384 15385 15375 15389 15396 15401 15398 15414 15412 15428 15433 15435 15439 15453 15447 15452 15446 15422 15417 15419 15430 15430 15422 15433 15424 15433 15432 15447 15448 15437 15456 15457 15471 15475 15477 15480 15490 15498 15505 15524 15520 15533 15534 15540 15518 15507 15506 15518 15516 15507 15522 15514 15530 15520 15522 15530 15536 15550 15549 15556 15553 15566 15569 15576 15581 15590 15603 15607 15614 15626 15616 15638 15641 15666 15646 15647 15656 15643 15640 15631 15627 15622 15629 15623 15628 15629 15626 15628 15632 15636 15635 15641 15645 15656 15662 15658 15663 15672 15681 15684 15689 15686 15702 15710 15719 15719 15726 15716 15706 15691 15690 15683 15687 15685 15681 15678 15672 15680 15670 15679 15679 15675 15673 15682 15686 15681 15682 15688 15695 15711 15695 15698 15707 15708 15711 15728 15728 15720 15719 15708 15690 15685 15678 15679 15671 15661 15663 15661 15660 15663 15666 15662 15663 15662 15663 15663 15660 15674 15673 15688 15696 15690 15701 15699 15704 15699 15702 15688 15675 15665 15658 15639 15651 15642 15641 15640 15630 15636 15631 15640 15646 15648 15656 15641 15645 15657 15667 15664 15663 15667 15665 15685 15686 15685 15691 15706 15677 15676 15657 15647 15632 15626 15628 15621 15627 15619 15625 15617 15608 15606 15611 15619 15615 15625 15616 15633 15620 15629 15637 15632 15649 15656 15644 15656 15665 15666 15647 15628 15626 15610 15598 15591 15582 15585 15574 15570 15570 15561 15555 15557 15563 15560 15549 15566 15563 15563 15564 15559 15569 15568 15577 15569 15575 15579 15570 15561 15551 15531 15531 15505 15506 15508 15506 15504 15489 15502 15490 15487 15497 15498 15507 15496 15515 15512 15514 15509 15516 15524 15527 15530 15539 15521 15499 15494 15475 15468 15459 15448 15446 15435 15439 15446 15439 15435 15433 15442 15438 15447 15443 15444 15444 15445 15463 15453 15464 15478 15472 15472 15466 15443 15430 15414 15397 15397 15396 15382 15388 15378 15384 15370 15388 15381 15372 15374 15395 15381 15386 15391 15392 15399 15407 15408 15420 15425 15424 15429 15426 15404 15390 15375 15368 15367 15355 15355 15352 15357 15345 15344 15334 15342 15330 15336 15338 15333 15348 15339 15342 15353 15351 15357 15365 15359 15374 15376 15366 15363 15332 15328 15311 15308 15303 15291 15300 15299 15292 15294 15294 15297 15289 15291 15310 15300 15310 15319 15317 15326 15333 15340 15348 15352 15349 15351 15347 15335 15316 15315 15299 15306 15299 15303 15293 15299 15301 15303 15305 15305 15313 15306 15313 15325 15323 15320 15344 15345 15346 15356 15346 15357 15375 15383 15384 15380 15354 15349 15344 15336 15310 15320 15312 15302 15305 15300 15296 15302 15304 15308 15298 15302 15308 15310 15320 15325 15316 15325 15329 15332 15338 15339 15353 15363 15349 15341 15334 15324 15309 15303 15294 15293 15292 15294 15296 15293 15288 15283 15287 15282 15279 15280 15277 15276 15290 15282 15285 15295 15292 15294 15293 15297 15313 15294 15283 15271 15263 15255 15236 15235 15231 15238 15227 15216 15222 15227 15231 15230 15236 15236 15236 15247 15250 15254 15260 15267 15272 15274 15285 15288 15286 15278 15255 15244 15236 15225 15216 15225 15224 15232 15229 15236 15227 15217 15235 15225 15239 15238 15243 15247 15251 15257 15266 15272 15271 15282 15290 15281 15279 15254 15241 15230 15219 15212 15222 15217 15212 15219 15216 15199 15215 15207 15204 15215 15223 15222 15232 15221 15237 15234 15245 15246 15262 15256 15259 15267 15279 15261 15259 15234 15210 15198 15198 15197 15195 15189 15183 15181 15182 15189 15181 15175 15164 15175 15182 15185 15185 15188 15192 15196 15205 15210 15205 15216 15220 15213 15216 15203 15193 15177 15171 15166 15174 15170 15179 15168 15166 15166 15174 15185 15181 15190 15183 15196 15195 15202 15223 15215 15227 15229 15244 15244 15260 15256 15267 15254 15249 15231 15224 15210 15212 15211 15204 15201 15204 15200 15201 15202 15210 15201 15206 15207 15219 15226 15228 15228 15246 15239 15249 15241 15252 15262 15268 15277 15284 15285 15277 15273 15258 15246 15242 15233 15232 15226 15239 15227 15221 15222 15225 15226 15227 15231 15230 15231 15232 15243 15246 15253 15246 15255 15261 15268 15278 15291 15276 15287 15301 15292 15282 15260 15255 15238 15225 15220 15224 15214 15214 15196 15203 15199 15207 15207 15196 15203 15204 15204 15205 15217 15220 15214 15223 15228 15230 15234 15240 15245 15235 15229 15219 15207 15209 15203 15208 15204 15210 15210 15206 15208 15211 15217 15208 15224 15220 15231 15243 15242 15244 15255 15252 15263 15271 15279 15286 15268 15257 15249 15232 15221 15218 15214 15216 15212 15208 15210 15208 15206 15207 15209 15200 15208 15215 15208 15227 15226 15236 15238 15247 15245 15238 15249 15248 15232 15219 15202 15191 15181 15178 15162 15157 15154 15158 15159 15137 15144 15137 15146 15146 15152 15146 15152 15155 15158 15162 15157 15167 15165 15176 15178 15163 15155 15128 15119 15108 15102 15104 15094 15090 15090 15076 15081 15085 15084 15093 15087 15101 15104 15112 15107 15118 15129 15128 15137 15149 15144 15133 15129 15106 15093 15086 15073 15088 15086 15084 15085 15087 15083 15089 15090 15086 15092 15096 15110 15121 15123 15125 15132 15132 15140 15147 15157 15171 15175 15172 15173 15150 15134 15130 15124 15125 15117 15113 15114 15119 15116 15116 15120 15131 15129 15127 15135 15139 15148 15149 15155 15156 15168 15171 15169 15172 15184 15197 15191 15201 15202 15183 15169 15155 15151 15133 15141 15148 15141 15127 15141 15144 15134 15130 15143 15139 15141 15135 15146 15151 15149 15161 15164 15167 15167 15185 15188 15188 15183 15186 15177 15167 15165 15159 15154 15169 15166 15166 15177 15170 15169 15181 15178 15198 15186 15201 15206 15220 15214 15227 15227 15241 15245 15252 15257 15260 15248 15244 15229 15226 15212 15210 15213 15201 15207 15209 15216 15211 15217 15208 15211 15217 15225 15221 15231 15232 15242 15251 15246 15253 15264 15267 15269 15278 15277 15263 15249 15240 15214 15219 15219 15202 15222 15190 15202 15193 15174 15184 15187 15187 15185 15185 15182 15192 15186 15189 15195 15192 15198 15202 15208 15210 15216 15207 15201 15183 15169 15161 15158 15147 15152 15146 15146 15149 15135 15144 15135 15151 15142 15153 15150 15165 15163 15172 15165 15182 15189 15195 15199 15194 15190 15180 15150 15152 15141 15130 15136 15128 15125 15126 15127 15126 15127 15129 15123 15135 15142 15130 15146 15137 15149 15145 15163 15164 15181 15176 15171 15183 15194 15183 15173 15147 15130 15125 15117 15117 15119 15114 15114 15113 15111 15113 15114 15123 15116 15112 15119 15123 15122 15127 15128 15130 15144 15139 15145 15148 15157 15165 15156 15136 15116 15115 15100 15095 15091 15090 15089 15070 15070 15060 15053 15054 15063 15066 15070 15078 15079 15079 15087 15082 15101 15096 15104 15097 15113 15104 15094 15083 15070 15070 15067 15055 15074 15063 15059 15053 15058 15055 15066 15071 15078 15080 15080 15095 15093 15096 15097 15106 15110 15114 15125 15117 15129 15123 15107 15088 15072 15067 15062 15050 15052 15053 15056 15047 15045 15063 15054 15046 15055 15066 15076 15062 15071 15082 15090 15093 15097 15105 15102 15122 15113 15112 15099 15070 15058 15057 15047 15041 15036 15042 15033 15031 15025 15030 15032 15027 15028 15033 15033 15043 15045 15051 15049 15050 15055 15063 15070 15095 15076 15084 15074 15056 15037 15017 15017 15001 14999 15000 14992 14995 14994 14993 14994 15002 14999 15000 15004 14997 15003 15019 15020 15021 15027 15027 15035 15042 15048 15049 15025 15013 15003 15005 15005 15005 15012 15013 15011 15014 15016 15017 15016 15014 15034 15032 15039 15040 15046 15054 15066 15069 15082 15078 15094 15087 15097 15093 15088 15060 15061 15052 15036 15048 15032 15040 15031 15040 15038 15044 15047 15042 15047 15046 15052 15060 15052 15067 15073 15085 15077 15079 15090 15093 15103 15114 15127 15121 15116 15097 15078 15079 15064 15060 15051 15039 15050 15043 15042 15051 15039 15044 15044 15047 15051 15044 15056 15055 15059 15055 15057 15066 15073 15079 15074 15083 15084 15094 15102 15098 15100 15097 15082 15057 15052 15054 15029 15032 15035 15034 15027 15023 15028 15035 15021 15040 15039 15049 15041 15041 15045 15060 15066 15066 15076 15082 15076 15089 15097 15091 15093 15067 15067 15058 15050 15053 15046 15051 15051 15047 15045 15053 15055 15057 15062 15071 15076 15081 15081 15086 15081 15088 15101 15110 15109 15124 15126 15136 15139 15133 15139 15109 15103 15095 15092 15079 15077 15084 15077 15085 15081 15083 15077 15087 15085 15088 15088 15104 15108 15103 15096 15115 15116 15127 15135 15140 15135 15149 15154 15141 15162 15156 15137 15115 15106 15112 15082 15088 15095 15102 15094 15087 15094 15086 15094 15090 15094 15104 15099 15096 15109 15120 15116 15125 15127 15123 15134 15142 15145 15139 15148 15142 15132 15123 15103 15090 15082 15080 15070 15062 15059 15057 15047 15050 15051 15049 15046 15033 15043 15058 15047 15046 15054 15051 15063 15063 15058 15070 15075 15086 15091 15080 15056 15037 15042 15038 15038 15037 15047 15035 15039 15040 15036 15043 15049 15046 15055 15058 15072 15075 15075 15082 15088 15113 15098 15106 15129 15119 15115 15112 15102 15080 15074 15060 15058 15065 15054 15063 15056 15045 15050 15055 15051 15065 15062 15071 15075 15085 15079 15088 15089 15094 15109 15104 15120 15118 15124 15132 15129 15119 15112 15099 15092 15075 15072 15077 15071 15069 15061 15064 15066 15059 15070 15079 15078 15086 15084 15091 15092 15106 15090 15096 15111 15119 15128 15133 15134 15143 15134 15125 15105 15097 15084 15078 15072 15070 15069 15074 15072 15063 15056 15059 15065 15050 15059 15056 15065 15061 15061 15068 15078 15078 15080 15084 15083 15088 15081 15073 15052 15028 15034 15032 15024 15026 15027 15021 15017 15008 15013 15017 15014 15009 15026 15024 15038 15037 15043 15063 15066 15058 15059 15069 15054 15034 15034 15023 15022 15016 15020 15018 15034 15020 15022 15029 15025 15041 15042 15036 15047 15058 15052 15072 15062 15077 15083 15091 15078 15091 15094 15074 15059 15035 15038 15033 15033 15034 15032 15029 15031 15029 15037 15028 15032 15038 15039 15042 15038 15052 15067 15060 15078 15068 15075 15084 15094 15094 15106 15105 15090 15066 15054 15056 15043 15041 15036 15030 15034 15035 15029 15034 15038 15037 15031 15041 15040 15045 15032 15054 15048 15056 15049 15061 15058 15077 15072 15077 15078 15058 15054 15054 15040 15035 15022 15025 15024 15023 15022 15016 15018 15027 15025 15018 15038 15035 15037 15041 15059 15063 15061 15074 15077 15094 15086 15092 15092 15076 15061 15053 15049 15056 15058 15062 15061 15062 15069 15068 15071 15075 15079 15074 15077 15099 15100 15105 15114 15111 15117 15123 15145 15144 15140 15144 15140 15125 15112 15095 15101 15100 15107 15090 15104 15099 15104 15092 15100 15094 15101 15102 15114 15114 15107 15122 15114 15115 15130 15116 15133 15131 15128 15137 15133 15119 15106 15094 15076 15072 15071 15053 15054 15051 15054 15050 15044 15047 15043 15052 15055 15066 15059 15056 15070 15069 15083 15081 15089 15086 15096 15095 15068 15054 15050 15041 15048 15052 15050 15054 15054 15043 15055 15059 15054 15058 15068 15074 15073 15082 15084 15092 15103 15104 15112 15119 15123 15112 15101 15080 15067 15063 15051 15048 15050 15045 15053 15045 15045 15039 15031 15043 15042 15055 15064 15056 15062 15069 15080 15079 15085 15088 15088 15097 15100 15101 15085 15063 15054 15040 15041 15041 15041 15032 15029 15031 15035 15033 15041 15031 15032 15035 15026 15039 15037 15046 15051 15052 15050 15051 15049 15052 15060 15069 15064 15057 15030 15009 15005 15001 14989 14994 14990 14983 14989 14978 14976 14979 14979 14984 14983 14985 14988 14991 14997 14997 14998 15007 15001 15024 15024 15029 15035 15025 15008 14996 14977 14989 14987 14997 15000 15005 14996 14996 14993 15017 15007 15006 15013 15011 15024 15031 15036 15030 15055 15055 15065 15068 15072 15080 15073 15062 15055 15040 15025 15015 15030 15019 15019 15015 15027 15018 15023 15016 15029 15024 15031 15041 15045 15048 15043 15055 15059 15071 15072 15074 15081 15088 15093 15092 15082 15065 15057 15045 15041 15038 15034 15031 15021 15021 15013 15009 15022 15026 15010 15012 15017 15023 15025 15031 15031 15029 15044 15035 15046 15050 15056 15056 15042 15027 15015 15009 14996 14990 14994 14979 14983 14990 14982 14979 14998 14984 15000 14998 15001 15004 15018 15015 15025 15022 15029 15041 15052 15050 15052 15032 15024 15017 15011 15008 15003 15006 14994 14999 15002 15010 15001 15013 15009 15020 15013 15022 15017 15030 15039 15049 15064 15048 15062 15064 15072 15073 15065 15052 15038 15017 15020 15022 15013 15005 15010 15017 15020 15019 15004 15011 15016 15022 15028 15037 15042 15042 15045 15054 15044 15053 15074 15063 15079 15068 15075 15050 15024 15024 15005 15002 15005 14993 15007 14988 14989 14994 14979 14982 14986 15001 14992 14992 15002 14997 15005 15003 15014 15010 15009 15016 15024 15019 14995 14981 14973 14971 14965 14963 14968 14972 14967 14964 14954 14965 14957 14965 14972 14968 14975 14978 14992 14997 15009 15012 15020 15026 15021 15013 15004 14997 14989 14976 14975 14969 14976 14970 14977 14976 14973 14976 14981 14991 14985 14990 14997 15005 15011 15015 15033 15033 15031 15040 15054 15064 15049 15041 15020 15013 15015 15001 14994 15007 15005 15003 15007 14993 14995 14988 15007 15013 15008 15026 15016 15022 15039 15033 15043 15055 15056 15056 15060 15058 15067 15057 15039 15028 15021 15014 15008 15011 15011 15003 15006 14999 14996 15001 15004 14990 15003 15000 15019 15005 15021 15026 15023 15020 15029 15039 15045 15038 15036 15034 15002 14992 14985 14993 14976 14983 14985 14984 14980 14976 14973 14988 14981 14992 15000 15001 15008 15020 15017 15031 15037 15042 15057 15049 15042 15043 15027 15005 15013 15007 15006 15012 15006 15009 15000 15011 15006 15016 15021 15014 15022 15033 15041 15047 15041 15051 15057 15070 15073 15081 15072 15068 15054 15033 15039 15031 15025 15026 15030 15018 15023 15020 15033 15023 15029 15040 15044 15047 15051 15057 15067 15073 15071 15087 15077 15091 15102 15096 15087 15083 15070 15058 15060 15064 15063 15058 15069 15058 15069 15063 15067 15062 15065 15083 15082 15087 15084 15085 15102 15107 15112 15126 15122 15123 15120 15118 15112 15105 15107 15095 15095 15101 15109 15098 15103 15102 15097 15115 15114 15120 15117 15128 15128 15139 15138 15146 15161 15157 15166 15172 15155 15152 15155 15142 15159 15169 15169 15168 15168 15184 15181 15196 15196 15207 15220 15220 15223 15228 15244 15252 15253 15260 15258 15273 15260 15258 15256 15246 15252 15254 15250 15260 15253 15271 15266 15270 15268 15276 15282 15283 15290 15311 15314 15329 15330 15353 15369 15380 15378 15383 15396 15409 15408 15431 15438 15449 15462 15472 15481 15490 15507 15518 15521 15531 15526 15537 15549 15559 15556 15554 15556 15557 15537 15530 15521 15516 15515 15514 15514 15502 15501 15510 15494 15498 15495 15492 15494 15498 15485 15491 15491 15493 15481 15481 15470 15464 15455 15450 15450 15463 15457 15455 15440 15451 15452 15449 15447 15448 15449 15451 15449 15439 15452 15444 15451 15441 15432 15423 15413 15396 15403 15401 15395 15390 15398 15381 15374 15380 15385 15381 15380 15378 15387 15382 15379 15395 15386 15386 15385 15399 15407 15377 15374 15372 15370 15355 15349 15360 15347 15358 15359 15355 15354 15352 15353 15353 15362 15367 15369 15358 15369 15383 15372 15377 15382 15389 15392 15394 15391 15388 15377 15368 15365 15361 15353 15350 15356 15349 15344 15344 15342 15344 15344 15337 15344 15337 15343 15337 15338 15343 15348 15344 15349 15349 15350 15357 15358 15354 15357 15360 15352 15349 15330 15336 15325 15326 15307 15310 15312 15315 15301 15307 15303 15295 15297 15293 15306 15302 15300 15306 15299 15301 15294 15305 15306 15302 15316 15313 15310 15312 15317 15318 15333 15325 15319 15323 15333 15324 15313 15307 15290 15290 15280 15282 15285 15272 15280 15269 15275 15271 15257 15278 15266 15280 15280 15274 15270 15274 15285 15283 15295 15295 15291 15286 15300 15296 15308 15306 15316 15313 15312 15300 15291 15285 15271 15273 15265 15274 15256 15259 15253 15255 15248 15244 15247 15250 15243 15247 15245 15229 15244 15240 15244 15245 15240 15247 15256 15258 15248 15248 15252 15268 15261 15249 15243 15229 15219 15210 15209 15219 15216 15216 15212 15204 15225 15208 15201 15206 15215 15222 15212 15211 15222 15229 15225 15223 15218 15236 15239 15242 15233 15252 15249 15242 15231 15214 15222 15203 15202 15191 15194 15196 15182 15182 15185 15192 15187 15182 15181 15184 15184 15189 15184 15193 15200 15207 15194 15192 15198 15207 15207 15215 15209 15218 15212 15216 15203 15185 15171 15160 15167 15159 15164 15167 15147 15149 15150 15151 15146 15150 15143 15149 15141 15150 15142 15146 15156 15155 15159 15156 15153 15160 15167 15165 15174 15180 15184 15172 15162 15158 15134 15127 15128 15129 15117 15116 15110 15102 15093 15087 15098 15085 15085 15081 15086 15077 15089 15081 15070 15082 15079 15089 15077 15086 15081 15083 15094 15087 15091 15081 15051 15043 15037 15034 15033 15037 15015 15016 15025 15012 15006 15010 15008 15016 15012 15015 15015 15007 15018 15021 15026 15024 15034 15031 15033 15039 15043 15028 15004 14990 14985 14994 14977 14982 14974 14965 14970 14963 14968 14968 14965 14965 14968 14970 14969 14973 14970 14970 14977 14974 14979 14984 14987 14994 14989 15004 15003 14987 14971 14974 14960 14941 14955 14948 14953 14933 14938 14938 14930 14923 14923 14931 14921 14925 14936 14938 14936 14945 14945 14954 14955 14959 14959 14974 14968 14970 14981 14970 14977 14969 14944 14934 14930 14931 14924 14918 14920 14914 14922 14918 14914 14919 14908 14923 14913 14929 14926 14913 14927 14929 14940 14936 14945 14939 14936 14950 14958 14965 14961 14946 14943 14945 14931 14927 14923 14922 14923 14917 14921 14918 14916 14929 14924 14923 14920 14932 14930 14930 14948 14935 14935 14944 14955 14959 14957 14968 14970 14969 14964 14957 14949 14957 14930 14925 14921 14915 14922 14916 14907 14912 14917 14909 14908 14902 14905 14907 14914 14916 14913 14913 14914 14906 14917 14918 14925 14929 14932 14915 14907 14891 14885 14883 14870 14871 14861 14856 14865 14859 14860 14842 14850 14846 14846 14857 14856 14859 14848 14857 14862 14864 14871 14878 14871 14875 14865 14849 14840 14838 14825 14828 14817 14824 14816 14822 14816 14821 14819 14813 14808 14806 14815 14821 14827 14818 14818 14822 14828 14837 14834 14846 14848 14844 14849 14852 14844 14823 14802 14807 14782 14787 14780 14781 14768 14775 14777 14764 14763 14762 14775 14763 14770 14780 14772 14775 14780 14780 14771 14784 14787 14796 14792 14803 14801 14809 14811 14812 14807 14797 14773 14772 14764 14750 14744 14750 14745 14754 14754 14746 14757 14747 14746 14751 14759 14769 14761 14760 14757 14771 14766 14766 14769 14775 14766 14785 14779 14787 14781 14773 14760 14737 14741 14740 14727 14739 14735 14729 14730 14720 14721 14713 14722 14719 14733 14736 14730 14734 14736 14741 14737 14738 14745 14755 14752 14765 14759 14763 14760 14762 14743 14745 14740 14738 14740 14741 14735 14742 14750 14746 14741 14757 14757 14762 14761 14772 14765 14774 14780 14787 14786 14789 14801 14802 14797 14813 14816 14808 14805 14803 14790 14788 14780 14780 14769 14778 14764 14772 14769 14774 14775 14780 14775 14775 14778 14778 14797 14804 14799 14804 14806 14807 14820 14818 14820 14828 14824 14819 14811 14795 14792 14790 14775 14782 14768 14774 14774 14776 14771 14760 14765 14771 14764 14769 14772 14768 14772 14767 14767 14779 14782 14780 14781 14786 14790 14787 14776 14774 14753 14746 14736 14736 14733 14722 14721 14707 14712 14707 14714 14715 14721 14708 14712 14718 14717 14724 14727 14734 14734 14737 14742 14745 14753 14745 14740 14726 14706 14717 14709 14708 14702 14702 14699 14709 14705 14705 14713 14711 14717 14718 14722 14722 14725 14726 14730 14728 14737 14751 14745 14760 14764 14762 14756 14721 14725 14712 14697 14693 14688 14693 14688 14690 14680 14684 14686 14683 14691 14688 14700 14702 14705 14695 14716 14712 14715 14713 14722 14723 14727 14729 14743 14732 14721 14711 14697 14689 14683 14671 14663 14660 14668 14654 14654 14652 14644 14639 14634 14647 14651 14647 14653 14651 14655 14655 14658 14659 14663 14668 14676 14671 14669 14662 14641 14633 14630 14608 14617 14619 14619 14616 14616 14615 14606 14619 14621 14627 14628 14634 14648 14645 14654 14651 14658 14667 14673 14673 14681 14682 14681 14662 14645 14642 14638 14629 14635 14626 14628 14635 14631 14628 14634 14640 14632 14640 14654 14655 14659 14655 14657 14670 14662 14674 14674 14685 14686 14700 14702 14702 14710 14701 14682 14670 14677 14667 14667 14657 14672 14661 14659 14666 14669 14663 14658 14673 14663 14677 14678 14678 14680 14684 14682 14683 14690 14705 14692 14707 14701 14707 14713 14703 14685 14680 14667 14658 14659 14646 14641 14649 14644 14640 14638 14638 14635 14639 14639 14632 14652 14657 14645 14655 14645 14664 14671 14679 14680 14687 14681 14672 14664 14660 14640 14643 14643 14648 14649 14656 14659 14649 14655 14653 14662 14661 14675 14674 14678 14677 14687 14687 14700 14699 14712 14712 14724 14721 14724 14712 14696 14690 14683 14681 14672 14663 14669 14669 14661 14672 14672 14669 14662 14669 14668 14668 14680 14681 14677 14685 14694 14705 14695 14703 14702 14711 14722 14727 14724 14718 14696 14695 14675 14675 14677 14666 14681 14662 14670 14657 14667 14669 14672 14670 14661 14671 14667 14678 14672 14679 14672 14673 14680 14684 14689 14688 14685 14695 14688 14686 14668 14656 14643 14637 14632 14631 14629 14635 14633 14624 14621 14624 14615 14620 14617 14623 14628 14637 14625 14630 14642 14642 14649 14641 14651 14654 14655 14641 14620 14614 14611 14616 14618 14609 14617 14626 14623 14616 14625 14623 14619 14630 14637 14653 14644 14655 14660 14663 14675 14676 14679 14692 14689 14695 14693 14678 14668 14663 14652 14642 14644 14641 14648 14647 14648 14642 14655 14652 14643 14653 14655 14670 14675 14673 14669 14670 14681 14689 14697 14706 14702 14720 14718 14719 14720 14717 14704 14693 14681 14681 14673 14672 14678 14669 14669 14678 14675 14682 14684 14680 14685 14679 14694 14693 14692 14707 14712 14703 14716 14717 14732 14727 14730 14730 14723 14709 14696 14685 14667 14669 14669 14676 14658 14668 14662 14662 14658 14653 14655 14649 14644 14664 14664 14659 14668 14670 14676 14675 14673 14687 14679 14676 14673 14665 14661 14642 14648 14649 14639 14651 14650 14654 14653 14641 14652 14658 14664 14672 14674 14675 14694 14696 14692 14711 14699 14709 14715 14715 14691 14694 14687 14668 14668 14664 14661 14665 14659 14667 14668 14662 14673 14670 14683 14676 14683 14686 14688 14692 14697 14699 14706 14710 14717 14717 14719 14705 14688 14679 14670 14672 14667 14672 14664 14665 14669 14655 14658 14662 14669 14664 14659 14654 14667 14669 14669 14664 14670 14679 14678 14681 14684 14684 14690 14681 14654 14642 14634 14620 14636 14626 14641 14620 14623 14623 14628 14618 14615 14625 14623 14638 14634 14637 14641 14647 14656 14655 14654 14661 14660 14649 14644 14627 14627 14633 14632 14631 14629 14633 14638 14630 14644 14640 14644 14660 14656 14668 14667 14678 14690 14686 14699 14705 14697 14707 14703 14700 14693 14675 14668 14663 14656 14659 14653 14658 14661 14654 14651 14661 14662 14664 14663 14668 14673 14671 14689 14695 14695 14701 14704 14710 14712 14717 14718 14718 14704 14689 14672 14669 14664 14661 14644 14664 14662 14670 14662 14663 14673 14667 14672 14681 14682 14697 14687 14687 14690 14700 14694 14710 14705 14707 14710 14710 14684 14682 14665 14663 14643 14641 14643 14646 14638 14644 14637 14630 14635 14637 14629 14636 14644 14652 14656 14648 14656 14667 14666 14664 14675 14681 14679 14674 14657 14644 14633 14638 14635 14629 14632 14628 14639 14641 14641 14641 14640 14644 14653 14659 14660 14664 14673 14683 14692 14683 14695 14701 14704 14703 14699 14681 14675 14674 14660 14665 14667 14664 14662 14663 14669 14667 14665 14675 14680 14685 14675 14691 14689 14696 14707 14700 14711 14716 14719 14733 14736 14747 14752 14751 14749 14734 14731 14702 14712 14701 14700 14705 14704 14700 14700 14705 14713 14721 14706 14714 14726 14726 14733 14733 14730 14747 14739 14749 14753 14765 14768 14779 14776 14796 14785 14786 14778 14765 14759 14751 14748 14751 14749 14751 14755 14755 14762 14760 14754 14744 14765 14761 14769 14770 14769 14782 14779 14783 14789 14798 14796 14797 14808 14815 14808 14809 14801 14793 14790 14783 14783 14791 14783 14794 14787 14790 14794 14800 14803 14801 14824 14816 14831 14811 14839 14841 14853 14847 14851 14854 14872 14869 14869 14849 14851 14853 14848 14856 14853 14859 14850 14864 14859 14850 14856 14864 14873 14876 14871 14887 14891 14886 14887 14910 14899 14919 14924 14926 14932 14931 14944 14928 14915 14917 14907 14903 14897 14907 14901 14903 14907 14903 14903 14901 14901 14893 14909 14905 14917 14917 14917 14929 14929 14934 14931 14948 14940 14955 14963 14966 14956 14940 14933 14912 14911 14897 14906 14893 14897 14892 14884 14885 14880 14885 14891 14888 14877 14886 14879 14880 14893 14890 14893 14903 14886 14900 14895 14903 14910 14911 14896 14890 14877 14873 14860 14862 14858 14868 14872 14857 14850 14859 14863 14863 14868 14886 14884 14885 14884 14883 14902 14901 14910 14904 14913 14923 14923 14928 14923 14915 14885 14893 14874 14869 14870 14869 14870 14871 14867 14869 14867 14862 14868 14870 14870 14873 14885 14885 14889 14889 14888 14902 14896 14907 14918 14910 14921 14928 14923 14930 14918 14911 14895 14883 14879 14880 14868 14864 14870 14861 14859 14860 14851 14852 14851 14859 14859 14864 14861 14865 14864 14871 14875 14888 14880 14872 14879 14886 14892 14892 14884 14875 14858 14858 14848 14841 14840 14840 14845 14837 14830 14838 14845 14846 14844 14849 14846 14860 14853 14863 14862 14867 14869 14876 14879 14889 14895 14902 14893 14886 14874 14865 14849 14845 14841 14847 14846 14838 14832 14835 14842 14830 14840 14841 14846 14849 14840 14850 14855 14850 14874 14866 14874 14887 14873 14885 14898 14892 14893 14885 14883 14860 14854 14848 14842 14841 14837 14835 14841 14826 14822 14830 14830 14835 14840 14839 14850 14846 14858 14857 14856 14866 14855 14868 14884 14879 14886 14886 14899 14882 14879 14861 14849 14845 14840 14834 14828 14824 14818 14827 14823 14816 14822 14810 14824 14811 14815 14806 14813 14819 14830 14821 14833 14824 14826 14838 14851 14849 14851 14844 14827 14821 14812 14799 14795 14793 14794 14792 14785 14788 14795 14786 14780 14792 14794 14796 14809 14813 14803 14821 14827 14823 14832 14833 14845 14837 14846 14826 14810 14796 14795 14795 14793 14798 14797 14800 14790 14804 14794 14801 14798 14798 14812 14810 14816 14829 14823 14825 14827 14835 14839 14851 14851 14855 14839 14824 14807 14813 14796 14807 14798 14794 14791 14797 14803 14788 14797 14794 14796 14801 14812 14808 14810 14823 14814 14826 14820 14825 14843 14840 14851 14856 14842 14832 14823 14817 14810 14804 14809 14804 14804 14810 14801 14791 14800 14795 14794 14796 14804 14807 14807 14797 14818 14810 14822 14836 14821 14828 14839 14846 14849 14847 14839 14830 14825 14814 14821 14823 14821 14829 14830 14826 14824 14836 14829 14824 14848 14849 14859 14853 14862 14862 14874 14868 14889 14892 14893 14899 14899 14886 14900 14894 14895 14894 14896 14899 14902 14910 14910 14907 14927 14925 14922 14922 14938 14935 14939 14942 14959 14955 14953 14959 14977 14978 14988 14993 14997 15006 15003 15003 15001 14997 14978 14983 14979 14983 14989 14994 15003 14990 14993 14989 15005 14997 15001 15010 15008 15013 15026 15035 15031 15036 15040 15042 15045 15046 15049 15046 15037 15033 15025 15018 15008 15006 15003 15000 15001 15006 14986 14984 14998 14995 14991 14992 14999 15001 15001 15001 15009 15005 15005 15011 15009 15019 15020 15013 15004 14984 14987 14989 14979 14979 14985 14987 14982 14973 14986 14996 14994 14991 15003 15002 14998 15007 15020 15024 15026 15030 15038 15039 15043 15044 15046 15034 15018 15019 15013 15010 15010 15003 15003 15009 15001 15009 15013 15010 15012 15019 15024 15027 15028 15021 15026 15041 15041 15043 15049 15044 15056 15064 15074 15065 15069 15059 15046 15023 15037 15021 15021 15018 15026 15029 15023 15021 15023 15028 15022 15035 15032 15028 15036 15040 15042 15049 15046 15047 15054 15057 15066 15071 15081 15074 15079 15078 15088 15091 15091 15082 15066 15057 15057 15045 15044 15046 15048 15043 15034 15045 15033 15026 15019 15030 15025 15033 15032 15030 15035 15037 15049 15042 15030 15044 15042 15047 15050 15044 15051 15063 15045 15047 15027 15023 15012 15012 15003 15012 15010 15012 15006 15009 14999 15021 15009 15014 15017 15020 15016 15028 15024 15026 15027 15035 15046 15041 15045 15052 15053 15055 15057 15042 15030 15022 15014 15011 15001 15006 14999 15008 14998 15001 15000 15003 15009 14997 15010 15000 15010 15006 15024 15015 15023 15023 15024 15031 15034 15031 15051 15048 15052 15051 15060 15045 15042 15022 15010 15015 15003 15005 14998 14997 14997 15005 14999 14984 14987 14982 14985 14997 14997 14992 14999 15010 15007 15011 15003 14999 15008 15009 15021 15020 15017 15021 15024 15029 15023 15008 14998 14973 14968 14974 14951 14961 14967 14955 14945 14951 14948 14940 14942 14946 14933 14949 14948 14943 14943 14948 14958 14958 14968 14966 14963 14976 14967 14978 14968 14961 14936 14948 14933 14949 14930 14934 14935 14935 14924 14920 14931 14932 14930 14941 14937 14943 14949 14955 14952 14953 14950 14964 14969 14967 14986 14983 14976 14978 14971 14957 14946 14934 14934 14928 14940 14933 14927 14934 14926 14924 14912 14921 14918 14923 14921 14921 14925 14930 14936 14947 14932 14938 14956 14943 14944 14958 14952 14959 14956 14929 14919 14910 14916 14895 14902 14892 14895 14889 14885 14875 14879 14863 14876 14884 14883 14877 14871 14886 14880 14873 14889 14885 14890 14884 14886 14904 14899 14891 14874 14857 14854 14844 14845 14836 14838 14826 14825 14817 14810 14816 14816 14811 14810 14808 14822 14821 14829 14834 14830 14835 14834 14849 14841 14842 14847 14831 14821 14817 14804 14794 14807 14800 14803 14797 14798 14802 14794 14804 14806 14806 14805 14807 14813 14819 14807 14829 14831 14835 14844 14839 14850 14832 14834 14825 14806 14793 14790 14792 14787 14784 14781 14784 14780 14772 14785 14785 14789 14791 14794 14794 14802 14800 14805 14809 14816 14812 14820 14813 14827 14828 14841 14819 14803 14794 14786 14787 14775 14772 14769 14780 14767 14773 14760 14761 14760 14757 14764 14759 14762 14755 14767 14773 14777 14770 14785 14777 14780 14777 14788 14789 14779 14773 14753 14756 14743 14740 14728 14741 14734 14732 14723 14713 14731 14721 14738 14737 14735 14739 14744 14747 14757 14748 14770 14764 14774 14775 14772 14769 14751 14749 14737 14733 14745 14739 14743 14736 14750 14750 14752 14745 14754 14745 14748 14752 14771 14758 14770 14777 14776 14781 14783 14782 14801 14797 14808 14804 14792 14791 14759 14774 14765 14762 14764 14760 14757 14760 14768 14761 14755 14761 14760 14769 14771 14772 14775 14782 14781 14780 14795 14799 14793 14801 14805 14811 14815 14823 14826 14823 14814 14799 14796 14787 14780 14787 14780 14780 14772 14781 14780 14783 14785 14781 14786 14783 14782 14801 14793 14798 14803 14807 14809 14814 14812 14818 14828 14830 14833 14824 14806 14793 14789 14780 14772 14759 14767 14754 14764 14743 14753 14760 14740 14747 14751 14744 14745 14756 14758 14754 14758 14756 14756 14767 14767 14767 14779 14773 14778 14758 14747 14726 14728 14720 14712 14706 14718 14714 14708 14713 14713 14711 14707 14707 14714 14710 14713 14712 14731 14723 14734 14744 14736 14757 14756 14751 14761 14752 14737 14727 14717 14704 14709 14698 14702 14694 14698 14700 14693 14695 14697 14702 14708 14706 14705 14719 14724 14719 14721 14722 14727 14749 14742 14747 14751 14756 14769 14766 14771 14759 14744 14725 14723 14711 14719 14723 14715 14724 14715 14719 14711 14722 14712 14726 14728 14720 14734 14735 14733 14750 14745 14749 14760 14754 14760 14765 14770 14789 14780 14779 14780 14766 14755 14748 14743 14746 14745 14731 14737 14742 14740 14747 14741 14742 14756 14742 14746 14745 14754 14748 14756 14750 14757 14762 14751 14761 14757 14757 14777 14768 14765 14758 14740 14727 14729 14722 14721 14724 14715 14716 14708 14701 14712 14716 14718 14719 14717 14729 14722 14734 14725 14725 14730 14734 14739 14741 14754 14746 14754 14745 14742 14719 14728 14728 14728 14734 14734 14734 14727 14722 14732 14724 14729 14738 14731 14746 14743 14750 14759 14761 14761 14772 14779 14783 14786 14790 14797 14790 14791 14778 14763 14743 14749 14742 14745 14744 14747 14743 14744 14739 14740 14743 14745 14746 14743 14750 14741 14751 14760 14769 14773 14776 14771 14784 14781 14793 14796 14793 14790 14796 14792 14780 14766 14759 14742 14742 14724 14726 14731 14722 14730 14717 14712 14716 14710 14712 14714 14715 14715 14725 14721 14727 14714 14733 14724 14734 14729 14740 14747 14739 14731 14723 14713 14704 14699 14695 14695 14705 14706 14702 14707 14702 14705 14706 14720 14713 14729 14732 14736 14743 14737 14753 14750 14751 14768 14772 14773 14772 14777 14748 14736 14734 14723 14721 14717 14719 14702 14715 14715 14706 14717 14721 14713 14724 14717 14718 14728 14737 14737 14743 14750 14751 14759 14763 14771 14758 14760 14751 14739 14726 14715 14711 14709 14712 14712 14702 14708 14709 14705 14707 14713 14715 14715 14727 14721 14732 14738 14739 14740 14741 14749 14759 14756 14763 14761 14743 14746 14728 14717 14702 14700 14703 14700 14688 14676 14692 14677 14680 14681 14672 14677 14674 14673 14684 14686 14678 14682 14692 14688 14701 14709 14704 14707 14693 14678 14675 14665 14660 14661 14651 14645 14648 14646 14646 14646 14647 14654 14652 14655 14662 14672 14668 14680 14683 14685 14689 14699 14702 14687 14685 14667 14657 14654 14648 14649 14654 14665 14668 14663 14665 14661 14654 14669 14671 14672 14679 14685 14691 14693 14710 14707 14715 14713 14724 14702 14679 14674 14664 14663 14658 14657 14660 14669 14670 14662 14664 14669 14662 14667 14675 14670 14680 14686 14693 14710 14699 14708 14716 14723 14719 14700 14676 14686 14670 14670 14665 14654 14658 14658 14657 14650 14656 14662 14660 14669 14660 14671 14662 14674 14668 14683 14677 14687 14694 14701 14685 14673 14674 14669 14652 14659 14664 14658 14669 14666 14671 14676 14670 14674 14668 14673 14697 14690 14703 14705 14701 14717 14734 14737 14747 14730 14728 14734 14725 14727 14738 14737 14755 14756 14754 14759 14762 14772 14770 14776 14787 14795 14798 14807 14822 14823 14828 14831 14840 14849 14857 14870 14870 14864 14865 14861 14853 14862 14864 14857 14873 14870 14873 14878 14877 14876 14881 14890 14906 14897 14907 14913 14921 14920 14934 14937 14940 14948 14954 14949 14963 14966 14967 14966 14952 14953 14945 14944 14945 14947 14938 14934 14939 14925 14929 14927 14929 14931 14929 14935 14927 14930 14930 14926 14936 14927 14931 14938 14928 14940 14931 14938 14938 14927 14915 14900 14902 14892 14879 14887 14888 14885 14875 14880 14884 14869 14878 14877 14884 14878 14881 14887 14888 14896 14904 14897 14905 14890 14911 14919 14899 14890 14884 14874 14863 14860 14860 14860 14869 14865 14865 14862 14858 14861 14854 14874 14865 14874 14878 14883 14877 14883 14884 14885 14899 14901 14912 14903 14902 14914 14921 14930 14931 14917 14895 14883 14884 14877 14879 14881 14876 14882 14880 14888 14881 14880 14886 14882 14890 14888 14888 14896 14897 14899 14896 14902 14912 14921 14908 14916 14920 14909 14908 14905 14888 14881 14873 14876 14872 14860 14871 14865 14858 14859 14858 14857 14861 14861 14870 14866 14876 14872 14882 14889 14876 14881 14895 14904 14910 14886 14884 14873 14866 14859 14864 14849 14864 14864 14860 14857 14852 14860 14862 14863 14864 14868 14876 14869 14877 14879 14883 14883 14879 14894 14900 14900 14903 14908 14904 14894 14886 14875 14864 14860 14853 14853 14854 14854 14851 14853 14845 14851 14849 14855 14860 14858 14850 14862 14861 14864 14864 14877 14868 14877 14880 14886 14889 14888 14898 14900 14889 14883 14875 14858 14843 14832 14836 14828 14835 14825 14813 14816 14816 14815 14816 14808 14817 14817 14806 14813 14816 14806 14821 14821 14820 14812 14825 14816 14811 14833 14821 14809 14813 14791 14776 14783 14776 14777 14776 14779 14780 14768 14769 14770 14765 14777 14771 14782 14783 14788 14792 14789 14792 14804 14809 14811 14811 14808 14802 14786 14769 14770 14762 14762 14761 14749 14760 14754 14749 14745 14743 14741 14752 14754 14755 14755 14757 14759 14761 14769 14774 14779 14785 14780 14788 14790 14788 14788 14774 14739 14739 14745 14734 14739 14725 14725 14725 14720 14723 14717 14725 14720 14732 14731 14728 14740 14736 14738 14747 14745 14750 14753 14761 14753 14759 14760 14776 14765 14739 14733 14729 14721 14715 14708 14711 14710 14682 14701 14689 14685 14688 14673 14682 14684 14683 14682 14690 14687 14694 14692 14697 14692 14692 14704 14695 14702 14706 14707 14671 14671 14652 14661 14655 14633 14650 14653 14640 14636 14629 14641 14643 14654 14646 14648 14651 14668 14652 14665 14671 14673 14671 14671 14683 14689 14676 14663 14656 14646 14649 14645 14639 14636 14637 14641 14640 14629 14641 14632 14635 14646 14639 14644 14647 14653 14656 14662 14657 14659 14672 14675 14683 14680 14685 14682 14691 14678 14660 14659 14660 14644 14632 14647 14640 14642 14634 14645 14637 14630 14641 14639 14643 14646 14655 14649 14646 14661 14672 14666 14668 14666 14674 14677 14686 14682 14681 14682 14652 14657 14637 14638 14630 14635 14628 14624 14617 14619 14604 14604 14613 14598 14617 14609 14605 14603 14612 14615 14626 14619 14630 14626 14622 14628 14628 14619 14625 14607 14600 14593 14586 14594 14581 14591 14582 14576 14579 14582 14588 14582 14587 14577 14594 14601 14603 14600 14613 14603 14620 14627 14634 14635 14613 14608 14595 14596 14588 14590 14589 14595 14588 14592 14578 14594 14578 14592 14580 14583 14599 14601 14610 14605 14605 14617 14614 14626 14634 14631 14639 14633 14638 14632 14616 14604 14605 14602 14599 14594 14596 14587 14608 14590 14596 14596 14607 14604 14610 14619 14615 14617 14628 14628 14639 14653 14648 14654 14658 14662 14668 14674 14671 14659 14657 14654 14643 14648 14647 14647 14660 14660 14654 14653 14651 14651 14657 14660 14666 14657 14667 14670 14669 14681 14689 14694 14696 14693 14699 14698 14714 14704 14706 14691 14692 14696 14686 14684 14692 14692 14687 14679 14696 14699 14700 14698 14692 14705 14702 14719 14716 14725 14725 14735 14741 14747 14743 14755 14769 14759 14763 14751 14744 14743 14746 14748 14732 14751 14740 14747 14756 14753 14750 14762 14759 14771 14761 14771 14769 14774 14784 14795 14798 14799 14806 14803 14805 14811 14823 14824 14829 14830 14806 14804 14807 14796 14784 14792 14798 14797 14806 14800 14789 14787 14787 14803 14806 14807 14801 14805 14809 14817 14825 14827 14833 14829 14836 14833 14842 14855 14838 14828 14818 14807 14807 14800 14796 14784 14793 14793 14786 14787 14784 14776 14779 14786 14785 14780 14780 14775 14778 14780 14794 14781 14787 14787 14800 14790 14791 14781 14764 14755 14737 14734 14747 14735 14738 14731 14735 14717 14727 14721 14715 14714 14718 14721 14733 14733 14734 14730 14740 14745 14750 14747 14753 14748 14741 14731 14712 14710 14704 14694 14704 14710 14701 14699 14688 14705 14693 14697 14712 14693 14709 14724 14705 14721 14718 14727 14733 14716 14742 14738 14751 14742 14740 14721 14714 14694 14686 14684 14685 14683 14690 14691 14684 14683 14683 14682 14691 14688 14691 14690 14696 14706 14709 14705 14715 14716 14717 14724 14727 14733 14741 14737 14723 14712 14712 14689 14688 14692 14691 14677 14676 14683 14678 14675 14673 14684 14676 14672 14683 14680 14689 14683 14678 14677 14690 14702 14690 14692 14706 14698 14693 14703 14711 14693 14672 14667 14660 14651 14656 14639 14640 14642 14647 14639 14640 14640 14634 14640 14650 14653 14645 14657 14664 14664 14665 14668 14678 14682 14700 14688 14684 14680 14654 14652 14651 14643 14643 14637 14643 14646 14648 14650 14642 14645 14651 14648 14654 14659 14659 14669 14663 14673 14671 14679 14685 14686 14682 14685 14700 14707 14702 14675 14667 14674 14650 14649 14652 14645 14644 14647 14656 14648 14647 14645 14651 14651 14653 14657 14659 14667 14670 14673 14677 14680 14668 14692 14688 14688 14705 14704 14708 14701 14694 14674 14668 14654 14643 14652 14652 14647 14653 14641 14637 14632 14638 14639 14640 14632 14647 14642 14641 14642 14640 14649 14652 14640 14649 14649 14659 14673 14665 14665 14647 14635 14627 14624 14618 14612 14627 14623 14625 14630 14619 14619 14623 14627 14631 14625 14633 14638 14636 14651 14646 14658 14653 14673 14670 14675 14664 14646 14645 14633 14640 14626 14627 14615 14623 14606 14619 14624 14621 14618 14626 14632 14623 14625 14633 14636 14643 14641 14652 14654 14654 14660 14669 14662 14668 14659 14657 14638 14626 14630 14619 14612 14612 14623 14621 14614 14619 14617 14612 14616 14618 14616 14629 14627 14628 14637 14640 14649 14654 14649 14658 14657 14662 14668 14658 14645 14629 14619 14610 14606 14597 14584 14589 14587 14585 14587 14565 14578 14579 14588 14580 14584 14583 14589 14589 14593 14588 14591 14597 14596 14603 14599 14595 14609 14601 14588 14573 14563 14567 14559 14561 14565 14559 14567 14570 14564 14572 14575 14568 14573 14570 14583 14581 14578 14600 14594 14604 14613 14608 14615 14621 14621 14616 14593 14588 14586 14574 14582 14582 14578 14577 14581 14560 14575 14585 14577 14582 14578 14588 14586 14602 14595 14604 14611 14597 14612 14613 14620 14620 14627 14632 14642 14629 14618 14615 14606 14590 14589 14580 14586 14593 14592 14580 14590 14581 14588 14595 14587 14597 14599 14605 14608 14603 14615 14617 14613 14621 14625 14622 14634 14625 14630 14631 14616 14611 14603 14584 14578 14581 14570 14563 14574 14561 14559 14564 14560 14570 14559 14557 14566 14559 14563 14569 14573 14569 14568 14582 14584 14576 14586 14585 14595 14598 14583 14577 14562 14555 14546 14555 14568 14564 14570 14560 14574 14568 14576 14575 14581 14582 14595 14596 14601 14606 14605 14615 14626 14624 14637 14638 14626 14625 14619 14600 14588 14589 14592 14587 14590 14598 14586 14593 14594 14586 14598 14586 14602 14598 14609 14606 14617 14620 14621 14624 14630 14629 14648 14637 14651 14646 14625 14614 14608 14598 14591 14600 14593 14590 14595 14590 14596 14590 14596 14593 14607 14605 14610 14606 14619 14619 14618 14633 14620 14639 14630 14643 14642 14649 14640 14646 14625 14610 14602 14593 14586 14583 14582 14571 14571 14563 14568 14573 14562 14565 14566 14568 14574 14562 14572 14579 14576 14585 14585 14585 14595 14586 14578 14574 14571 14552 14538 14540 14544 14549 14556 14548 14542 14562 14549 14557 14562 14571 14578 14587 14585 14593 14590 14596 14591 14609 14611 14606 14600 14579 14566 14574 14571 14570 14561 14568 14563 14561 14571 14563 14571 14577 14583 14586 14587 14595 14597 14600 14600 14614 14615 14617 14609 14617 14596 14580 14571 14577 14578 14564 14566 14568 14570 14561 14563 14565 14567 14569 14575 14565 14562 14565 14571 14570 14584 14566 14587 14588 14583 14585 14563 14548 14532 14536 14541 14539 14534 14539 14529 14522 14529 14527 14534 14536 14548 14544 14546 14547 14562 14560 14567 14576 14570 14590 14579 14566 14570 14558 14566 14562 14563 14568 14566 14570 14579 14575 14581 14580 14586 14592 14597 14605 14610 14616 14619 14627 14638 14628 14651 14645 14656 14658 14648 14646 14632 14640 14632 14628 14636 14635 14643 14637 14637 14656 14658 14646 14653 14665 14664 14678 14677 14688 14702 14705 14703 14713 14705 14732 14739 14737 14730 14744 14745 14748 14733 14747 14738 14732 14745 14724 14732 14742 14746 14745 14746 14759 14751 14759 14759 14764 14755 14758 14766 14765 14767 14769 14778 14770 14778 14780 14779 14789 14792 14791 14790 14793 14792 14792 14796 14791 14789 14783 14786 14780 14794 14788 14784 14787 14789 14789 14796 14804 14803 14810 14806 14807 14819 14826 14824 14827 14824 14843 14853 14847 14851 14844 14863 14863 14859 14846 14845 14845 14846 14840 14844 14843 14850 14844 14838 14843 14835 14843 14846 14851 14857 14846 14857 14854 14854 14854 14864 14864 14858 14875 14867 14879 14866 14849 14851 14841 14823 14831 14824 14822 14825 14822 14811 14802 14799 14793 14807 14798 14787 14800 14793 14803 14802 14804 14795 14801 14796 14801 14807 14801 14805 14779 14769 14742 14745 14739 14736 14732 14743 14742 14718 14719 14732 14723 14729 14721 14724 14726 14740 14731 14720 14738 14734 14739 14740 14725 14716 14709 14715 14707 14712 14703 14709 14710 14712 14717 14720 14720 14734 14734 14731 14726 14736 14750 14749 14756 14765 14762 14765 14751 14752 14734 14731 14737 14732 14736 14740 14735 14745 14742 14743 14739 14749 14753 14752 14756 14765 14760 14768 14777 14779 14775 14795 14789 14787 14791 14786 14774 14773 14765 14756 14762 14767 14772 14770 14765 14771 14773 14772 14773 14772 14779 14790 14780 14784 14792 14790 14798 14796 14810 14807 14804 14811 14808 14819 14824 14841 14829 14838 14839 14845 14835 14851 14847 14840 14836 14827 14824 14823 14821 14822 14816 14816 14811 14822 14816 14800 14820 14819 14811 14803 14811 14808 14820 14821 14807 14813 14819 14824 14809 14823 14830 14823 14833 14828 14822 14828 14816 14811 14809 14805 14810 14809 14810 14806 14814 14803 14805 14797 14810 14812 14810 14817 14819 14816 14820 14819 14831 14824 14837 14832 14839 14847 14836 14845 14844 14849 14829 14815 14807 14798 14800 14790 14801 14805 14782 14777 14782 14776 14786 14784 14769 14772 14780 14793 14780 14781 14779 14786 14786 14784 14792 14794 14787 14803 14798 14799 14802 14782 14765 14756 14748 14742 14734 14744 14739 14722 14739 14725 14734 14729 14725 14723 14723 14725 14717 14724 14729 14723 14718 14728 14729 14723 14719 14726 14726 14712 14731 14719 14706 14684 14681 14675 14665 14662 14660 14653 14647 14641 14637 14641 14644 14638 14631 14633 14631 14643 14647 14651 14653 14659 14656 14657 14668 14666 14667 14653 14655 14631 14618 14616 14619 14616 14621 14616 14607 14610 14615 14617 14611 14617 14616 14614 14620 14618 14630 14626 14630 14633 14632 14642 14636 14646 14645 14647 14630 14611 14608 14598 14597 14582 14593 14593 14591 14583 14585 14592 14594 14597 14595 14597 14603 14601 14601 14604 14605 14608 14604 14604 14621 14617 14624 14628 14621 14621 14614 14603 14589 14586 14580 14578 14585 14584 14584 14580 14569 14579 14573 14585 14586 14575 14582 14581 14583 14591 14591 14597 14594 14600 14605 14602 14614 14612 14619 14609 14594 14580 14585 14561 14567 14567 14557 14560 14566 14556 14547 14541 14549 14543 14549 14541 14544 14539 14553 14554 14551 14553 14568 14555 14563 14560 14570 14569 14566 14571 14553 14551 14557 14545 14537 14540 14534 14543 14560 14549 14540 14540 14548 14546 14541 14545 14556 14554 14560 14553 14560 14563 14563 14575 14576 14571 14589 14586 14572 14564 14557 14545 14545 14545 14541 14538 14541 14535 14543 14535 14532 14539 14530 14534 14532 14539 14525 14528 14540 14550 14550 14553 14547 14556 14563 14566 14560 14567 14576 14571 14563 14545 14536 14529 14521 14517 14517 14514 14511 14512 14497 14510 14500 14495 14504 14492 14496 14495 14495 14499 14484 14494 14501 14496 14501 14503 14499 14501 14513 14499 14498 14485 14475 14454 14450 14448 14461 14441 14453 14450 14448 14436 14440 14440 14438 14461 14451 14442 14460 14444 14462 14466 14472 14471 14478 14467 14478 14481 14485 14471 14445 14436 14435 14429 14432 14422 14432 14426 14425 14419 14420 14413 14422 14416 14411 14421 14430 14435 14424 14437 14440 14444 14442 14442 14452 14456 14452 14455 14435 14422 14424 14415 14415 14401 14408 14401 14403 14401 14398 14397 14397 14403 14408 14404 14398 14399 14406 14405 14401 14409 14405 14410 14409 14409 14419 14417 14405 14386 14373 14361 14370 14357 14368 14360 14361 14355 14352 14361 14350 14352 14351 14357 14356 14356 14366 14366 14375 14375 14382 14390 14387 14393 14404 14390 14386 14367 14367 14373 14362 14376 14367 14372 14380 14368 14380 14382 14374 14388 14383 14393 14392 14409 14402 14403 14416 14407 14420 14424 14427 14432 14441 14441 14453 14451 14437 14433 14414 14419 14418 14407 14414 14425 14407 14415 14409 14415 14413 14415 14425 14420 14420 14434 14437 14443 14446 14445 14448 14455 14450 14465 14467 14474 14476 14482 14487 14493 14494 14487 14480 14472 14458 14460 14463 14463 14467 14463 14463 14461 14465 14466 14472 14459 14470 14463 14477 14481 14486 14472 14466 14480 14494 14481 14485 14493 14491 14492 14487 14476 14475 14462 14455 14460 14459 14461 14446 14460 14455 14447 14442 14443 14438 14456 14451 14459 14448 14458 14467 14455 14459 14481 14470 14485 14481 14485 14475 14471 14465 14465 14463 14458 14454 14455 14462 14450 14458 14459 14455 14456 14471 14459 14464 14469 14460 14463 14475 14479 14486 14494 14481 14501 14502 14509 14496 14479 14478 14470 14456 14451 14452 14450 14448 14437 14451 14440 14441 14446 14441 14448 14454 14447 14442 14468 14454 14457 14454 14461 14466 14475 14478 14478 14474 14480 14462 14455 14444 14425 14420 14423 14415 14409 14412 14403 14407 14406 14395 14387 14397 14395 14404 14400 14410 14409 14405 14410 14416 14411 14415 14419 14417 14432 14420 14388 14385 14373 14368 14371 14370 14373 14373 14373 14362 14369 14357 14363 14370 14373 14369 14374 14381 14391 14397 14395 14408 14413 14401 14413 14409 14390 14383 14382 14372 14362 14370 14368 14368 14384 14376 14373 14374 14374 14374 14381 14384 14390 14395 14395 14402 14408 14411 14406 14419 14429 14427 14431 14442 14439 14425 14428 14413 14412 14395 14393 14400 14399 14403 14403 14402 14395 14395 14403 14407 14411 14405 14415 14416 14423 14423 14429 14427 14433 14439 14431 14447 14447 14464 14470 14469 14464 14469 14454 14434 14426 14436 14435 14423 14426 14429 14427 14429 14425 14433 14413 14428 14428 14418 14424 14438 14434 14440 14444 14450 14437 14445 14433 14462 14449 14443 14435 14418 14418 14414 14405 14404 14404 14411 14410 14409 14402 14406 14409 14403 14412 14404 14410 14422 14418 14422 14420 14424 14424 14427 14420 14396 14402 14394 14390 14393 14392 14392 14407 14398 14404 14406 14407 14416 14420 14421 14436 14430 14444 14434 14448 14443 14459 14450 14449 14451 14428 14432 14428 14435 14426 14432 14428 14432 14427 14435 14440 14444 14444 14462 14458 14463 14469 14463 14467 14479 14488 14484 14497 14498 14490 14476 14471 14473 14468 14476 14475 14475 14477 14484 14481 14486 14485 14494 14507 14505 14510 14511 14517 14520 14525 14528 14538 14543 14547 14558 14554 14571 14567 14571 14584 14593 14590 14600 14607 14598 14605 14590 14591 14582 14589 14585 14585 14586 14592 14595 14592 14594 14591 14594 14594 14583 14596 14606 14605 14614 14606 14608 14605 14603 14625 14616 14613 14633 14629 14635 14638 14642 14647 14636 14625 14630 14637 14626 14626 14630 14634 14630 14632 14632 14632 14637 14636 14650 14646 14649 14651 14666 14676 14680 14682 14692 14696 14703 14707 14710 14723 14708 14714 14710 14700 14695 14688 14684 14687 14680 14685 14694 14683 14687 14687 14694 14696 14692 14701 14702 14710 14713 14718 14715 14725 14722 14723 14729 14735 14746 14739 14743 14759 14761 14764 14751 14737 14728 14727 14723 14713 14720 14715 14719 14709 14715 14715 14717 14722 14720 14718 14712 14724 14723 14724 14726 14736 14737 14730 14748 14747 14742 14748 14748 14756 14767 14765 14757 14743 14737 14726 14714 14719 14707 14705 14704 14705 14698 14696 14688 14679 14690 14698 14684 14690 14687 14695 14688 14696 14695 14697 14694 14699 14695 14696 14702 14696 14707 14698 14680 14670 14666 14662 14652 14659 14667 14669 14670 14659 14655 14665 14654 14657 14665 14666 14668 14664 14676 14684 14683 14684 14689 14690 14691 14699 14698 14696 14690 14688 14668 14657 14666 14652 14648 14644 14633 14646 14645 14648 14644 14652 14645 14645 14650 14652 14643 14645 14652 14653 14657 14657 14651 14660 14667 14672 14670 14681 14688 14686 14673 14673 14651 14644 14636 14639 14623 14629 14629 14628 14624 14629 14621 14626 14626 14629 14626 14630 14617 14633 14629 14639 14629 14647 14651 14649 14660 14661 14657 14661 14671 14681 14669 14646 14640 14635 14623 14612 14619 14612 14611 14611 14601 14603 14605 14594 14593 14593 14604 14593 14593 14605 14603 14593 14606 14612 14609 14612 14608 14609 14619 14608 14618 14604 14583 14580 14576 14583 14570 14580 14574 14575 14573 14569 14574 14572 14574 14570 14579 14589 14574 14590 14589 14595 14596 14596 14607 14612 14614 14607 14610 14590 14579 14570 14574 14564 14578 14562 14569 14569 14562 14569 14565 14570 14574 14571 14579 14572 14570 14578 14585 14586 14589 14586 14599 14603 14602 14604 14607 14610 14616 14601 14593 14592 14583 14568 14570 14573 14564 14551 14554 14564 14561 14553 14548 14551 14544 14561 14560 14567 14564 14568 14565 14579 14581 14583 14590 14578 14597 14590 14583 14575 14555 14549 14547 14545 14553 14551 14543 14542 14538 14545 14538 14540 14542 14552 14548 14553 14549 14561 14559 14558 14573 14570 14573 14577 14578 14586 14582 14565 14563 14545 14533 14534 14531 14531 14520 14519 14523 14521 14508 14515 14515 14513 14510 14517 14503 14512 14514 14514 14522 14520 14528 14519 14521 14526 14530 14515 14501 14494 14493 14486 14477 14467 14483 14475 14485 14465 14475 14469 14462 14472 14481 14480 14487 14479 14486 14489 14493 14500 14506 14513 14517 14512 14503 14496 14486 14481 14482 14482 14486 14489 14483 14483 14488 14484 14496 14487 14508 14493 14508 14504 14521 14512 14525 14517 14522 14532 14533 14532 14540 14539 14528 14517 14502 14492 14491 14495 14496 14498 14501 14503 14492 14500 14495 14511 14503 14506 14505 14511 14513 14513 14516 14526 14532 14539 14541 14537 14553 14555 14546 14533 14524 14522 14509 14517 14518 14508 14507 14501 14518 14508 14502 14515 14516 14513 14511 14524 14525 14516 14528 14529 14527 14524 14528 14536 14529 14540 14547 14531 14527 14517 14503 14499 14503 14487 14496 14492 14485 14492 14493 14489 14480 14488 14495 14494 14492 14490 14495 14497 14502 14517 14513 14522 14515 14525 14527 14518 14509 14505 14506 14500 14502 14509 14510 14516 14502 14513 14513 14517 14519 14518 14529 14526 14536 14532 14550 14543 14558 14545 14561 14557 14571 14574 14575 14570 14560 14550 14531 14538 14538 14533 14532 14527 14532 14527 14526 14533 14544 14537 14551 14541 14544 14550 14548 14561 14566 14561 14563 14583 14581 14584 14568 14579 14580 14566 14555 14552 14543 14534 14548 14538 14539 14533 14538 14544 14547 14535 14538 14542 14547 14533 14549 14543 14549 14556 14561 14555 14560 14546 14555 14560 14564 14564 14549 14545 14526 14518 14516 14513 14505 14511 14504 14514 14502 14500 14485 14499 14488 14489 14503 14498 14511 14505 14500 14509 14518 14506 14519 14523 14530 14522 14526 14513 14502 14493 14490 14478 14488 14491 14489 14489 14480 14479 14487 14489 14496 14488 14501 14503 14499 14520 14528 14528 14534 14533 14543 14537 14523 14506 14514 14496 14502 14494 14512 14503 14513 14507 14495 14515 14512 14511 14506 14524 14528 14517 14535 14528 14529 14551 14539 14557 14562 14558 14537 14536 14533 14516 14514 14518 14507 14519 14519 14516 14515 14514 14529 14525 14528 14528 14536 14525 14549 14546 14561 14566 14567 14573 14577 14574 14582 14554 14560 14561 14559 14552 14551 14555 14556 14547 14549 14543 14550 14552 14547 14557 14559 14557 14565 14563 14571 14571 14575 14570 14586 14591 14587 14592 14593 14585 14579 14578 14576 14584 14574 14576 14567 14567 14575 14577 14579 14578 14589 14592 14604 14624 14630 14644 14670 14685 14667 14662 14662 14681 14672 14678 14674 14679 14663 14665 14656 14661 14670 14662 14675 14674 14675 14679 14689 14691 14689 14688 14699 14703 14714 14709 14709 14723 14721 14719 14732 14738 14749 14744 14764 14758 14768 14773 14763 14769 14753 14752 14756 14756 14763 14754 14765 14762 14764 14761 14764 14766 14768 14767 14771 14776 14788 14791 14794 14802 14797 14794 14798 14806 14808 14820 14813 14819 14827 14812 14812 14792 14786 14781 14782 14780 14787 14773 14781 14775 14773 14774 14776 14783 14762 14769 14766 14769 14767 14776 14782 14777 14774 14780 14779 14783 14786 14777 14773 14760 14748 14752 14743 14749 14751 14754 14737 14743 14739 14740 14740 14743 14751 14752 14746 14746 14755 14750 14769 14757 14769 14780 14778 14776 14777 14771 14767 14747 14732 14726 14723 14726 14713 14707 14708 14715 14716 14705 14709 14708 14721 14716 14717 14715 14717 14716 14720 14719 14732 14736 14732 14731 14740 14746 14755 14747 14742 14742 14716 14717 14697 14699 14697 14691 14684 14690 14695 14681 14690 14681 14687 14690 14697 14693 14685 14695 14698 14692 14697 14709 14709 14712 14725 14717 14727 14733 14734 14725 14723 14715 14697 14697 14693 14687 14693 14683 14693 14680 14677 14679 14682 14676 14675 14681 14677 14679 14680 14680 14685 14685 14690 14681 14685 14693 14693 14701 14697 14701 14707 14688 14681 14662 14658 14649 14655 14650 14654 14646 14637 14637 14641 14636 14634 14645 14652 14641 14662 14655 14659 14652 14673 14667 14671 14680 14679 14682 14696 14684 14674 14669 14646 14653 14650 14646 14654 14646 14634 14642 14638 14642 14639 14645 14645 14652 14640 14656 14659 14653 14658 14657 14676 14672 14685 14680 14680 14684 14697 14675 14679 14661 14658 14638 14636 14625 14627 14634 14637 14637 14627 14634 14632 14619 14624 14631 14625 14633 14635 14639 14638 14647 14643 14647 14646 14653 14658 14665 14661 14665 14669 14657 14656 14647 14620 14616 14608 14603 14607 14605 14590 14599 14591 14587 14585 14586 14580 14591 14584 14588 14586 14591 14593 14589 14596 14596 14600 14593 14596 14607 14606 14591 14585 14566 14561 14550 14551 14543 14549 14548 14552 14532 14530 14543 14540 14533 14544 14537 14548 14545 14556 14555 14554 14558 14567 14567 14576 14573 14569 14557 14543 14540 14533 14521 14521 14523 14519 14535 14522 14512 14523 14524 14525 14530 14525 14524 14524 14539 14544 14536 14539 14551 14551 14545 14550 14563 14560 14544 14520 14534 14519 14511 14507 14503 14516 14506 14502 14498 14497 14501 14501 14503 14510 14518 14509 14523 14527 14528 14529 14533 14540 14532 14530 14537 14522 14523 14499 14491 14481 14483 14482 14467 14483 14460 14465 14456 14463 14458 14469 14465 14461 14461 14462 14475 14465 14465 14473 14481 14486 14481 14482 14464 14465 14450 14447 14450 14442 14444 14460 14468 14461 14461 14463 14484 14475 14488 14499 14503 14497 14508 14514 14533 14529 14534 14542 14549 14545 14538 14523 14525 14527 14531 14519 14526 14535 14538 14538 14539 14538 14541 14557 14553 14554 14561 14572 14568 14574 14577 14589 14603 14600 14605 14613 14626 14623 14631 14634 14637 14634 14626 14636 14630 14628 14632 14635 14640 14649 14645 14650 14653 14660 14650 14674 14670 14685 14698 14707 14705 14707 14704 14709 14710 14705 14701 14718 14727 14718 14727 14722 14715 14720 14710 14721 14713 14714 14716 14701 14706 14697 14705 14719 14708 14717 14709 14726 14722 14721 14719 14727 14725 14742 14722 14738 14734 14729 14743 14742 14745 14722 14723 14721 14712 14707 14707 14711 14714 14698 14705 14710 14707 14716 14714 14704 14713 14717 14717 14726 14721 14731 14729 14735 14735 14744 14741 14734 14727 14727 14704 14705 14695 14698 14699 14694 14700 14707 14694 14694 14692 14695 14683 14693 14696 14695 14708 14704 14709 14705 14710 14716 14717 14711 14721 14717 14717 14697 14704 14686 14690 14669 14672 14675 14659 14666 14661 14662 14652 14671 14664 14664 14662 14665 14660 14668 14674 14670 14678 14679 14682 14690 14687 14693 14698 14689 14702 14708 14708 14685 14672 14667 14653 14649 14642 14642 14646 14635 14641 14629 14624 14623 14620 14632 14625 14623 14631 14637 14618 14639 14626 14626 14630 14631 14634 14639 14640 14639 14632 14629 14606 14599 14596 14591 14598 14592 14587 14581 14580 14589 14582 14590 14588 14576 14596 14594 14599 14596 14608 14610 14602 14613 14616 14630 14618 14635 14619 14609 14599 14598 14582 14580 14586 14580 14589 14585 14577 14581 14588 14582 14581 14587 14593 14596 14596 14590 14604 14607 14614 14622 14620 14621 14627 14633 14626 14635 14647 14644 14639 14626 14622 14606 14608 14590 14593 14591 14594 14604 14590 14589 14608 14594 14610 14604 14606 14604 14623 14608 14617 14620 14622 14630 14639 14637 14645 14638 14641 14654 14658 14644 14625 14629 14622 14602 14604 14603 14605 14598 14585 14594 14590 14605 14587 14589 14597 14592 14602 14592 14589 14586 14600 14599 14593 14601 14599 14614 14611 14606 14622 14609 14604 14601 14592 14590 14588 14582 14594 14595 14588 14602 14588 14587 14602 14608 14605 14603 14612 14621 14626 14619 14625 14634 14625 14638 14643 14646 14642 14647 14633 14623 14621 14616 14616 14611 14612 14611 14603 14620 14610 14612 14598 14607 14613 14617 14615 14617 14620 14623 14618 14632 14618 14632 14632 14635 14647 14643 14649 14641 14648 14625 14623 14616 14609 14612 14607 14610 14599 14592 14589 14592 14590 14594 14604 14601 14596 14602 14613 14606 14610 14618 14623 14623 14621 14627 14627 14635 14639 14628 14629 14615 14599 14588 14588 14584 14582 14581 14582 14579 14580 14578 14575 14560 14565 14571 14568 14569 14568 14564 14572 14571 14577 14582 14575 14575 14582 14586 14582 14576 14560 14554 14538 14535 14534 14522 14519 14509 14520 14513 14507 14512 14513 14511 14508 14509 14513 14522 14517 14529 14531 14530 14541 14531 14536 14541 14538 14511 14501 14501 14505 14495 14499 14483 14493 14499 14486 14481 14488 14478 14486 14495 14502 14507 14507 14512 14508 14511 14517 14504 14520 14527 14532 14533 14524 14532 14523 14511 14508 14493 14486 14481 14483 14483 14475 14485 14471 14474 14472 14476 14481 14486 14492 14489 14487 14498 14495 14501 14518 14503 14508 14516 14513 14523 14526 14537 14517 14517 14500 14484 14476 14479 14479 14470 14480 14473 14487 14477 14471 14478 14469 14482 14481 14480 14484 14494 14504 14507 14500 14512 14509 14513 14512 14520 14523 14522 14527 14511 14498 14482 14479 14467 14458 14470 14464 14455 14454 14457 14447 14444 14455 14448 14450 14460 14450 14454 14462 14462 14475 14471 14466 14466 14477 14479 14491 14482 14468 14464 14458 14450 14440 14447 14441 14452 14448 14444 14442 14448 14447 14454 14445 14447 14459 14467 14480 14471 14489 14481 14493 14503 14495 14497 14504 14488 14483 14468 14476 14454 14466 14460 14469 14471 14465 14468 14463 14482 14468 14480 14481 14490 14487 14482 14493 14495 14508 14502 14498 14512 14516 14522 14522 14529 14534 14515 14503 14490 14488 14482 14479 14491 14485 14473 14483 14485 14486 14478 14482 14483 14490 14482 14502 14502 14501 14500 14508 14520 14529 14530 14524 14539 14529 14541 14541 14515 14510 14491 14503 14485 14493 14485 14489 14479 14503 14489 14492 14486 14490 14494 14503 14502 14497 14498 14507 14514 14517 14528 14513 14527 14529 14531 14530 14526 14531 14514 14502 14491 14483 14469 14474 14468 14467 14463 14459 14456 14457 14444 14460 14454 14451 14462 14467 14466 14460 14467 14463 14475 14470 14471 14484 14479 14491 14487 14468 14461 14461 14462 14459 14456 14450 14462 14479 14454 14469 14460 14478 14481 14484 14482 14483 14492 14490 14496 14517 14508 14511 14524 14520 14532 14523 14507 14499 14491 14485 14480 14494 14479 14488 14491 14475 14475 14488 14485 14495 14490 14495 14500 14504 14497 14510 14509 14515 14517 14534 14531 14534 14533 14540 14539 14519 14512 14496 14499 14489 14485 14496 14493 14487 14496 14499 14492 14485 14488 14494 14488 14494 14499 14501 14501 14499 14493 14492 14497 14509 14504 14508 14507 14510 14500 14478 14466 14471 14462 14468 14461 14460 14444 14445 14452 14456 14451 14453 14461 14461 14454 14464 14473 14474 14479 14495 14499 14500 14499 14509 14502 14483 14478 14473 14471 14478 14459 14466 14462 14474 14472 14472 14470 14491 14486 14482 14480 14496 14490 14498 14498 14508 14513 14514 14522 14533 14536 14540 14539 14521 14519 14499 14493 14487 14488 14492 14492 14495 14490 14503 14491 14494 14493 14500 14506 14510 14508 14512 14518 14522 14523 14531 14525 14537 14540 14548 14531 14524 14513 14507 14487 14500 14497 14485 14491 14505 14483 14485 14486 14485 14483 14489 14487 14499 14492 14505 14507 14502 14505 14498 14522 14518 14517 14509 14492 14489 14468 14463 14458 14452 14460 14459 14472 14456 14455 14453 14455 14452 14472 14471 14458 14466 14465 14457 14474 14482 14493 14481 14490 14473 14481 14462 14446 14455 14457 14456 14468 14470 14463 14465 14469 14476 14475 14475 14484 14488 14487 14504 14508 14513 14517 14515 14530 14526 14547 14551 14543 14534 14515 14506 14497 14492 14487 14490 14493 14498 14504 14502 14499 14495 14499 14508 14515 14520 14521 14515 14540 14527 14546 14541 14555 14538 14553 14561 14561 14560 14546 14537 14529 14518 14508 14505 14507 14507 14508 14496 14496 14491 14490 14488 14487 14498 14496 14503 14499 14504 14508 14513 14509 14517 14511 14531 14528 14526 14522 14494 14490 14487 14482 14486 14483 14474 14485 14477 14478 14479 14472 14480 14494 14495 14494 14508 14509 14506 14513 14531 14527 14534 14537 14538 14545 14523 14521 14510 14507 14493 14503 14506 14503 14509 14513 14514 14507 14523 14521 14528 14523 14529 14533 14547 14532 14540 14551 14555 14556 14567 14568 14571 14580 14584 14579 14574 14552 14543 14537 14539 14533 14527 14540 14537 14541 14534 14531 14535 14542 14545 14552 14557 14548 14568 14567 14574 14580 14573 14575 14587 14579 14588 14584 14589 14584 14580 14567 14546 14546 14537 14533 14527 14529 14521 14520 14527 14515 14521 14526 14517 14516 14532 14531 14526 14532 14527 14544 14533 14542 14549 14558 14558 14549 14544 14520 14524 14518 14523 14518 14517 14523 14539 14526 14530 14539 14535 14539 14546 14550 14552 14550 14555 14577 14572 14572 14577 14582 14603 14602 14599 14587 14574 14567 14572 14554 14545 14554 14554 14555 14554 14557 14550 14554 14562 14559 14566 14567 14581 14573 14571 14583 14583 14597 14599 14599 14604 14615 14613 14608 14616 14588 14579 14575 14565 14574 14574 14565 14572 14558 14568 14572 14566 14560 14565 14566 14566 14571 14560 14564 14579 14579 14573 14588 14564 14575 14590 14594 14587 14574 14561 14544 14530 14538 14529 14535 14535 14530 14528 14525 14531 14532 14528 14539 14534 14539 14540 14539 14550 14553 14570 14566 14573 14573 14582 14574 14564 14554 14552 14550 14536 14534 14548 14547 14554 14553 14551 14555 14554 14572 14566 14573 14576 14579 14585 14591 14592 14598 14596 14619 14612 14616 14608 14585 14578 14565 14565 14563 14562 14577 14575 14570 14567 14570 14576 14582 14577 14585 14587 14589 14591 14593 14611 14607 14619 14623 14626 14623 14628 14647 14631 14621 14606 14605 14592 14584 14581 14578 14586 14589 14580 14577 14577 14574 14582 14581 14565 14584 14585 14592 14586 14593 14594 14603 14603 14610 14614 14629 14626 14619 14618 14609 14602 14602 14608 14599 14601 14610 14613 14609 14625 14623 14624 14626 14642 14642 14648 14659 14670 14659 14675 14691 14686 14693 14702 14704 14715 14711 14718 14707 14694 14695 14700 14692 14710 14703 14719 14716 14708 14716 14712 14726 14726 14731 14739 14742 14741 14754 14763 14764 14769 14782 14783 14791 14803 14798 14802 14799 14795 14789 14779 14782 14795 14792 14790 14794 14787 14796 14798 14791 14794 14790 14802 14802 14800 14802 14804 14808 14799 14806 14821 14809 14825 14815 14817 14825 14834 14851 14826 14816 14810 14803 14801 14797 14796 14800 14803 14807 14800 14795 14794 14809 14801 14809 14807 14814 14815 14831 14826 14820 14831 14843 14833 14844 14849 14853 14845 14843 14828 14824 14815 14816 14815 14810 14816 14818 14813 14814 14814 14827 14821 14822 14822 14833 14832 14840 14835 14845 14845 14847 14847 14862 14850 14868 14865 14874 14867 14857 14839 14828 14831 14824 14824 14824 14817 14818 14818 14818 14818 14820 14818 14827 14822 14823 14823 14829 14835 14835 14840 14841 14842 14848 14851 14859 14862 14864 14850 14840 14830 14819 14810 14810 14810 14804 14810 14796 14803 14805 14801 14803 14802 14806 14811 14799 14813 14818 14820 14814 14814 14823 14838 14817 14826 14826 14834 14840 14826 14833 14806 14799 14791 14780 14784 14779 14773 14771 14764 14768 14764 14752 14757 14759 14759 14746 14755 14749 14754 14757 14764 14754 14764 14759 14772 14770 14769 14789 14774 14776 14750 14746 14740 14741 14747 14751 14756 14755 14758 14745 14747 14741 14756 14751 14750 14752 14765 14759 14771 14774 14778 14772 14780 14776 14791 14784 14805 14793 14791 14775 14768 14759 14751 14758 14757 14756 14740 14751 14744 14737 14740 14733 14746 14737 14748 14748 14748 14765 14763 14756 14760 14767 14771 14768 14778 14779 14783 14784 14798 14783 14793 14763 14764 14750 14753 14728 14724 14727 14727 14730 14715 14727 14726 14711 14718 14710 14707 14721 14715 14726 14718 14712 14720 14725 14725 14720 14727 14737 14728 14725 14723 14709 14706 14703 14698 14692 14693 14689 14695 14693 14690 14699 14697 14692 14692 14697 14701 14702 14705 14706 14715 14720 14712 14722 14724 14725 14738 14728 14740 14732 14731 14716 14699 14688 14684 14690 14680 14687 14691 14675 14678 14677 14678 14675 14669 14684 14682 14686 14684 14686 14689 14697 14695 14700 14710 14708 14706 14710 14724 14728 14721 14699 14706 14680 14675 14662 14667 14665 14646 14645 14650 14649 14641 14640 14636 14640 14638 14634 14643 14641 14643 14641 14643 14642 14642 14646 14647 14655 14658 14651 14650 14641 14626 14614 14605 14617 14592 14597 14617 14595 14604 14599 14590 14600 14596 14592 14604 14609 14608 14609 14614 14629 14624 14624 14637 14638 14639 14649 14648 14632 14631 14612 14612 14602 14598 14603 14595 14598 14595 14599 14603 14600 14600 14589 14614 14604 14616 14613 14611 14621 14630 14625 14626 14629 14635 14645 14650 14651 14651 14648 14639 14620 14603 14609 14606 14598 14602 14600 14614 14602 14612 14604 14603 14596 14599 14612 14613 14622 14624 14626 14625 14632 14629 14639 14631 14644 14648 14662 14656 14662 14654 14644 14632 14620 14614 14617 14612 14608 14604 14608 14599 14594 14588 14591 14587 14588 14594 14585 14596 14604 14602 14604 14598 14601 14602 14609 14615 14608 14606 14602 14589 14591 14570 14574 14561 14568 14563 14570 14576 14568 14565 14571 14569 14577 14578 14582 14598 14592 14588 14593 14586 14602 14613 14617 14626 14595 14595 14575 14574 14570 14564 14583 14582 14578 14590 14575 14581 14594 14589 14592 14581 14608 14578 14599 14609 14611 14614 14618 14618 14629 14624 14634 14636 14633 14608 14618 14588 14600 14598 14609 14601 14607 14596 14593 14598 14611 14604 14603 14607 14609 14615 14627 14622 14629 14633 14644 14645 14646 14661 14659 14683 14669 14668 14656 14653 14652 14648 14643 14638 14645 14640 14640 14647 14652 14639 14639 14642 14650 14648 14650 14661 14657 14669 14658 14669 14676 14673 14675 14680 14682 14680 14677 14670 14659 14657 14652 14654 14672 14674 14663 14668 14662 14669 14663 14666 14684 14669 14676 14680 14686 14691 14699 14703 14699 14723 14715 14720 14715 14701 14709 14699 14694 14704 14707 14708 14704 14707 14708 14710 14721 14714 14715 14729 14734 14726 14737 14731 14745 14750 14759 14754 14760 14757 14768 14774 14764 14744 14751 14751 14743 14732 14749 14752 14745 14749 14743 14755 14750 14747 14753 14757 14763 14757 14772 14767 14778 14768 14772 14783 14794 14806 14806 14815 14804 14786 14791 14775 14781 14771 14773 14766 14765 14773 14767 14769 14770 14773 14778 14777 14787 14793 14791 14788 14803 14809 14794 14800 14825 14820 14829 14825 14823 14834 14858 14905 14952 15016 15080 15145 15199 15269 15344 15410 15465 15527 15596 15681 15776 15877 15972 16064 16145 16264 16360 16473 16612 16750 16900 17084 17319 17651 18028 18375 18679 18893 19045 18986 18742 18672 18709 18801 18908 19004 19125 19243 19345 19450 19576 19719 19836 19934 19983 19994 20014 20049 20071 20083 20112 20167 20195 20211 20235 20271 20317 20370 20405 20431 20461 20634 20891 21084 21232 21340 21432 21509 21576 21617 21670 21677 21684 21714 21730 21714 21663 21603 21440 21346 21255 21186 21131 21003 20845 20770 20709 20651 20611 20554 20527 20484 20445 20379 20331 20276 20228 20146 20066 19984 19876 19774 19680 19621 19526 19446 19378 19303 19206 19081 18944 18909 18855 18813 18752 18673 18590 18489 18401 18292 18220 18140 18055 17988 17924 17887 17823 17769 17701 17634 17558 17532 17494 17460 17443 17415 17358 17309 17254 17215 17175 17137 17124 17103 17092 17076 17067 17059 17054 17038 17048 17032 17033 17026 17021 17019 16993 16989 17029 17032 16999 16993 16987 16986 16960 16971 16981 16976 16996 17020 17049 17072 17100 17130 17156 17172 17196 17241 17262 17306 17363 17395 17423 17397 17439 17478 17532 17542 17651 17883 18049 18117 18096 18023 18003 17988 17996 18012 18009 18020 18038 18054 18090 18111 18121 18144 18173 18189 18222 18241 18248 18268 18282 18308 18331 18356 18364 18379 18400 18396 18398 18392 18393 18401 18399 18444 18481 18514 18531 18531 18541 18537 18536 18542 18546 18560 18551 18549 18541 18565 18574 18564 18561 18565 18556 18527 18482 18444 18413 18358 18345 18323 18286 18261 18254 18263 18260 18279 18323 18400 18520 18558 18559 18560 18566 18552 18530 18506 18469 18438 18431 18402 18377 18374 18369 18365 18369 18350 18370 18386 18391 18389 18391 18377 18363 18354 18368 18370 18393 18410 18429 18450 18451 18483 18484 18513 18524 18547 18554 18546 18555 18564 18577 18582 18582 18596 18609 18625 18646 18654 18682 18689 18712 18721 18731 18747 18736 18746 18744 18748 18742 18760 18761 18768 18722 18721 18673 18691 18707 18681 18646 18638 18624 18663 18649 18655 18575 18531 18516 18462 18483 18493 18448 18538 18542 18571 18564 18574 18574 18606 18606 18620 18685 18757 18802 18798 18771 18742 18686 18663 18735 18782 18858 18696 19505 20232 18184 18288 18578 18672 18687 18868 18874 18865 18901 18947 19137 19292 19334 19366 19426 19484 19533 19586 19607 19619 19643 19657 19669 19674 19714 19707 19691 19657 19619 19575 19565 19590 19671 19694 19613 19574 19511 19420 19430 19374 19401 19410 19405 19399 19429 19435 19458 19466 19452 19412 19427 19384 19284 19284 19306 19357 19393 19440 19484 19531 19556 19581 19578 19608 19634 19622 19601 19588 19536 19499 19429 19376 19473 19475 19432 19429 19416 19416 19429 19459 19483 19490 19468 19434 19399 19385 19377 19351 19355 19350 19340 19347 19346 19348 19324 19326 19326 19319 19291 19279 19251 19251 19240 19251 19260 19277 19290 19307 19315 19329 19347 19358 19341 19296 19245 19197 19139 19157 19153 18934 20610 20820 21775 21196 19967 19747 19996 19906 20104 20282 20593 20312 20451 20554 20562 20586 20623 20659 20660 20589 20546 20586 20647 20725 20593 20525 20454 20411 20389 20367 20350 20358 20352 20361 20363 20360 20386 20380 20377 20356 20342 20341 20368 20369 20381 20356 20329 20326 20311 20310 20308 20271 20268 20259 20233 20211 20200 20176 20167 20109 20072 20068 20066 20062 20039 20011 19973 19938 19869 19761 19632 19498 19400 19266 19175 19103 19017 18968 18909 18864 18808 18762 18690 18605 18490 18404 18328 18272 18202 18152 18101 18097 18063 18019 17973 17931 17894 17861 17817 17774 17715 17674 17616 17566 17543 17524 17485 17475 17450 17435 17415 17411 17378 17354 17332 17299 17250 17231 17210 17201 17195 17180 17185 17160 17159 17139 17123 17118 17100 17068 17028 17009 16994 16977 16962 16952 16953 16943 16934 16919 16917 16919 16895 16865 16847 16807 16779 16779 16764 16747 16747 16743 16747 16739 16726 16729 16724 16704 16662 16643 16633 16617 16605 16595 16594 16595 16591 16591 16576 16586 16576 16569 16548 16523 16494 16478 16479 16469 16464 16460 16462 16450 16438 16449 16454 16446 16416 16397 16369 16355 16333 16329 16341 16324 16331 16334 16333 16341 16334 16336 16333 16301 16281 16268 16237 16237 16240 16235 16237 16240 16229 16256 16241 16257 16267 16249 16232 16207 16192 16187 16189 16198 16202 16205 16202 16204 16207 16205 16211 16225 16214 16186 16168 16158 16163 16160 16168 16170 16159 16163 16166 16172 16182 16188 16191 16181 16163 16150 16125 16127 16124 16125 16130 16131 16137 16134 16137 16144 16147 16155 16151 16138 16122 16095 16088 16076 16073 16084 16087 16088 16092 16082 16094 16101 16110 16114 16123 16107 16078 16064 16056 16058 16050 16066 16063 16055 16062 16070 16084 16076 16081 16078 16104 16075 16068 16051 16040 16034 16030 16034 16038 16046 16042 16044 16051 16043 16062 16072 16067 16076 16058 16042 16031 16017 16019 16016 16028 16018 16040 16022 16032 16027 16037 16045 16059 16056 16055 16058 16033 16007 16000 16003 16001 15996 16000 16003 16006 16007 16007 16006 16017 16030 16032 16038 16021 16000 15981 15972 15963 15962 15963 15961 15964 15964 15968 15978 15960 15981 15974 15986 15992 15995 15985 15958 15939 15921 15922 15922 15925 15927 15923 15924 15925 15915 15920 15930 15935 15937 15958 15957 15963 15964 15959 15935 15926 15916 15900 15886 15881 15898 15893 15911 15901 15900 15908 15900 15911 15910 15923 15917 15934 15931 15936 15957 15966 15956 15968 15970 15982 15992 15976 15955 15943 15922 15924 15919 15924 15918 15922 15914 15926 15912 15914 15920 15930 15931 15934 15936 15942 15949 15958 15963 15967 15976 15979 15969 15953 15921 15930 15917 15924 15935 15922 15930 15917 15917 15922 15927 15930 15936 15937 15939 15943 15950 15963 15973 15972 15981 15976 15958 15942 15919 15922 15914 15905 15910 15907 15905 15905 15913 15912 15900 15907 15915 15920 15933 15927 15945 15946 15952 15954 15953 15949 15930 15921 15897 15891 15886 15881 15871 15867 15872 15874 15875 15873 15863 15871 15868 15877 15869 15882 15899 15890 15897 15904 15906 15906 15889 15878 15850 15853 15829 15829 15824 15832 15828 15822 15825 15835 15827 15826 15836 15844 15839 15840 15841 15859 15865 15861 15880 15873 15867 15864 15851 15823 15811 15802 15800 15805 15800 15793 15794 15797 15782 15800 15801 15802 15795 15808 15797 15824 15819 15837 15830 15840 15834 15841 15825 15797 15795 15800 15795 15791 15786 15793 15793 15788 15794 15797 15803 15804 15819 15821 15820 15835 15835 15838 15854 15870 15853 15850 15820 15823 15805 15804 15796 15810 15813 15805 15805 15814 15812 15814 15818 15820 15836 15833 15854 15852 15864 15866 15879 15883 15881 15877 15860 15848 15850 15839 15852 15851 15849 15853 15855 15852 15856 15866 15868 15884 15881 15891 15896 15904 15906 15919 15916 15931 15938 15938 15935 15924 15908 15898 15910 15895 15900 15906 15920 15914 15907 15898 15913 15913 15924 15922 15920 15938 15933 15951 15945 15952 15972 15978 15987 15970 15963 15949 15954 15950 15946 15950 15952 15954 15961 15963 15971 15956 15954 15967 15983 15986 15989 16015 16016 16020 16027 16042 16034 16028 16035 16005 16004 15988 15992 15984 15978 15984 15972 15982 15981 15980 15987 15991 15996 15995 16001 16006 16028 16021 16026 16030 16015 16038 16044 16035 16014 16003 15993 15986 15975 15984 15974 15969 15967 15971 15975 15970 15970 15981 15992 15984 15983 15997 15998 16006 16017 16024 16021 16018 16021 15999 15997 15971 15976 15968 15973 15961 15976 15964 15962 15971 15965 15973 15976 15988 15980 15990 15993 16006 16011 16019 16020 16021 16007 15987 15970 15968 15952 15960 15963 15961 15956 15962 15964 15965 15962 15971 15973 15981 15984 15983 15994 16006 16008 16015 16018 16030 16038 16019 15994 15989 15995 15971 15969 15970 15976 15974 15969 15974 15989 15976 15985 15991 15987 16001 16012 16006 16029 16033 16030 16044 16048 16046 16068 16063 16058 16042 16039 16032 16033 16024 16012 16023 16022 16030 16032 16034 16046 16048 16049 16043 16059 16069 16072 16094 16086 16096 16111 16107 16117 16123 16131 16130 16125 16129 16116 16114 16109 16113 16113 16121 16118 16124 16134 16125 16148 16153 16151 16156 16164 16168 16175 16187 16193 16204 16213 16219 16213 16207 16209 16199 16198 16192 16182 16187 16188 16200 16183 16191 16200 16210 16202 16204 16213 16219 16213 16224 16247 16242 16242 16261 16253 16263 16269 16261 16255 16247 16242 16238 16230 16228 16220 16223 16231 16228 16223 16226 16235 16223 16227 16229 16237 16233 16256 16251 16257 16243 16255 16271 16268 16260 16254 16245 16236 16219 16218 16217 16197 16201 16196 16187 16199 16184 16195 16194 16184 16194 16195 16187 16197 16196 16210 16214 16207 16222 16198 16189 16168 16157 16147 16136 16135 16132 16133 16124 16133 16128 16124 16122 16130 16125 16136 16132 16136 16144 16151 16158 16161 16161 16171 16173 16142 16119 16102 16086 16094 16072 16080 16074 16073 16070 16068 16058 16066 16068 16073 16065 16082 16084 16091 16097 16096 16098 16113 16113 16117 16128 16129 16123 16106 16091 16068 16081 16060 16060 16069 16064 16057 16054 16056 16066 16071 16074 16074 16077 16081 16087 16098 16097 16113 16112 16119 16129 16145 16143 16164 16147 16154 16124 16126 16114 16122 16109 16111 16116 16116 16119 16119 16136 16121 16140 16135 16142 16147 16148 16161 16170 16194 16189 16190 16205 16216 16208 16197 16184 16184 16179 16188 16181 16177 16175 16175 16191 16194 16200 16202 16200 16202 16227 16236 16243 16243 16239 16254 16277 16270 16279 16288 16277 16281 16275 16269 16265 16256 16259 16254 16255 16264 16266 16265 16262 16264 16263 16277 16283 16288 16302 16302 16305 16317 16320 16320 16335 16341 16345 16335 16326 16325 16318 16302 16312 16303 16311 16306 16310 16289 16303 16304 16308 16325 16312 16314 16324 16314 16334 16334 16338 16335 16361 16351 16352 16357 16345 16329 16323 16320 16312 16305 16304 16301 16314 16312 16306 16293 16299 16311 16305 16306 16314 16316 16320 16320 16339 16343 16342 16342 16337 16315 16308 16285 16280 16274 16266 16266 16254 16251 16242 16240 16249 16255 16239 16249 16265 16254 16261 16271 16263 16269 16279 16290 16285 16281 16301 16295 16275 16268 16248 16224 16216 16211 16210 16198 16205 16209 16204 16202 16210 16189 16198 16208 16198 16211 16203 16207 16221 16220 16231 16238 16236 16253 16246 16258 16252 16265 16245 16231 16207 16203 16204 16181 16191 16193 16185 16175 16179 16176 16181 16170 16185 16177 16198 16193 16208 16215 16205 16221 16214 16227 16227 16225 16249 16239 16229 16215 16199 16196 16198 16189 16195 16203 16193 16198 16200 16197 16199 16194 16201 16208 16223 16231 16229 16236 16245 16250 16260 16263 16263 16249 16243 16242 16243 16228 16229 16231 16234 16238 16243 16245 16254 16241 16244 16262 16264 16260 16269 16274 16280 16303 16294 16299 16302 16299 16294 16278 16276 16265 16263 16256 16256 16263 16257 16254 16272 16271 16274 16267 16263 16276 16284 16287 16281 16293 16305 16308 16319 16318 16304 16297 16289 16289 16272 16268 16266 16269 16268 16277 16267 16274 16275 16281 16289 16280 16298 16300 16304 16304 16314 16317 16322 16330 16325 16325 16318 16307 16292 16300 16273 16285 16278 16272 16268 16267 16268 16265 16273 16266 16278 16278 16276 16277 16283 16290 16296 16298 16294 16320 16304 16296 16281 16280 16269 16266 16261 16258 16251 16258 16261 16259 16266 16263 16272 16276 16284 16285 16281 16302 16305 16301 16313 16324 16308 16303 16282 16264 16266 16264 16249 16248 16253 16256 16254 16244 16246 16245 16251 16262 16255 16271 16280 16290 16282 16288 16306 16304 16316 16312 16310 16297 16289 16271 16261 16264 16263 16251 16249 16252 16257 16252 16258 16255 16259 16270 16270 16265 16281 16293 16296 16311 16309 16311 16320 16322 16330 16346 16335 16322 16318 16303 16310 16300 16291 16299 16281 16289 16283 16290 16303 16297 16294 16305 16316 16319 16318 16331 16334 16339 16343 16350 16348 16357 16361 16365 16366 16367 16370 16362 16346 16341 16338 16347 16353 16354 16351 16352 16359 16364 16359 16362 16375 16373 16377 16391 16399 16397 16403 16411 16412 16415 16415 16388 16389 16385 16379 16377 16365 16376 16367 16368 16365 16365 16368 16368 16371 16377 16380 16379 16385 16383 16390 16396 16402 16403 16407 16407 16406 16391 16367 16354 16338 16357 16342 16343 16334 16334 16338 16327 16331 16331 16334 16327 16336 16339 16338 16346 16353 16342 16354 16363 16364 16357 16340 16338 16326 16305 16312 16297 16302 16301 16297 16290 16295 16284 16297 16299 16297 16297 16312 16308 16324 16321 16318 16320 16337 16330 16327 16316 16296 16273 16277 16267 16266 16261 16265 16261 16252 16258 16260 16273 16263 16268 16275 16284 16288 16294 16299 16308 16312 16320 16322 16328 16347 16335 16335 16317 16306 16290 16295 16296 16298 16294 16302 16293 16303 16297 16304 16303 16319 16309 16326 16333 16336 16341 16353 16365 16365 16374 16377 16366 16380 16401 16399 16401 16403 16396 16394 16389 16378 16383 16379 16386 16386 16387 16388 16380 16390 16397 16392 16399 16404 16410 16415 16412 16424 16427 16424 16440 16436 16449 16450 16463 16474 16478 16472 16472 16462 16460 16456 16469 16474 16478 16475 16492 16491 16486 16487 16487 16497 16507 16507 16513 16507 16523 16529 16529 16534 16547 16553 16551 16551 16541 16538 16527 16529 16532 16528 16512 16518 16510 16513 16515 16515 16509 16526 16509 16525 16513 16523 16522 16540 16536 16532 16549 16554 16553 16558 16563 16562 16559 16550 16543 16532 16522 16514 16508 16513 16510 16504 16495 16492 16490 16509 16498 16500 16496 16504 16506 16502 16510 16522 16517 16518 16521 16531 16537 16541 16549 16549 16542 16536 16516 16506 16502 16489 16488 16465 16483 16467 16462 16454 16471 16456 16457 16453 16444 16463 16458 16455 16464 16465 16465 16481 16481 16484 16492 16495 16496 16498 16506 16492 16484 16460 16441 16441 16445 16433 16424 16425 16432 16427 16413 16426 16419 16414 16418 16430 16433 16430 16438 16442 16445 16465 16457 16463 16472 16469 16461 16448 16431 16421 16427 16411 16396 16407 16403 16402 16402 16398 16397 16401 16404 16403 16407 16414 16419 16418 16424 16432 16441 16442 16456 16441 16448 16466 16467 16468 16449 16430 16432 16422 16422 16421 16421 16408 16410 16418 16411 16416 16412 16423 16427 16424 16416 16441 16447 16442 16450 16465 16449 16474 16478 16485 16488 16496 16480 16482 16467 16456 16458 16448 16446 16439 16449 16458 16459 16459 16452 16464 16457 16463 16469 16481 16476 16490 16481 16496 16494 16507 16496 16524 16523 16524 16523 16519 16517 16509 16504 16493 16496 16494 16490 16496 16480 16487 16494 16498 16491 16487 16495 16498 16499 16511 16517 16530 16527 16534 16531 16536 16537 16548 16547 16532 16527 16526 16512 16524 16520 16525 16518 16522 16517 16519 16522 16519 16528 16527 16530 16538 16541 16548 16542 16546 16553 16560 16564 16551 16547 16536 16529 16513 16506 16505 16501 16482 16501 16487 16477 16475 16473 16486 16474 16490 16491 16499 16492 16500 16505 16508 16510 16517 16513 16503 16501 16476 16464 16449 16431 16440 16428 16426 16421 16414 16418 16415 16414 16417 16407 16415 16412 16416 16429 16427 16423 16428 16443 16441 16448 16448 16455 16454 16451 16454 16423 16404 16392 16385 16381 16370 16370 16363 16358 16355 16348 16350 16353 16351 16345 16348 16343 16349 16350 16360 16367 16358 16368 16369 16365 16386 16395 16381 16374 16356 16336 16335 16319 16323 16319 16317 16321 16326 16309 16315 16311 16315 16330 16331 16330 16325 16342 16345 16341 16348 16365 16366 16375 16360 16357 16344 16319 16332 16322 16314 16316 16320 16308 16317 16314 16312 16313 16318 16313 16329 16336 16339 16343 16347 16354 16364 16359 16377 16376 16382 16393 16393 16378 16367 16359 16360 16353 16343 16351 16357 16351 16342 16352 16358 16359 16361 16367 16380 16375 16382 16391 16397 16394 16405 16405 16429 16428 16432 16439 16439 16439 16422 16428 16419 16418 16415 16415 16409 16407 16398 16407 16424 16403 16417 16419 16430 16434 16435 16442 16440 16450 16449 16454 16466 16470 16469 16464 16487 16467 16461 16451 16447 16459 16442 16436 16450 16448 16441 16438 16443 16442 16444 16436 16445 16443 16463 16454 16464 16477 16461 16470 16484 16482 16485 16487 16484 16465 16469 16454 16457 16446 16460 16463 16474 16465 16465 16457 16462 16469 16468 16470 16476 16496 16490 16495 16498 16515 16506 16515 16509 16493 16480 16464 16461 16453 16448 16440 16435 16424 16428 16424 16415 16409 16415 16423 16432 16427 16415 16416 16429 16428 16434 16432 16442 16441 16444 16409 16401 16379 16376 16356 16361 16353 16342 16356 16339 16337 16337 16345 16338 16338 16334 16328 16348 16347 16347 16355 16360 16358 16372 16370 16377 16372 16360 16359 16330 16314 16306 16304 16296 16299 16292 16288 16275 16282 16283 16287 16291 16285 16298 16300 16297 16306 16295 16314 16314 16320 16329 16328 16347 16329 16311 16288 16287 16288 16290 16283 16285 16272 16277 16269 16284 16282 16286 16284 16297 16296 16299 16315 16318 16322 16326 16336 16336 16343 16345 16340 16314 16308 16299 16297 16299 16291 16291 16288 16293 16284 16286 16287 16295 16299 16307 16310 16317 16323 16330 16332 16343 16340 16348 16356 16356 16360 16365 16359 16352 16340 16319 16327 16325 16311 16306 16315 16315 16320 16314 16313 16320 16331 16329 16347 16347 16352 16368 16359 16372 16372 16369 16376 16380 16372 16367 16352 16342 16338 16335 16337 16327 16329 16328 16333 16329 16330 16338 16336 16346 16338 16346 16353 16360 16348 16360 16379 16374 16379 16372 16370 16363 16355 16356 16352 16348 16351 16346 16343 16353 16363 16359 16362 16366 16359 16373 16372 16382 16390 16400 16406 16415 16419 16404 16403 16402 16388 16384 16373 16373 16376 16368 16372 16376 16383 16378 16379 16385 16385 16400 16398 16405 16409 16418 16414 16432 16439 16443 16453 16437 16445 16412 16414 16408 16404 16404 16404 16401 16398 16413 16403 16413 16405 16403 16424 16416 16426 16437 16453 16457 16441 16464 16476 16477 16484 16489 16501 16493 16493 16470 16473 16473 16469 16456 16461 16459 16464 16464 16462 16462 16468 16474 16481 16487 16469 16485 16490 16484 16504 16507 16516 16524 16532 16532 16537 16535 16533 16538 16528 16515 16524 16524 16507 16516 16520 16509 16514 16516 16515 16515 16515 16527 16532 16538 16549 16538 16545 16563 16570 16572 16574 16583 16577 16575 16570 16556 16553 16568 16559 16550 16554 16555 16557 16543 16566 16564 16569 16575 16573 16575 16589 16589 16593 16592 16607 16600 16602 16618 16617 16604 16597 16586 16578 16570 16572 16569 16568 16556 16553 16555 16551 16544 16548 16553 16551 16565 16561 16563 16564 16576 16578 16571 16588 16591 16595 16591 16604 16595 16579 16563 16568 16544 16543 16552 16540 16547 16539 16536 16531 16549 16532 16542 16535 16551 16540 16542 16557 16563 16572 16570 16583 16575 16582 16580 16580 16569 16550 16531 16525 16528 16520 16517 16513 16519 16505 16506 16505 16503 16506 16495 16514 16504 16510 16521 16517 16525 16523 16533 16551 16537 16544 16536 16521 16512 16494 16504 16492 16494 16490 16507 16495 16491 16490 16505 16497 16505 16500 16505 16520 16525 16525 16532 16542 16544 16546 16525 16519 16494 16498 16490 16488 16486 16480 16477 16480 16469 16470 16472 16469 16458 16482 16472 16488 16481 16504 16490 16500 16501 16503 16517 16506 16491 16480 16469 16466 16460 16441 16445 16444 16438 16446 16446 16441 16437 16445 16451 16442 16452 16451 16464 16470 16473 16473 16481 16491 16498 16476 16457 16449 16441 16439 16437 16434 16435 16431 16433 16423 16429 16438 16430 16433 16427 16434 16447 16461 16442 16462 16463 16468 16466 16448 16435 16441 16430 16419 16420 16420 16424 16426 16427 16414 16417 16419 16431 16418 16430 16427 16443 16446 16452 16459 16462 16464 16456 16455 16458 16449 16456 16471 16474 16481 16478 16496 16487 16496 16490 16494 16488 16495 16514 16511 16520 16539 16533 16522 16511 16506 16503 16484 16488 16488 16473 16493 16480 16490 16495 16508 16506 16522 16531 16523 16542 16556 16552 16556 16547 16544 16534 16537 16540 16546 16541 16544 16546 16544 16556 16555 16570 16576 16576 16597 16594 16598 16616 16617 16628 16614 16609 16608 16609 16610 16612 16609 16616 16619 16618 16615 16619 16624 16636 16640 16637 16656 16657 16663 16669 16682 16682 16685 16674 16666 16674 16667 16673 16659 16673 16670 16671 16676 16678 16679 16680 16685 16688 16706 16709 16717 16734 16729 16733 16737 16740 16733 16719 16718 16711 16712 16726 16724 16716 16720 16727 16723 16723 16730 16730 16725 16732 16736 16742 16746 16744 16748 16762 16758 16752 16745 16740 16722 16709 16718 16701 16702 16697 16689 16695 16694 16690 16683 16691 16690 16694 16707 16694 16703 16702 16699 16702 16699 16712 16719 16717 16712 16727 16715 16707 16696 16668 16669 16652 16653 16650 16655 16640 16641 16634 16639 16638 16631 16629 16635 16639 16644 16631 16639 16634 16644 16646 16649 16657 16664 16670 16671 16671 16671 16672 16673 16683 16675 16688 16682 16673 16650 16648 16628 16630 16619 16615 16618 16611 16612 16595 16605 16605 16600 16608 16597 16609 16609 16614 16619 16610 16616 16614 16628 16632 16630 16639 16645 16641 16655 16646 16636 16628 16628 16609 16607 16612 16614 16610 16616 16625 16614 16612 16623 16608 16632 16618 16637 16630 16648 16652 16640 16656 16658 16661 16673 16673 16682 16692 16700 16686 16677 16674 16665 16653 16654 16657 16650 16653 16643 16649 16645 16657 16640 16644 16644 16655 16667 16659 16665 16661 16673 16679 16683 16684 16697 16700 16705 16706 16719 16726 16717 16714 16707 16692 16699 16694 16675 16691 16684 16692 16693 16683 16690 16698 16688 16688 16688 16699 16709 16701 16714 16711 16714 16720 16729 16725 16741 16739 16752 16731 16749 16739 16721 16710 16704 16697 16696 16707 16704 16702 16693 16687 16693 16699 16698 16703 16693 16699 16702 16701 16707 16715 16709 16722 16722 16722 16722 16710 16707 16691 16692 16690 16703 16696 16691 16693 16682 16688 16689 16696 16687 16695 16687 16706 16713 16700 16718 16720 16725 16713 16721 16705 16694 16679 16669 16661 16648 16644 16638 16638 16641 16630 16627 16631 16625 16624 16636 16641 16634 16637 16637 16649 16646 16660 16654 16662 16650 16627 16611 16605 16594 16589 16585 16578 16575 16568 16567 16554 16561 16559 16550 16564 16569 16570 16577 16574 16572 16585 16588 16590 16585 16587 16560 16544 16533 16527 16518 16523 16514 16519 16506 16509 16506 16490 16506 16501 16519 16509 16515 16526 16520 16528 16536 16541 16539 16549 16531 16530 16512 16500 16496 16488 16485 16497 16481 16482 16485 16487 16481 16488 16475 16483 16496 16494 16501 16502 16513 16504 16517 16526 16528 16519 16504 16486 16472 16484 16471 16475 16476 16475 16475 16470 16479 16479 16487 16483 16495 16511 16513 16505 16531 16533 16530 16536 16524 16507 16499 16481 16476 16472 16461 16460 16462 16454 16466 16465 16468 16456 16458 16473 16470 16475 16482 16490 16493 16512 16506 16511 16508 16502 16486 16464 16457 16454 16438 16436 16435 16445 16439 16438 16442 16436 16450 16458 16458 16458 16467 16475 16481 16492 16486 16500 16505 16510 16511 16519 16505 16477 16474 16472 16450 16461 16463 16465 16456 16467 16456 16459 16471 16460 16470 16473 16473 16488 16481 16491 16497 16504 16510 16514 16505 16538 16533 16529 16516 16501 16485 16485 16490 16481 16477 16481 16478 16476 16472 16471 16470 16478 16480 16492 16486 16492 16505 16502 16520 16528 16529 16537 16545 16551 16548 16536 16526 16523 16515 16522 16517 16518 16504 16508 16511 16516 16514 16531 16515 16529 16532 16529 16534 16544 16554 16552 16558 16588 16574 16587 16591 16597 16604 16611 16586 16579 16566 16558 16556 16550 16547 16540 16547 16543 16540 16545 16546 16561 16552 16554 16560 16569 16568 16564 16576 16590 16580 16596 16604 16589 16611 16613 16630 16620 16618 16610 16600 16587 16587 16576 16576 16569 16570 16570 16556 16562 16573 16565 16564 16566 16584 16581 16587 16595 16601 16610 16613 16615 16630 16611 16617 16636 16643 16642 16628 16620 16605 16595 16580 16589 16579 16572 16567 16567 16566 16556 16573 16572 16574 16571 16571 16577 16587 16581 16595 16585 16605 16596 16607 16616 16620 16605 16604 16603 16588 16578 16569 16581 16563 16567 16572 16566 16565 16565 16564 16564 16579 16578 16574 16592 16600 16596 16611 16612 16610 16621 16636 16625 16613 16594 16574 16569 16573 16564 16552 16557 16554 16551 16545 16549 16555 16553 16560 16554 16562 16569 16566 16571 16580 16583 16609 16591 16613 16594 16595 16574 16558 16542 16545 16539 16544 16533 16527 16530 16525 16545 16529 16529 16546 16546 16530 16543 16552 16550 16559 16572 16580 16574 16583 16577 16568 16548 16536 16517 16520 16515 16519 16510 16518 16509 16512 16512 16513 16500 16513 16527 16527 16533 16528 16538 16544 16550 16552 16570 16559 16554 16542 16539 16516 16512 16512 16516 16505 16512 16510 16514 16505 16503 16512 16521 16526 16528 16537 16524 16540 16552 16561 16562 16581 16576 16575 16566 16558 16538 16535 16520 16516 16514 16507 16509 16502 16501 16501 16507 16500 16510 16504 16518 16525 16526 16528 16544 16535 16543 16553 16549 16552 16565 16571 16561 16559 16532 16539 16524 16518 16514 16513 16506 16511 16500 16511 16507 16514 16521 16508 16523 16536 16529 16537 16548 16550 16562 16560 16566 16570 16589 16584 16569 16557 16543 16550 16527 16533 16527 16525 16535 16523 16528 16529 16528 16536 16541 16536 16552 16552 16551 16556 16564 16570 16573 16582 16584 16602 16594 16586 16580 16552 16553 16543 16537 16556 16551 16541 16538 16534 16540 16538 16535 16543 16545 16544 16553 16555 16565 16572 16567 16577 16585 16596 16598 16588 16572 16563 16563 16557 16557 16558 16547 16557 16558 16547 16556 16569 16562 16573 16561 16569 16586 16585 16594 16600 16604 16605 16616 16621 16638 16630 16623 16602 16600 16590 16573 16559 16567 16558 16560 16554 16556 16559 16543 16546 16557 16550 16561 16563 16565 16574 16580 16583 16591 16591 16602 16605 16598 16587 16579 16579 16549 16550 16535 16531 16528 16520 16526 16532 16526 16506 16518 16524 16524 16527 16533 16530 16531 16542 16542 16546 16555 16556 16566 16568 16561 16555 16540 16526 16504 16488 16485 16486 16480 16474 16479 16477 16468 16473 16473 16477 16479 16486 16497 16510 16501 16514 16511 16518 16525 16530 16524 16509 16513 16487 16495 16473 16475 16452 16460 16467 16477 16467 16469 16461 16465 16475 16487 16483 16492 16493 16493 16504 16509 16517 16517 16516 16535 16531 16525 16508 16501 16485 16482 16469 16464 16473 16459 16467 16466 16463 16469 16466 16470 16478 16481 16489 16491 16500 16496 16511 16522 16534 16535 16535 16544 16539 16528 16518 16516 16504 16488 16488 16491 16487 16495 16492 16482 16492 16491 16498 16494 16511 16503 16510 16520 16519 16535 16540 16545 16547 16554 16555 16568 16572 16550 16537 16543 16523 16519 16524 16521 16521 16519 16513 16511 16506 16513 16519 16520 16517 16534 16539 16561 16563 16555 16565 16581 16577 16580 16574 16569 16560 16555 16541 16547 16544 16539 16541 16547 16545 16539 16549 16554 16555 16563 16579 16574 16581 16586 16589 16592 16598 16609 16611 16627 16592 16597 16572 16567 16558 16555 16552 16552 16558 16552 16545 16555 16552 16557 16559 16564 16569 16583 16586 16584 16604 16605 16611 16601 16617 16626 16598 16587 16576 16567 16550 16559 16554 16557 16553 16558 16557 16558 16556 16549 16559 16559 16573 16578 16589 16596 16593 16601 16617 16614 16615 16615 16603 16592 16585 16569 16561 16554 16562 16555 16547 16555 16533 16547 16542 16546 16557 16554 16566 16562 16575 16567 16577 16580 16577 16582 16605 16598 16600 16579 16576 16551 16548 16532 16538 16538 16537 16531 16525 16529 16524 16533 16542 16532 16553 16560 16559 16561 16566 16583 16582 16591 16587 16590 16572 16554 16546 16533 16525 16516 16522 16523 16520 16519 16517 16510 16520 16517 16527 16526 16545 16549 16554 16549 16559 16562 16567 16580 16579 16581 16565 16539 16543 16531 16518 16506 16509 16508 16521 16504 16499 16502 16508 16512 16513 16528 16518 16534 16543 16533 16550 16556 16560 16563 16573 16580 16588 16589 16576 16560 16540 16535 16532 16533 16519 16536 16526 16519 16519 16528 16519 16516 16521 16527 16533 16536 16536 16547 16558 16557 16573 16574 16575 16586 16595 16579 16575 16561 16544 16539 16549 16534 16529 16529 16528 16534 16531 16532 16531 16536 16536 16548 16529 16559 16561 16553 16571 16579 16582 16581 16607 16588 16579 16565 16549 16546 16538 16532 16540 16546 16533 16544 16543 16538 16554 16548 16559 16550 16563 16572 16582 16572 16581 16594 16595 16594 16603 16606 16605 16591 16573 16557 16548 16552 16539 16543 16533 16542 16539 16530 16537 16541 16529 16543 16538 16553 16561 16548 16565 16571 16573 16580 16591 16592 16575 16584 16572 16559 16553 16549 16535 16533 16520 16523 16516 16514 16512 16510 16508 16511 16521 16509 16527 16522 16531 16534 16534 16544 16554 16551 16564 16554 16559 16558 16544 16523 16518 16511 16492 16496 16498 16492 16483 16493 16490 16487 16481 16489 16491 16494 16498 16503 16513 16512 16530 16536 16540 16541 16536 16526 16500 16501 16485 16480 16469 16465 16473 16474 16459 16466 16471 16471 16471 16470 16487 16496 16487 16503 16499 16507 16517 16511 16525 16527 16525 16512 16505 16481 16464 16466 16456 16454 16454 16441 16439 16441 16441 16448 16452 16449 16461 16454 16462 16461 16460 16474 16497 16495 16505 16497 16497 16497 16486 16471 16447 16441 16430 16430 16424 16422 16421 16414 16417 16422 16425 16429 16430 16438 16436 16443 16456 16450 16462 16459 16474 16475 16483 16477 16469 16450 16436 16438 16428 16420 16433 16419 16424 16423 16434 16423 16434 16441 16446 16443 16460 16457 16466 16474 16475 16485 16497 16488 16466 16467 16454 16465 16457 16452 16457 16462 16468 16459 16464 16468 16472 16485 16497 16499 16503 16523 16515 16533 16535 16539 16551 16538 16521 16510 16504 16495 16497 16495 16497 16498 16496 16502 16506 16510 16514 16525 16524 16527 16548 16559 16553 16569 16572 16585 16586 16597 16612 16601 16590 16574 16572 16584 16569 16562 16559 16574 16565 16566 16579 16585 16586 16592 16600 16593 16615 16617 16631 16639 16645 16651 16654 16669 16674 16682 16706 16694 16705 16717 16732 16731 16733 16743 16741 16737 16726 16723 16721 16714 16708 16708 16706 16705 16706 16710 16705 16711 16704 16708 16716 16713 16729 16729 16722 16733 16736 16744 16744 16754 16766 16772 16757 16772 16772 16761 16761 16751 16757 16750 16758 16749 16752 16762 16748 16744 16754 16757 16762 16778 16765 16774 16775 16786 16785 16796 16794 16807 16803 16811 16814 16824 16826 16833 16812 16800 16775 16776 16769 16763 16770 16752 16758 16739 16750 16734 16735 16731 16748 16751 16745 16751 16759 16758 16762 16761 16776 16775 16782 16780 16785 16788 16801 16808 16793 16776 16757 16737 16721 16716 16716 