6895 7004 7005 6911 6800 6739 6709 6687 6686 6682 6672 6658 48062 48070 48070 48070 48038 39058 9067 3548 3250 2246 2232 3496 16160 45325 46101 46265 46346 46415 46395 46318 46214 46166 46126 46098 46087 46060 46046 46030 46022 46039 46050 46079 46084 46112 46121 46161 46195 46236 46258 46203 46077 45998 45927 45907 45873 45863 45852 45855 45843 45857 45874 45900 45936 45962 46009 46026 46071 46107 46159 46202 46134 46019 45916 45839 45801 45750 45729 45728 45701 45702 45713 45733 45761 45789 45822 45866 45908 45933 45979 46016 46055 46052 45961 45895 45860 45853 45833 45834 45850 45867 45865 45864 45935 46002 46060 46123 46204 46266 46353 46413 46490 46549 46624 46619 46529 46448 46414 46391 46400 46420 46444 46456 46454 46485 46516 46568 46642 46677 46739 46786 46842 46894 46945 47006 47033 46970 46879 46827 46781 46798 46804 46804 46832 46844 46860 46903 46906 46951 46991 47038 47080 47119 47154 47205 47222 47153 47052 46986 46935 46912 46921 46923 46925 46933 46937 46969 46996 47040 47082 47111 47155 47184 47245 47298 47360 47353 47271 47181 47133 47104 47084 47091 47097 47106 47106 47130 47144 47180 47218 47263 47289 47341 47381 47434 47477 47508 47450 47350 47248 47203 47160 47172 47157 47164 47175 47187 47192 47221 47263 47277 47331 47347 47383 47399 47422 47474 47515 47444 47317 47240 47182 47158 47151 47153 47148 47135 47164 47175 47211 47219 47258 47289 47330 47372 47397 47429 47467 47405 47288 47220 47160 47139 47122 47127 47140 47131 47136 47171 47190 47246 47273 47323 47351 47383 47429 47482 47470 47353 47246 47170 47102 47067 47051 47030 47026 47021 47039 47041 47069 47103 47122 47156 47197 47227 47270 47298 47281 47155 47048 46980 46914 46879 46870 46870 46861 46859 46857 46885 46908 46955 46988 47034 47040 47099 47143 47162 47143 47033 46910 46844 46782 46756 46753 46760 46760 46761 46786 46823 46836 46880 46923 46962 46996 47037 47092 47130 47127 47014 46910 46825 46777 46758 46748 46739 46736 46728 46758 46772 46796 46835 46846 46885 46929 46964 47003 47045 46990 46858 46749 46678 46639 46611 46599 46598 46580 46579 46616 46643 46673 46709 46748 46781 46814 46860 46921 46965 46951 46848 46695 46606 46543 46497 46482 46454 46449 46430 46427 46443 46473 46514 46557 46591 46610 46652 46709 46749 46799 46788 46664 46542 46466 46397 46364 46379 46361 46368 46356 46380 46432 46457 46501 46536 46585 46638 46668 46723 46784 46825 46840 46753 46630 46522 46497 46486 46466 46479 46467 46474 46481 46503 46561 46594 46624 46677 46703 46755 46792 46839 46870 46849 46723 46619 46570 46526 46513 46500 46507 46503 46512 46521 46552 46576 46599 46643 46685 46712 46758 46778 46826 46830 46701 46555 46457 46412 46355 46342 46340 46334 46286 46283 46286 46300 46308 46320 46336 46355 46376 46419 46428 46457 46359 46233 46106 45992 45901 45825 45792 45739 45692 45654 45621 45612 45596 45570 45531 45503 45494 45473 45464 45432 45386 45275 45114 45001 44890 44820 44725 44579 44391 44237 44088 43989 44017 44095 44237 44419 44553 44476 44165 43741 43215 42645 41994 41387 40742 40188 39704 39305 38936 38613 38278 38022 37839 37722 37649 37673 37834 38034 38180 38371 38511 38671 38762 38766 38688 38586 38543 38475 38414 38343 38241 38187 38166 38142 38237 38287 38357 38231 38061 37920 37828 37735 37642 37554 37484 37434 37408 37437 37500 37577 37643 37712 37792 37825 37788 37687 37557 37517 37555 37597 37660 37721 37781 37828 37835 37770 37753 37622 37366 37004 36512 36007 35430 34998 34690 34408 34094 33864 33767 33752 33846 34073 34262 34467 34936 35354 35722 36091 36369 36567 36661 36747 36848 36989 37142 37328 37486 37659 37831 38023 38190 38371 38540 38712 38861 38934 38983 39012 39060 39111 39209 39308 39432 39564 39700 39846 39945 40057 40132 40242 40332 40263 40028 40125 40253 40299 40333 40373 38575 39130 39200 39166 39009 39006 38978 38863 38873 39079 39120 39178 39260 39276 39177 39032 38813 38690 38614 38556 38500 38454 38394 38335 38273 38290 38434 38480 38392 38110 37774 37431 37081 36742 36387 36092 35837 35587 35371 35185 35081 34991 35009 35044 35058 35089 35114 35160 35224 35279 35320 35355 35443 35517 35547 35634 35691 35689 35589 35503 35773 36470 36674 36841 37112 37435 37397 37625 37715 37680 37663 37723 37700 37765 37756 37711 37664 37577 37494 37387 37339 37310 37251 37230 37274 37270 37137 36926 36715 36568 36452 36333 36185 35985 35790 35629 35535 35475 35471 35424 35327 35254 35153 35100 35011 34981 34947 34938 34954 34928 34839 34780 34799 34784 34851 34737 34755 34699 34622 34576 34509 34547 34558 34613 34679 34763 34831 34878 34852 34817 35187 35894 35865 36282 36480 36522 36665 36846 36963 37121 37315 37485 37462 37396 37348 37248 37167 37141 37105 37049 36917 36874 36994 37064 37207 37406 37809 38281 38480 38654 38737 38827 38934 38970 39005 38947 38835 38734 38606 38430 38264 38185 38113 38044 37977 37968 37887 37802 37667 37558 37459 37406 37410 37398 37391 37335 37333 37541 37366 37469 37428 37462 37506 37511 37528 37338 37185 37281 37241 37224 37197 37143 37136 37209 37489 37754 37857 37878 37936 38034 38101 38127 38219 38266 38279 38263 38266 38270 38241 38248 38223 38167 38161 38100 38032 38005 37829 37567 37317 37154 37078 37081 37104 37246 37283 37337 37415 37448 37454 37496 37534 37595 37628 37606 37438 37150 37088 37065 37166 37132 37013 36836 36646 36466 36364 36272 36236 36196 36183 36143 36053 35953 35832 35768 35708 35689 35701 35730 35722 35752 35716 35816 35935 36034 36307 36366 36431 36432 36379 36315 36190 36103 36049 35996 35945 35911 35878 35846 35818 35761 35702 35619 35506 35431 35349 35308 35295 35279 35277 35297 35304 35329 35322 35334 35309 35326 35318 35327 35284 35285 35287 35266 35255 35260 35260 35267 35284 35353 35418 35484 35521 35505 35535 35519 35436 35475 35530 35614 35980 36009 36139 36324 36136 36116 35978 35933 35939 35927 35942 35956 35935 35927 35897 35901 35893 35824 35924 36006 36078 36070 36095 36115 36130 36119 36182 36367 36365 36399 36323 36275 36181 36163 36102 36079 36039 36013 35988 35956 35930 35890 35829 35787 35751 35687 35658 35651 35643 35646 35621 35604 35577 35602 35602 35600 35578 35597 35547 35471 35419 35398 35423 35451 35559 35554 35552 35514 35513 35508 35530 35500 35489 35439 35342 35209 35108 35256 35137 35070 35031 34986 34956 34950 34938 34923 34900 34876 34885 34857 34775 34743 34730 34698 34725 34684 34672 34629 34624 34589 34622 34572 34588 34566 34548 34492 34411 34379 34326 34307 34323 34323 34320 34311 34309 34330 34358 34349 34424 34439 34431 34401 34420 34396 34503 34442 34533 34578 34562 34583 34607 34605 34601 34616 34611 34606 34606 34545 34507 34536 34493 34606 34578 34609 34615 34641 34585 34632 34667 34698 34718 34727 34755 34730 34828 34807 35011 34986 35183 35070 35048 35026 35210 35161 35183 35175 35210 35202 35449 35544 35578 35608 35690 35698 35894 35774 36022 36040 36192 36244 36339 36385 36458 36491 36545 36612 36651 36656 36663 36789 36717 36878 36863 36925 37017 37060 37128 37186 37122 37076 37081 37289 37147 37409 37335 37469 37484 37588 37674 37745 37813 37837 37831 37855 37796 37884 37845 37845 37831 37837 37816 37981 37929 38087 38120 38179 38224 38279 38311 38315 38293 38340 38334 38370 38398 38476 38454 38589 38487 38584 38604 38612 38574 38606 38554 38437 38295 38177 38192 38136 38133 37979 37937 37940 37947 37917 37973 37790 37704 37717 37642 37635 37585 37509 37390 37379 37304 37324 37226 37221 37195 37210 37225 37184 37331 37173 37154 37173 36927 37042 36883 36943 36855 36847 36783 36756 36710 36702 36736 36741 36616 36630 36584 36465 36456 36363 36375 36346 36367 36339 36353 36456 36330 36369 36267 36486 36275 36312 36177 36288 36181 36204 36097 36123 36093 36129 36036 35979 36222 36080 36111 36041 36045 36119 36081 36055 36100 36021 36043 36027 36061 36019 35980 36072 36123 36107 36318 36182 36152 36246 36050 36065 36085 36136 36146 36156 36147 36206 36158 36176 35989 36059 35993 35973 36044 35989 36008 36008 36065 36153 36109 36026 35958 35785 35584 35326 35156 35149 35093 35095 35156 35182 35203 35221 35290 35301 35400 35428 35451 35562 35623 35661 35749 35867 35882 35949 35936 35876 35915 35898 35860 35867 35857 35855 35895 35955 36075 36361 36421 36771 36799 37006 37117 37145 37194 37348 37264 37421 37329 37366 37255 37233 37214 37181 37131 37044 36931 36897 36905 36874 36891 36884 36867 36813 37250 37175 37323 37295 37298 37238 37370 37397 37251 37526 37502 37452 37410 37239 37043 36983 37024 37048 37041 37151 37184 37186 37299 37458 37760 38185 38458 38802 39170 39407 39457 39550 39567 39513 39341 39149 38916 38896 38935 38887 38920 38844 38959 39027 39056 39158 39260 39364 39342 39453 39399 39306 39252 39206 39213 39332 39553 39483 39697 39880 39816 39879 39881 39944 39582 39848 39751 39716 39637 39691 39649 39740 39801 39863 39879 39979 40069 40189 40274 40283 40242 40263 40221 40223 40202 40186 40184 40254 40342 40457 40583 40695 40767 40814 40775 40723 40660 40577 40554 40482 40462 40449 40403 40403 40425 40499 40549 40566 40629 40621 40540 40502 40539 40611 40689 40773 40822 40862 40904 40921 40938 40950 40996 41023 41033 41002 40985 40997 41014 41018 41037 41030 41053 41067 41071 41065 41059 41069 41140 41173 41135 41089 41060 40978 40937 40999 41097 41238 41341 41471 41580 41702 41763 41838 41862 41845 41841 41851 41908 41966 42032 42084 42155 42222 42262 42333 42357 42380 42378 42297 42251 42250 42223 42183 42141 42118 42132 42160 42194 42196 42278 42371 42435 42484 42503 42386 42116 41830 41636 41504 41393 41318 41251 41273 41335 41378 41352 41343 41344 41362 41293 41238 41137 41048 41009 40982 40933 40936 40745 40910 40845 40858 40778 40694 40561 40446 40306 40212 40182 40133 40135 40153 40166 40170 40166 40192 40232 40300 40332 40283 40236 40188 40174 40169 40179 40209 40235 40262 40288 40306 40358 40416 40414 40395 40421 40240 40147 40096 40081 40088 40097 40096 40055 39993 39968 39961 39982 40011 39985 39915 39855 39782 39714 39668 39677 39645 39626 39670 39661 39708 39744 39869 39859 39782 39721 39677 39632 39653 39667 39673 39696 39682 39670 39640 39591 39535 39427 39241 39102 38934 38866 38749 38636 38507 38360 38300 38269 38269 38279 38268 38192 38126 38055 38035 38004 37958 37962 37950 37878 37781 37590 37447 37325 37247 37148 37032 36879 36786 36683 36593 36527 36464 36423 36383 36325 36283 36202 36216 36216 36169 36095 36076 36077 36166 36175 36164 36166 36197 36319 36360 36397 36604 36539 36573 36451 36347 36285 36235 36115 36131 36259 36360 36384 36386 36361 36282 36052 35842 35838 35772 35714 35690 35581 35397 35134 34836 34648 34464 34356 34289 34245 34161 34049 33941 33882 33846 33815 33873 33955 33993 34049 34115 34135 34185 34154 34115 34021 33989 33982 33980 34014 34048 34072 34045 34048 34078 34109 34129 34112 34082 34061 34074 34120 34185 34253 34313 34416 34469 34694 34713 34910 35061 35093 35145 35275 35380 35429 35338 35322 35254 35392 35329 35423 35449 35780 35783 35919 36060 36093 36121 36313 36927 37565 38036 38245 38330 38397 38426 38408 38300 38171 37991 37929 37791 37655 37547 37518 37508 37470 37459 37436 37418 37569 37039 37760 37382 37600 37455 37422 37461 37409 37256 37511 37298 37455 37380 37345 37230 37232 37153 37163 37094 37146 37142 37151 37101 37053 36999 36903 36922 36716 36762 36623 36718 36681 36687 36787 37039 37316 37759 38025 38158 38355 38616 38902 38775 38543 38408 37744 37572 37589 37739 38014 38199 38124 37981 37849 37783 37789 37826 37868 37916 37959 38008 38075 38127 38175 38193 38164 38134 38124 38122 38127 38169 38222 38284 38339 38398 38444 38509 38531 38526 38486 38520 38534 38575 38602 38693 38794 38916 39127 39179 39479 39611 39551 39307 39134 38950 38597 38371 38202 38032 37872 37748 37666 37627 37551 37447 37308 37252 37230 37190 37099 37074 36985 36966 36925 36907 36844 36756 36679 36670 36852 36850 36757 36507 36376 36280 36275 36327 36404 36560 36577 36485 36298 36121 35966 35904 35792 35815 35779 35721 35732 35696 35648 35643 35638 35626 35496 35455 35380 35370 35336 35366 35344 35421 35308 35440 35359 35443 35451 35521 35523 35466 35663 35660 35705 35756 35715 35692 35662 35639 35658 35667 35636 35617 35579 35682 35635 35622 35603 35607 35645 35653 35743 35758 35761 35777 35780 35734 35777 35749 35731 35712 35700 35692 35677 35793 35711 35852 35796 35870 35811 35801 35779 35784 35860 35843 35885 35874 35896 35942 35955 36028 36030 36028 36032 35992 36030 36001 36076 36021 36047 36025 36123 36112 36174 36193 36224 36170 36219 36123 36138 36120 36133 36148 36133 36193 36170 36230 36209 36249 36257 36282 36147 36228 36212 36361 36180 36321 36156 36218 36159 36137 36452 37044 37156 37182 37280 37178 37116 37062 37053 37007 36933 37049 37016 37071 36972 36997 36749 36682 36513 36446 36419 36407 36405 36444 36339 36575 36386 36565 36586 36548 36567 36507 36445 36372 36292 36231 36238 36170 36185 36165 36146 36208 36211 36210 36132 36097 36012 35931 35948 35847 35784 35781 35738 35689 35714 35701 35700 35688 35693 35576 35584 35490 35558 35519 35645 35590 35599 35542 35678 35518 35833 35630 35642 35557 35458 35449 35408 35405 35331 35342 35344 35340 35537 35485 35569 35415 35537 35425 35355 35375 35379 35313 35361 35419 35388 35466 35380 35421 35395 35411 35349 35206 35207 35199 35169 35184 35174 35191 35165 35223 35182 35268 35242 35197 35255 35133 35194 35143 35125 35142 35158 35134 35153 35174 35125 35155 35110 35008 34979 34935 34848 34888 34830 34824 34849 34777 34767 34723 34807 34820 34808 34921 35045 35384 35507 36020 36312 36652 36941 37049 37119 36678 36676 36625 36537 36331 36282 36027 36136 36034 36077 36033 36288 36055 36157 36056 36097 36138 35946 35991 35883 35762 35819 35739 35720 35685 35628 35787 35706 35760 35731 35631 35580 35486 35314 35408 35361 35296 35389 35233 35305 35370 35227 35401 35230 35253 35177 34992 34957 34861 34906 34854 34977 34880 35016 34994 34940 35014 34880 34869 34877 34941 34963 34885 34985 34982 34989 35037 34996 34956 35038 35076 34947 34977 34787 34703 34903 34785 35019 34911 34853 34951 34940 34952 35052 34994 34875 34891 34826 34746 34823 34767 34842 34868 34886 34934 34963 34965 35073 34939 35173 35087 35016 34969 34964 35096 35070 35018 35181 35081 35280 35156 35298 35206 35044 35082 34940 34794 35013 35320 35908 35895 36146 36345 36379 36616 36547 36594 36567 36520 36562 36488 36611 36873 37098 37105 37267 37207 37128 37148 36894 36693 36670 36479 36601 36418 36328 36575 36222 36457 36435 36217 36332 36197 35983 35959 35888 35825 35761 35866 35749 35742 35760 35733 35779 35598 35687 35506 35381 35466 35343 35249 35458 35263 35338 35364 35377 35282 35379 35596 35208 35249 35242 35236 35070 35129 35229 35266 35303 35221 35281 35354 35513 35337 35366 35361 35321 35320 35185 35465 35388 35595 35749 35856 36045 36189 36571 36938 37184 37228 37209 36789 36319 36319 36381 36455 36527 36557 36353 36322 36261 36184 36107 36051 36001 35982 35930 35926 35934 35966 36033 36051 36068 36100 36136 36175 36314 36517 36613 36617 36635 36643 36639 36609 36658 36666 36691 36734 36720 36834 36823 36981 36814 36503 36401 36330 36304 36221 36160 36118 36020 36016 35985 35934 35879 35863 35869 35866 35884 35900 35981 36025 36146 36224 36310 36256 36440 36286 36320 36151 36088 36041 36022 35999 35976 35960 35973 35984 36006 35997 35937 35872 35852 35845 35858 35853 35889 36019 36168 36326 36530 36882 37129 37424 37344 37665 37732 37522 37511 37559 37563 37357 37294 37161 37355 37558 37760 37748 37760 37758 37701 37647 37636 37668 37752 37830 37884 38004 38121 38199 38350 38534 38660 38766 38827 38881 38908 38772 38423 38225 38136 37896 37739 37633 37609 37550 37490 37441 37383 37337 37270 37190 37087 37045 37012 36966 36936 36891 36872 36777 36626 36461 36365 36261 36200 36206 36278 36367 36425 36461 36455 36515 36652 36887 36775 36686 36535 36350 36172 36050 35967 35895 35833 35792 35769 35758 35732 35580 35416 35287 35209 35147 35118 35085 35028 34973 34940 34909 34926 34903 34930 34884 34820 34681 34586 34602 34742 34859 35026 35257 35510 35647 35610 35499 35553 35622 35868 36150 36412 36657 36764 36619 36563 36437 36359 36142 36012 35886 35759 35607 35636 35513 35618 35553 35985 35670 35700 35632 35718 35502 35452 35377 35409 35365 35307 35251 35199 35180 35152 35158 35147 35143 35094 35057 35044 35065 34981 35054 34971 34944 34973 34929 34994 34968 35007 34933 35081 35032 35083 35152 35205 35203 35299 35307 35255 35174 35118 35083 35038 35081 35048 35070 35017 35008 34987 34919 34904 34817 34830 34804 34834 34793 34839 34805 34863 34867 34868 34882 34837 34801 34691 34728 34738 34752 34766 34743 34745 34713 34940 34933 35320 35195 35192 35109 35153 35157 35158 35117 35167 35174 35204 35267 35274 35351 35377 35343 35415 35395 35356 35349 35368 35676 36420 36948 37134 37199 37093 36976 36769 36664 36654 36727 36888 37042 36956 36857 36974 37326 37665 37849 38035 38268 38476 38708 38901 39054 39147 39297 39414 39594 39739 39862 39983 40107 40210 40164 40164 40170 40139 40169 40161 40196 40272 40565 40836 41007 41085 41190 41314 41485 41570 41565 41645 41671 41581 41540 41534 41384 41365 41343 41351 41390 41497 41735 41774 41688 41679 41779 41865 41908 41812 41736 41814 41935 41981 41378 41127 40879 40757 40636 40441 40433 40356 40340 40130 39921 39893 39788 39614 39387 39285 39147 39108 39077 39105 39179 39160 39016 38919 38784 38736 38593 38469 38388 38294 38232 38299 38213 38321 38235 38144 37997 37862 37759 37663 37690 37635 37419 37159 36899 36676 36601 36538 36558 36525 36477 36653 36686 36915 36924 36980 37098 37260 37494 37771 37991 38228 38442 38614 38736 38812 38821 38825 38922 39184 39530 39848 40057 40268 40444 40570 40637 40678 40777 40858 40760 40545 40291 40119 40130 40138 40282 40372 40422 40306 40462 40812 40920 40988 41068 41096 41113 41147 41231 41470 41558 41664 41759 41858 41968 42057 42195 42289 42403 42589 42780 42953 43039 43088 43048 42700 41931 41856 41713 41650 41587 41527 41593 41629 41596 41558 41448 41108 40774 40795 40598 40564 40611 40655 40654 40629 40724 40723 40725 40706 40606 40512 40439 40327 40282 40190 40130 40084 40046 40186 40274 40266 40278 40391 40376 40278 40170 40013 39803 39637 39505 39341 39231 39182 39156 39184 39393 39442 39368 39251 39027 38823 38656 38527 38465 38408 38409 38420 38386 38401 38480 38518 38517 38494 38414 38267 38125 37961 37879 37730 37623 37550 37451 37373 37306 37238 37163 37119 37048 36883 36783 36678 36649 36641 36677 36749 36809 36906 37058 37080 37041 36996 36986 36882 36724 36642 36524 36449 36433 36415 36441 36482 36430 36492 36525 36599 36615 36581 36498 36472 36374 36423 36350 36332 36360 36340 36306 36397 36366 36401 36350 36366 36340 36314 36308 36246 36228 36200 36207 36189 36227 36247 36275 36301 36319 36464 36536 36664 36727 36796 36966 37070 37165 37218 37183 37168 37270 37223 37300 37219 37116 37051 36960 36915 36847 36917 36829 36836 36817 36837 36832 36869 36929 36931 36850 36782 36709 36685 36651 36573 36620 36577 36557 36549 36549 36605 36669 36667 36646 36542 36461 36418 36421 36376 36320 36333 36321 36364 36342 36356 36398 36389 36369 36306 36247 36215 36165 36181 36210 36266 36280 36272 36261 36304 36317 36373 36453 36456 36564 36662 36695 36735 36660 36657 36654 36613 36581 36571 36531 36527 36462 36403 36334 36361 36364 36379 36392 36524 36546 36726 37160 37434 37733 37861 38073 38111 38313 38331 38360 38446 38435 38480 38554 38509 38623 38637 38665 38585 38497 38396 38169 37937 37839 37716 37584 37501 37471 37378 37404 37401 37396 37390 37327 37193 37175 37025 37035 36977 37000 36947 36953 36958 36907 36876 36864 37016 37120 37331 37357 37369 37483 37121 37394 37577 37451 37676 37869 37893 37944 37934 38059 37991 37917 37976 37935 37942 37910 37881 37917 37879 37875 37939 37901 37921 37939 37834 37854 37671 37490 37612 37400 37380 37345 37399 37399 37448 37425 37356 37413 37371 37279 37236 37072 37049 36928 36875 36877 36839 36773 36722 36817 36914 36787 36933 36852 36780 36711 36659 36583 36552 36560 36451 36510 36480 36462 36451 36376 36355 36368 36290 36194 36073 36014 35931 35874 35850 35845 35819 35841 35819 35899 35852 35923 35909 35989 35846 35926 35830 35897 35897 35945 35888 35866 35905 35891 35887 35936 35969 36008 36029 35943 35953 35908 35916 35918 35932 35954 36007 35975 35990 35996 36014 35984 36037 36058 36037 35987 36018 35931 35991 35990 36023 36103 36079 36077 36192 36125 36153 36166 36157 36166 36157 36032 35978 35946 35849 35851 35866 35815 35856 35872 35777 35809 35807 35823 35859 35820 35724 35697 35649 35606 35568 35554 35495 35595 35498 35629 35660 35777 36045 36208 36495 36676 36886 36963 37158 37326 37472 37441 37394 37286 37320 37318 37361 37402 37436 37365 37382 37268 37127 37069 37088 37482 37606 37723 37856 37991 38136 38229 38348 38433 38526 38615 38759 38839 38999 39133 39284 39365 39435 39557 39596 39650 39669 39633 39683 39803 39940 40045 40048 40109 40018 40012 39881 39872 39782 39740 39556 39400 39305 39295 39308 39406 39580 39651 39672 39682 39700 39694 39664 39649 39564 39566 39493 39478 39493 39467 39409 39354 39190 39104 38922 38903 38828 38751 38688 38555 38665 38531 38550 38488 38429 38310 38143 37990 37877 37771 37694 37584 37612 37514 37536 37492 37433 37464 37384 37379 37305 37234 37144 37101 37001 37000 36887 36855 36805 36833 36851 36807 36893 36791 36742 36579 36517 36385 36376 36309 36328 36308 36248 36208 36204 36212 36382 36511 36578 36615 36686 36720 36761 36736 36724 36616 36547 36515 36530 36505 36501 36514 36388 36323 36236 36173 36202 36119 36156 36128 36127 36100 36083 36075 36139 36099 36098 35986 35950 35895 35869 35822 35814 35796 35789 35811 35807 35792 35869 35856 35849 35836 35746 35695 35628 35568 35578 35601 35635 35613 35673 35704 35730 35787 35761 35754 35682 35686 35665 35642 35601 35617 35585 35571 35554 35637 35669 35655 35681 35586 35531 35557 35488 35537 35565 35542 35601 35573 35680 35720 35771 35812 35882 35902 35881 35883 35820 35891 35904 35988 36120 36319 36561 36775 37168 37543 37951 38164 38328 38465 38643 38738 38798 38702 38547 38433 38356 38321 38340 38392 38461 38573 38582 38684 38688 38707 38744 38795 38929 39050 39189 39280 39302 39358 39456 39479 39565 39542 39524 39646 39727 40086 39984 39918 40185 40450 40744 41137 41307 41430 41530 41582 41633 41600 41667 41642 41557 41401 41179 41097 41114 41100 41217 41314 41363 41285 41241 41131 40960 40854 40735 40765 40793 40999 41114 41127 41118 41102 41163 41169 41176 41178 41152 41198 41266 41405 41520 41610 41633 41572 41472 41411 41335 41254 41123 41038 40930 40802 40548 40270 40055 40069 40084 40206 40281 40326 40389 40411 40429 40403 40407 40357 40306 40141 40090 39967 39863 39789 39736 39643 39589 39572 39549 39497 39485 39504 39548 39535 39419 39317 39159 38989 38824 38795 38690 38580 38464 38352 38247 38165 38120 38119 38063 38009 37849 37659 37552 37415 37378 37298 37283 37254 37239 37283 37307 37301 37374 37409 37444 37409 37360 37248 37239 37225 37244 37286 37400 37511 37580 37625 37733 37800 37827 37832 37792 37746 37767 37758 37805 37856 38067 38317 38567 38770 38932 39109 39333 39517 39670 39798 39836 39891 39886 39917 39886 39872 39776 39729 39738 39647 39675 39663 39688 39714 39734 39812 39875 39878 39885 39920 39924 39976 40016 40047 40081 40126 40164 40347 40540 40672 40755 40826 40758 40743 40733 40692 40728 40817 41053 41165 41110 41203 41064 41086 41050 41228 41202 41229 41307 41389 41498 41534 41526 41465 41226 41364 41418 41546 41522 41500 41591 41624 41638 41600 41469 41357 41318 41206 41111 41117 40982 40956 40974 41000 41027 41083 41222 41095 41092 40975 40946 40897 40831 40732 40710 40643 40479 40629 40591 40584 40609 40599 40513 40460 40466 40469 40673 40887 41199 41289 41345 41354 41190 40995 40864 40741 40698 40641 40560 40421 40276 40130 40036 39959 39885 39872 39776 39687 39659 39563 39526 39490 39463 39317 39233 39107 39021 38929 38863 38848 38814 38757 38748 38743 38723 38674 38675 38659 38598 38471 38354 38303 38263 38191 38167 38131 38108 38045 38016 37965 37931 37877 37874 37808 37727 37616 37536 37486 37449 37411 37411 37388 37364 37313 37312 37260 37270 37220 37397 37422 37461 37475 37454 37403 37366 37346 37353 37398 37423 37491 37492 37513 37579 37582 37635 37600 37530 37489 37430 37445 37449 37477 37485 37486 37488 37469 37514 37520 37533 37629 37589 37665 37591 37641 37578 37569 37580 37638 37621 37603 37615 37608 37635 37649 37653 37676 37687 37709 37658 37677 37615 37751 37807 37887 37983 37996 38050 38011 38073 38130 38201 38244 38353 38393 38469 38519 38588 38650 38669 38739 38829 38865 38929 39034 39190 39510 39890 40238 40358 40400 40366 40333 40314 40176 40042 40078 40164 40154 40215 40162 40179 40185 40212 40206 40166 40195 40085 40006 39890 39759 39760 39685 39679 39635 39632 39522 39519 39452 39450 39411 39420 39378 39340 39202 39076 38925 38824 38761 38699 38652 38632 38603 38592 38541 38479 38482 38462 38472 38444 38374 38267 38155 38049 37996 37948 37950 37958 37937 37926 37897 37854 37847 37844 37835 37830 37827 37766 37653 37615 37548 37486 37463 37506 37376 37554 37516 37668 37655 37657 37635 37668 37595 37660 37552 37438 37364 37352 37317 37336 37334 37371 37448 37484 37529 37667 37633 37751 37823 37829 37826 37728 37712 37693 37714 37620 37705 38136 38642 38971 39108 39092 39028 38881 38742 38792 38691 38592 38448 38376 38266 38176 38152 38084 38095 38103 38043 38046 38031 38165 38185 38346 38483 38616 38634 38646 38593 38519 38510 38541 38487 38495 38477 38481 38461 38407 38476 38384 38411 38439 38456 38437 38400 38334 38308 38303 38285 38272 38175 38183 38156 38098 38224 38238 38324 38346 38412 38288 38275 38224 38239 38209 38206 38159 38101 38028 37971 37894 37862 37825 37768 37797 37683 37641 37471 37582 37399 37415 37329 37389 37329 37402 37281 37364 37280 37313 37234 37308 37228 37234 37117 37088 37030 37033 36975 36995 36897 36904 36830 36849 36754 36750 36682 36725 36617 36569 36428 36324 36277 36196 36198 36123 36188 36087 36154 36059 36263 36283 36258 36188 36208 36141 36116 36090 36131 36083 36039 36008 35941 35906 35922 35846 35844 35772 35635 35572 35464 35489 35517 35515 35633 35618 35684 35657 35679 35665 35833 35828 35880 35822 35775 35727 35660 35660 35698 35696 35715 35697 35772 35773 35876 35879 35924 35847 35830 35769 35780 35750 35716 35743 35725 35706 35735 35718 35766 35731 35777 35776 35757 35736 35713 35721 35770 35777 35822 35931 35884 36108 36021 36410 36308 36470 36486 36402 36371 36351 36337 36321 36344 36310 36405 36423 36455 36496 36533 36558 36663 36436 36721 36594 36895 36650 36926 36844 37098 37166 37279 37196 37471 37395 37469 37538 37507 37460 37416 37358 37377 37366 37377 37345 37381 37375 37394 37530 37497 37481 37557 37577 37555 37475 37445 37235 37179 37088 37081 36997 36994 36939 36944 36941 36964 36964 37013 36991 37038 36919 36894 36868 36862 36851 36901 36965 36885 37248 37149 37127 37178 37227 37230 37230 37183 37118 37005 37065 37156 37173 37109 37222 37217 37335 37301 37386 37351 37427 37405 37416 37556 37478 37516 37469 37418 37399 37460 37509 37458 37672 37593 37593 37577 37641 37626 37623 37576 37510 37444 37402 37387 37433 37407 37435 37419 37385 37392 37425 37353 37349 37343 37323 37256 37232 37183 37151 37156 37117 37172 37103 37183 37190 37183 37201 37216 37216 37286 37235 37361 37301 37221 37187 37160 37144 37178 37173 37159 37165 37185 37224 37148 37265 37368 37342 37371 37179 37271 37203 37221 37202 37277 37147 37169 37148 37044 37201 37400 37498 37468 37410 37354 37268 37098 37099 37059 37014 37077 37074 37089 37059 37108 37085 37041 37044 37025 36971 36912 36885 36775 36787 36739 36791 36804 36835 36822 36788 36802 36781 36878 36853 36839 36765 36715 36561 36526 36509 36467 36473 36523 36425 36502 36466 36489 36452 36394 36434 36340 36321 36344 36349 36348 36337 36349 36334 36312 36337 36376 36341 36340 36329 36317 36230 36216 36189 36191 36160 36091 36132 36110 36145 36192 36221 36221 36272 36270 36214 36219 36199 36179 36184 36158 36153 36207 36201 36229 36238 36232 36281 36316 36230 36204 36171 36146 36127 36167 36185 36250 36269 36343 36387 36421 36499 36489 36510 36431 36449 36419 36447 36434 36486 36474 36548 36620 36636 36747 36756 36832 36774 36777 36771 36724 36740 36791 36807 36860 36874 36887 36858 36880 36863 36793 36872 36847 36779 36747 36721 36726 36719 36773 36749 36754 36712 36692 36693 36697 36662 36702 36632 36569 36578 36528 36533 36571 36581 36574 36553 36570 36594 36525 36589 36605 36635 36595 36561 36532 36609 36589 36617 36594 36668 36642 36653 36743 36803 36831 36905 36834 36889 36769 36820 36785 36794 36824 36835 36880 36900 36968 37021 36967 37023 37000 37030 36914 36916 36829 36888 36853 36853 36947 36879 36921 36938 36967 36896 36977 36908 36994 36874 36935 36852 36867 36850 36924 36923 36890 36963 36947 36975 37050 37026 37306 37213 37303 37238 37208 37231 37230 37266 37283 37303 37341 37358 37370 37395 37423 37452 37393 37308 37330 37328 37327 37285 37329 37415 37404 37435 37406 37528 37501 37524 37463 37433 37306 37177 37135 37124 37110 37096 37212 37327 37401 37322 37442 37482 37498 37447 37547 37467 37480 37408 37547 37675 37701 37648 37660 37680 37663 37591 37740 37723 37766 37702 37652 37598 37432 37461 37364 37432 37394 37457 37379 37405 37422 37481 37470 37478 37465 37361 37290 37181 37188 37187 37188 37114 37123 37116 37132 37118 37174 37230 37165 37189 37136 37079 36926 36909 36888 36851 36845 36909 36873 36891 36855 36847 36879 36888 36961 36999 37031 37011 36981 36982 36939 36927 36909 36878 36867 36845 36739 36704 36664 36775 36889 36770 36765 36784 36782 36786 36878 36809 36902 36976 36983 37115 37174 37204 37330 37268 37228 37229 37163 37337 37247 37315 37259 37548 37484 37597 37601 37763 37549 37969 37671 38066 37799 38156 37989 38186 38020 38380 38195 38501 38399 38384 38545 38570 38705 38725 38761 38729 38753 38867 39229 39653 40110 40382 40768 40937 41087 41137 41039 40886 40632 40366 40194 40024 39888 39909 39890 39968 39744 39710 39603 39562 39581 39503 39461 39391 39309 39236 39300 39192 39374 39399 39301 39304 39153 39005 38942 38846 38721 38693 38600 38480 38390 38404 38182 38304 38188 38233 38019 38073 38171 38099 38255 38220 38334 38307 38179 38177 38175 37935 38110 37984 37904 38015 37860 37937 37895 37959 37932 37949 37918 37917 37985 37830 37768 37604 37607 37487 37618 37718 37743 37714 37652 37610 37621 37657 37685 37729 37669 37612 37568 37489 37497 37470 37461 37457 37403 37418 37422 37395 37472 37427 37422 37433 37333 37316 37327 37244 37256 37366 37309 37426 37359 37386 37433 37402 37411 37427 37430 37369 37323 37265 37225 37278 37185 37285 37283 37337 37344 37429 37452 37521 37557 37608 37613 37598 37520 37585 37700 37940 38175 38288 38408 38674 38983 39365 39750 39945 40178 40433 40694 40954 41143 41238 41221 41246 41242 41261 41205 41113 40965 41008 40951 40993 40999 41033 40916 40989 41019 40988 40880 40686 40544 40504 40527 40399 40247 40161 40100 40177 39971 40133 40032 39971 39926 39837 39795 39774 39731 39663 39599 39596 39537 39515 39431 39464 39447 39423 39382 39277 39163 39037 38929 38928 38863 38809 38857 38858 38822 38815 38768 38601 38673 38618 38645 38580 38500 38387 38285 38253 38195 38125 38151 38066 38029 37983 37951 37932 37896 37873 37777 37713 37619 37515 37514 37464 37420 37408 37435 37296 37384 37359 37368 37350 37354 37349 37340 37222 37087 37023 36927 36907 36844 36778 36755 36758 36723 36729 36711 36670 36708 36669 36617 36596 36489 36369 36262 36195 36108 36087 36021 35984 35935 35927 35863 35849 35816 35818 35796 35755 35687 35594 35554 35535 35498 35487 35470 35449 35462 35456 35527 35579 35743 35960 36128 36226 36351 36502 36596 36665 36731 36832 36946 37029 37094 37111 37091 37109 37168 37304 37447 37510 37548 37561 37465 37436 37373 37358 37348 37316 37298 37260 37255 37247 37228 37249 37332 37569 37705 37749 37754 37717 37729 37710 37780 37849 37957 38095 38178 38240 38285 38337 38366 38378 38432 38450 38468 38451 38440 38483 38496 38532 38569 38599 38610 38636 38646 38677 38707 38735 38743 38757 38727 38666 38664 38613 38583 38585 38569 38607 38574 38580 38550 38542 38509 38511 38525 38501 38446 38380 38265 38201 38142 38298 38573 38748 38852 38892 38987 39065 39156 39200 39186 39176 39244 39248 39061 38908 38830 38807 38778 38704 38661 38583 38515 38497 38429 38422 38348 38332 38261 38241 38135 37992 37841 37744 37608 37585 37547 37574 37701 38229 38641 38798 38904 39025 38943 38711 38518 38273 38009 37770 37618 37447 37277 37196 37068 37034 36995 37009 37163 37297 37418 37393 37243 37057 36872 36740 36563 36473 36457 36760 36977 37083 36933 36990 37016 36817 36768 36622 36486 36300 36201 36096 35965 35957 35830 35844 35815 35814 35810 35788 35685 35733 35588 35737 35622 35567 35445 35327 35202 35099 34960 34966 34870 34964 35012 34955 35026 35001 35036 34996 34971 34875 34801 34699 34646 34666 34668 34671 34648 34671 34666 34714 34673 34808 34829 34925 34901 34856 34786 34762 34711 34643 34597 34604 34594 34545 34824 34824 34888 34878 34864 34927 34956 34938 34917 34855 34806 34750 34723 34758 34767 34753 34884 34920 34967 35007 35011 35029 35024 35010 34951 34917 34916 34964 35005 35057 35187 35273 35346 35546 35604 35722 35782 35791 35812 35844 35840 35813 35795 35871 35886 35949 35985 36040 36084 36110 36114 36132 36147 36166 36170 36271 36301 36285 36244 36280 36270 36161 36164 36141 36131 36174 36206 36266 36301 36288 36232 36300 36285 36312 36192 36245 36152 36137 36091 36079 36065 36131 36118 36177 36160 36254 36219 36263 36250 36241 36406 36405 36499 36408 36375 36364 36359 36403 36422 36374 36320 36268 36274 36238 36261 36290 36325 36349 36222 36282 36266 36257 36207 36259 36303 36330 36398 36372 36377 36424 36450 36451 36459 36397 36430 36340 36293 36206 36207 36120 36128 36167 36124 36146 36087 36126 36135 36088 36144 36150 36142 36118 36027 35994 35952 35906 35868 35883 35864 35868 35959 35885 36087 36041 36127 36137 36120 36083 36019 35943 35868 35851 35780 35870 35859 35887 35918 35957 35947 36024 36084 36108 36144 36143 36155 36042 36044 36022 35998 36017 35978 35937 35916 35854 35860 35828 35808 35763 35758 35678 35558 35488 35433 35382 35375 35344 35313 35267 35256 35237 35203 35233 35192 35225 35253 35212 35157 35104 35075 34985 34992 35000 34972 34939 34964 34923 34899 34892 34888 34879 34888 34826 34767 34714 34661 34610 34539 34527 34370 34570 34577 34607 34617 34673 34707 35006 34983 35016 35207 35426 35581 35688 35737 35740 35610 35465 35486 35436 35551 35552 35595 35595 35798 35698 35803 35744 35739 35749 35699 35622 35562 35503 35509 35477 35597 35568 35680 36008 36238 36268 36221 36236 36389 36453 36450 36511 36514 36524 36636 36610 36707 36707 36816 36896 36823 36912 36872 36775 36719 36644 36675 36624 36693 36734 36715 36758 36731 36788 36770 36806 36802 36789 36793 36720 36674 36661 36640 36746 36739 36857 36853 36797 36727 36691 36641 36616 36611 36601 36584 36572 36488 36469 36386 36339 36302 36306 36283 36283 36261 36264 36239 36232 36269 36307 36339 36305 36203 36153 36170 36043 36022 36056 36025 36048 36150 36167 36295 36536 36651 36792 36988 37198 37197 37083 36944 37112 37230 37224 37169 37387 37398 37375 37392 37483 37408 37583 37652 37723 37828 37772 37688 37642 37622 37501 37465 37582 37393 37600 37471 37658 37701 37647 37827 37758 37794 37687 37551 37575 37495 37504 37392 37451 37423 37455 37506 37492 37557 37557 37545 37579 37517 37538 37343 37385 37332 37311 37454 37380 37496 37482 37392 37435 37532 37513 37619 37696 37791 37625 37548 37477 37394 37379 37285 37352 37240 37252 37328 37269 37501 37408 37464 37422 37362 37265 37191 37172 37116 37254 37178 37179 37293 37106 37419 37208 37411 37305 37303 37327 37253 37119 37254 37054 37381 37276 37326 37344 37299 37328 37233 37325 37263 37312 37346 37296 37193 37092 37118 37025 37013 37095 36982 37128 36914 37163 37074 37169 37129 37157 37189 37123 37218 37064 37206 37113 37116 37089 37151 37102 37138 37168 37213 37246 37250 37251 37274 37245 37176 37070 37005 36979 36921 36905 36889 36843 36815 36773 36787 36747 36761 36674 36686 36556 36550 36509 36660 36735 36782 36824 36770 36886 36781 36672 36575 36465 36550 36534 36524 36343 36251 36161 36116 36144 36126 36167 36152 36117 36093 36144 36105 36149 36157 36184 36066 36042 35954 35943 35924 35872 35890 35820 35869 35843 35822 35847 35838 35845 35844 35851 35853 35739 35669 35631 35579 35571 35523 35553 35527 35555 35481 35549 35531 35550 35516 35522 35456 35435 35417 35577 35508 35610 35564 35579 35544 35596 35604 35581 35581 35617 35730 35695 35680 35589 35479 35517 35469 35496 35537 35533 35585 35658 35696 35751 35783 35790 35847 35869 35859 35781 35702 36080 36178 36195 36393 36325 36646 36506 36844 36756 36912 36868 36950 36877 36837 36722 36693 36679 36579 36700 36654 36568 36790 36651 36826 36760 36808 36826 36876 36867 36795 36717 36661 36635 36595 36596 36583 36623 36622 36581 36594 36584 36576 36617 36648 36610 36519 36419 36380 36340 36283 36261 36289 36280 36364 36335 36318 36460 36402 36498 36553 36502 36569 36488 36437 36662 36619 36632 36569 36642 37044 36884 37161 36985 37377 37398 37481 37262 37440 37430 37360 37468 37465 37534 37395 37576 37472 37611 37562 37577 37524 37584 37523 37497 37395 37318 37247 37235 37193 37194 37267 37187 37235 37233 37265 37289 37249 37290 37234 37185 37130 37075 37048 36963 37008 36971 36973 36981 36991 37004 37037 37015 37064 36969 37074 36911 37065 36870 36953 36955 36884 36910 36834 37165 36981 37222 37286 37423 37230 37520 37605 37455 37290 37387 37406 37387 37287 37506 37392 37495 37462 37524 37568 37441 37528 37467 37484 37458 37325 37280 37273 37100 37322 37248 37312 37249 37334 37296 37353 37409 37357 37404 37448 37462 37485 37746 38453 39238 39630 39962 40033 40289 40372 40535 40680 40770 40878 41046 41272 41300 41497 41395 41487 41344 41485 41313 41429 41175 41163 41235 41326 41201 41488 41209 41027 40923 40786 40668 40721 40691 40626 40585 40551 40500 40502 40597 40626 40819 40952 41131 41178 41141 41110 41061 41016 40979 40933 40869 40755 40791 40744 40735 40678 40703 40678 40631 40510 40389 40216 40105 39905 39842 39709 39654 39569 39489 39492 39405 39418 39273 39303 39200 38988 38821 38705 38656 38513 38474 38374 38284 38211 38242 38215 38206 38163 38109 37968 37841 37759 37667 37549 37534 37476 37518 37445 37381 37433 37403 37518 37476 37486 37452 37346 37251 37156 37092 37070 37028 37107 37026 37097 37047 37055 37082 36967 36982 36954 36801 36754 36614 36598 36508 36525 36529 36517 36526 36581 36645 36773 37015 37178 37500 37674 38373 38355 38429 38613 39026 39266 39442 39461 39244 39035 38935 38968 38952 39006 38937 38972 38975 38942 38980 38979 38993 39056 38968 39014 38992 39039 39067 39060 39092 39036 38990 38931 38880 38834 38733 38766 38760 38693 38706 38668 38665 38642 38636 38616 38712 38563 38681 38440 38645 38495 38626 38660 38799 38997 39290 39697 39979 40212 40172 40236 40128 39977 39956 39855 39729 39591 39518 39424 39398 39326 39421 39531 39623 39752 40055 40186 40313 40692 40524 40627 40502 40472 40341 40352 40220 40106 39972 39998 40022 39869 39941 39872 39876 39792 39628 39526 39537 39645 39776 39933 39988 40010 40046 40042 40104 40164 40184 40225 40215 40087 39906 39812 39814 39767 39715 39679 39617 39542 39487 39466 39542 39507 39724 39764 39799 39764 39542 39480 39368 39279 39278 39232 39211 39125 39084 39042 39028 39169 39128 39043 38942 38806 38725 38640 38541 38454 38387 38262 38230 38105 38056 37979 38065 38247 38466 38624 38737 38826 38740 38728 38562 38445 38249 38227 38102 38005 37913 37837 37711 37652 37591 37511 37441 37346 37326 37224 37118 36987 36850 36770 36648 36547 36543 36469 36410 36372 36363 36327 36308 36276 36240 36227 36219 36150 36025 35936 35861 35885 35853 35882 35883 35818 35813 35787 35796 35748 35784 35747 35746 35764 35713 35700 35607 35489 35520 35494 35410 35478 35482 35452 35489 35451 35478 35447 35490 35487 35478 35470 35453 35481 35518 35533 35559 35543 35636 35667 35918 36073 36260 36416 36571 36732 36877 36989 37136 37140 37179 37192 37197 37220 37231 37179 37128 37016 37009 36900 36947 36926 36932 36893 36824 36843 36731 36663 36578 36474 36401 36361 36308 36267 36240 36190 36151 36117 36101 36064 36063 36110 36119 36104 36013 35946 35878 35803 35696 35756 35706 35729 35690 35662 35624 35656 35635 35631 35623 35598 35607 35481 35399 35365 35298 35229 35187 35163 35139 35111 35066 35040 35028 35054 35086 35121 35122 35087 34999 34951 34887 34848 34813 35068 35543 36353 36854 37354 37686 38056 38381 38661 38845 38977 39050 39061 39127 39094 39109 39182 39231 39265 39372 39409 39442 39448 39567 39582 39772 39812 39830 39789 39925 39963 39963 40026 40075 40157 40264 40374 40421 40480 40239 40012 40063 40222 40280 40185 40166 40056 39958 39810 39758 39666 39547 39435 39273 39133 39045 38916 38854 38778 38662 38494 38318 38216 38018 38124 38036 38047 37999 37964 37864 37877 37824 37832 37755 37734 37708 37582 37377 37252 37049 36871 36812 36690 36702 36617 36602 36583 36629 36672 36682 36799 37028 37241 37422 37477 37551 37621 37696 37833 37951 38199 38496 38754 38992 39154 39129 39026 38953 38876 38811 38741 38584 38398 38256 38099 38022 37912 37892 37978 38030 38095 38073 38201 38187 38253 38305 38359 38426 38470 38466 38452 38420 38419 38423 38467 38477 38493 38552 38549 38575 38634 38647 38648 38695 38676 38749 38735 38698 38728 38760 38783 38778 38785 38787 38764 38800 38807 38790 38834 38853 38854 38876 38891 38849 38765 38709 38577 38508 38479 38439 38429 38446 38421 38420 38468 38492 38476 38521 38555 38548 38604 38512 38440 38370 38289 38154 38311 38136 38391 38187 38297 38164 38143 38106 38099 38204 38256 38285 38435 38416 38350 38270 38228 38165 38124 38172 38049 38119 38162 38211 38254 38264 38237 38293 38297 38336 38278 38177 38059 37905 37805 37641 37609 37529 37394 37330 37272 37187 36989 37113 36880 37088 37048 36954 36819 36683 36553 36474 36392 36391 36329 36330 36293 36187 36023 36097 35908 36087 35967 36020 35983 35826 35674 35627 35460 35452 35366 35335 35389 35339 35363 35295 35360 35262 35409 35284 35524 35495 35565 35526 35383 35323 35321 35236 35253 35237 35275 35228 35170 35326 35200 35388 35384 35431 35456 35431 35457 35479 35441 35363 35347 35338 35352 35273 35470 35498 35496 35497 35469 35597 35582 35550 35931 35831 35794 35756 35675 35588 35725 35686 35812 35713 35793 35717 35691 35695 35615 35599 35664 35681 35759 35639 35624 35601 35471 35492 35512 35508 35530 35581 35575 35655 35640 35660 35648 35671 35690 35798 35828 35872 35734 35801 35794 35716 35688 35685 35675 35553 35669 35651 35609 35685 35619 35628 35621 35633 35600 35550 35514 35457 35392 35342 35299 35279 35226 35172 35204 35184 35178 35182 35101 35153 35118 35029 34982 34870 35002 34932 35039 34983 35110 35064 35094 35083 35102 35113 35103 35190 35208 35361 35326 35228 35261 35201 35230 35283 35358 35385 35355 35406 35526 35735 36010 36267 36447 36433 36411 36380 36249 36042 35855 35671 35532 35437 35349 35227 35152 35040 34953 34927 35108 35063 35019 35014 34952 34981 34892 34797 34772 34692 34613 34595 34633 34707 34624 34644 34622 34596 34691 34643 34770 34715 34645 34753 34641 34755 34671 34636 34559 34597 34563 34556 34583 34676 34603 34723 34644 34825 34750 34648 34578 34595 34634 34593 34636 34602 34628 34497 34922 35121 35695 35999 36239 36190 36197 36151 36034 35855 35789 35665 35540 35539 35443 35507 35425 35411 35344 35325 35352 35297 35331 35286 35314 35235 35293 35234 35141 35066 34945 34988 34930 34945 34903 34996 34992 35047 35054 34998 35042 35017 34979 34994 34967 35074 35056 35039 34995 34965 34952 34881 34870 34824 34822 34787 34736 35028 35036 35085 35072 35146 35156 35278 35305 35328 35360 35352 35312 35291 35261 35282 35292 35285 35255 35244 35226 35183 35178 35203 35178 35209 35188 35198 35122 35076 35013 34916 34938 34904 34864 34829 34785 34834 34836 34803 34813 34812 34796 34722 34628 34557 34487 34396 34364 34347 34316 34308 34260 34274 34278 34263 34219 34240 34209 34233 34239 34293 34298 34281 34200 34104 34080 34031 33986 33951 33908 33838 33782 33717 33706 33659 33660 33631 33716 33692 33692 33688 33644 33584 33509 33433 33407 33388 33320 33451 33436 33431 33420 33411 33397 33548 33661 33823 33960 33832 33801 33635 33644 33611 33658 33599 33601 33574 33563 33579 33580 33523 33653 33656 33713 33670 33732 33673 33612 33582 33547 33567 33541 33601 33597 33634 33617 33656 33631 33698 33701 33703 33744 33763 33769 33788 33910 33878 33925 33898 34020 34007 34114 34137 34205 34226 34190 34123 33994 33933 33878 33859 33867 33820 33853 33706 33662 33610 33514 33551 33572 33566 33674 33671 33801 33768 33865 33849 33932 33892 33907 33888 33893 33854 33874 33854 33830 33865 33840 33774 33919 33916 34076 34147 34179 34195 34201 34236 34224 34288 34306 34288 34274 34172 34108 34071 34032 34033 34022 34034 34053 34061 34085 34131 34156 34189 34224 34257 34320 34312 34368 34392 34363 34330 34256 34216 34126 34108 34102 34075 34072 34035 34153 34093 34169 34162 34191 34226 34278 34284 34258 34187 34135 34086 34083 34073 34114 34071 34105 34109 34059 34054 34014 34026 33980 33992 33968 34039 34036 34010 33951 33909 33854 33833 33858 33880 33876 33885 33826 33856 33843 33874 33866 33884 33901 33896 33916 34065 33978 33960 33933 33885 33847 33834 33879 33951 33940 34012 34037 34001 34083 34102 34133 34132 34110 34193 34167 34131 34133 34100 34103 34100 34113 34108 34130 34132 34085 34079 34065 34068 34082 34079 34116 34257 34485 34817 35186 35578 35891 36160 36372 36559 36712 36880 37063 37361 37691 38078 38472 38653 38794 39103 39400 39470 39346 39245 39151 39064 39050 39008 39009 38968 38951 38974 38957 39039 39044 39107 39211 39341 39603 39741 39690 39651 39582 39673 39687 39855 40007 40197 40355 40533 40590 40521 40461 40299 40285 40227 40244 40149 40023 39907 39744 39610 39456 39444 39612 39823 40079 40227 40403 40422 40235 40083 39934 39850 39720 39552 39368 39206 39041 38890 38770 38671 38542 38470 38372 38304 38263 38204 38133 38109 38110 38165 38071 37949 37801 37677 37570 37381 37237 37214 37151 37100 36975 36878 36754 36608 36543 36437 36381 36308 36220 36106 36039 35981 35892 35816 35831 35643 35740 35689 35630 35587 35564 35515 35490 35459 35401 35353 35253 35124 35036 34957 34931 34896 34932 34932 34986 35010 35025 35067 35070 35018 35023 34985 34991 34915 34963 34852 34749 34721 34653 34644 34633 34633 34667 34628 34661 34696 34734 34797 34806 34807 34835 34822 34851 34827 34684 34913 34912 34848 34968 35009 35092 35061 35138 35120 35097 35188 35468 35876 36429 36760 36931 36992 37036 37082 37114 37098 37108 37091 37095 37097 37105 37125 37091 37082 37060 37036 37039 37022 36958 36860 36764 36706 36621 36627 36724 36789 36800 36722 36712 36687 36635 36621 36573 36549 36525 36490 36435 36425 36388 36287 36306 36208 36178 36152 36142 36159 36152 36135 36146 36169 36178 36178 36189 36195 36169 36119 36058 35961 35886 35800 35696 35640 35697 35667 35673 35652 35628 35669 35694 35779 35835 35854 35932 35952 36000 36095 36321 36895 37801 38373 38792 39067 39420 39752 40167 40345 40443 40493 40577 40582 40629 40661 40646 40606 40527 40407 40335 40273 40203 40101 40105 40106 40099 40121 40147 40167 40182 40145 40078 40052 40012 39941 39814 39667 39540 39384 39244 39191 39101 39078 39009 38967 38869 38818 38734 38739 38709 38656 38607 38585 38484 38402 38309 38199 38078 37965 37900 37925 37917 38008 38183 38293 38465 38570 38834 38905 39120 39278 39540 39815 39951 40061 40143 40186 40171 40114 40164 40081 40053 40087 39996 40008 39928 39794 39760 39657 39570 39483 39406 39324 39160 39006 38824 38706 38618 38520 38440 38358 38236 38184 38133 38067 38000 38015 38000 38002 37942 38041 37980 37883 37752 37627 37470 37329 37269 37186 37137 37106 37046 36970 36922 36839 36834 36795 36745 36740 36698 36605 36472 36340 36239 36148 36079 36042 35994 35930 35882 35817 35778 35736 35700 35704 35685 35656 35656 35604 35546 35394 35345 35249 35171 35068 35048 34981 34953 34886 34925 34857 34843 34816 34766 34801 34818 34867 34847 34766 34674 34618 34564 34481 34466 34410 34418 34402 34414 34411 34437 34449 34468 34524 34541 34575 34597 34604 34614 34581 34540 34515 34542 34545 34587 34661 34694 34778 34806 34842 34852 34936 35003 34979 34906 34762 34640 34563 34458 34339 34258 34178 34153 34144 34198 34334 34451 34538 34595 34635 34654 34695 34765 34819 34882 34894 34857 34792 34731 34668 34625 34609 34617 34663 34760 34907 35101 35234 35244 35296 35336 35356 35369 35385 35444 35454 35451 35467 35501 35521 35526 35503 35489 35447 35436 35409 35422 35435 35470 35528 35627 35747 35860 36060 36295 36451 36474 36595 36738 36865 36935 37003 37070 37200 37322 37401 37409 37378 37367 37341 37323 37279 37241 37155 37009 36851 36704 36702 36754 36624 36617 36580 36510 36423 36308 36226 36200 36222 36241 36249 36272 36299 36251 36398 36467 36520 36615 36681 36780 36785 36782 36726 36684 36645 36741 36871 36948 37019 37028 36976 36852 36669 36479 36310 36156 35980 35873 35796 35713 35623 35520 35458 35441 35391 35388 35351 35307 35272 35204 35075 34931 34784 34685 34622 34582 34558 34536 34538 34562 34618 34625 34638 34638 34648 34651 34669 34631 34620 34541 34486 34464 34405 34398 34355 34311 34289 34294 34284 34289 34294 34318 34353 34369 34374 34299 34261 34198 34497 34474 34469 34449 34456 34481 34598 34540 34536 34551 34554 34553 34573 34598 34578 34594 34561 34526 34486 34440 34445 34425 34418 34339 34385 34391 34344 34342 34348 34345 34360 34321 34306 34307 34241 34188 34153 34113 34069 34037 33993 33978 34005 34043 34099 34090 34060 34031 33952 34038 34021 34043 34027 33964 33901 33866 33805 33761 33740 33700 33746 33716 33773 33771 33744 33711 33675 33657 33659 33717 33661 33581 33503 33464 33432 33500 33544 33581 33575 33641 33662 33694 33725 33782 33833 33912 33942 33950 33967 33974 33933 33952 33992 33994 34152 34217 34235 34355 34374 34475 34621 34743 34927 35132 35234 35380 35394 35421 35395 35398 35342 35302 35312 35300 35222 35240 35148 35255 35271 35314 35384 35387 35473 35482 35477 35371 35296 35329 35241 35208 35205 35187 35192 35173 35149 35138 35078 35059 34976 34966 34959 34946 34921 34855 34818 34743 34825 34815 34829 34796 34774 34754 34758 34753 34924 35064 35552 36045 36345 36762 36800 36633 36447 36215 36067 35965 35840 35827 35810 35790 35733 35686 35644 35636 35600 35583 35539 35545 35514 35478 35398 35385 35328 35313 35233 35193 35187 35160 35135 35073 35058 35082 35081 35084 35032 35034 35005 34947 35002 34979 34918 34848 34791 34718 34814 34790 34747 34770 34795 34723 34929 34904 34913 34916 34919 34905 35005 34951 34968 34849 34820 34725 34737 34655 34671 34666 34616 34678 34618 34602 34651 34750 34701 34734 34705 34781 34767 34723 34683 34677 34771 34779 34856 34885 34898 34985 34972 34936 34988 34953 34915 34904 34882 34930 34874 34860 34790 34716 34674 34649 34600 34636 34637 34674 34601 34689 34652 34834 34856 34893 34909 34949 34976 35009 34876 34861 34803 34809 34815 34827 34831 34790 34758 34792 34822 34833 34912 34881 34858 34830 34870 34786 34858 34839 34879 34849 35058 35125 35083 35165 35189 35294 35282 35270 35281 35279 35275 35299 35300 35311 35266 35227 35211 35148 35156 35198 35185 35193 35186 35168 35156 35119 35173 35239 35255 35245 35254 35241 35232 35267 35219 35211 35114 35095 35078 35032 35086 35101 35072 35035 35001 34952 34934 34938 34939 34950 34893 34805 34776 34688 34640 34641 34682 34708 34677 34661 34622 34681 34656 34727 34854 34997 35145 35145 35229 35234 35226 35253 35307 35367 35408 35404 35358 35335 35282 35300 35423 35850 36493 37203 37671 37960 38082 38076 38085 37974 37765 37591 37383 37197 37043 36978 36873 36729 36568 36439 36387 36312 36229 36146 36043 35940 35852 35782 35749 35649 35509 35403 35393 35301 35265 35179 35110 35074 35099 35122 35140 35078 35064 35056 35034 35049 35112 35058 35105 35075 35092 35032 34984 34897 34884 34881 34877 35047 35531 35798 36069 36266 36275 36090 35861 35723 35599 35430 35377 35276 35149 35013 34947 34863 34914 35173 35353 35511 35593 35663 35604 35503 35318 35218 35188 35114 35157 35122 35107 35060 34983 34928 34916 34857 34828 34807 34777 34766 34767 34748 34713 34731 34682 34725 34743 34718 34832 34836 34748 34797 34748 34734 34730 34664 34667 34635 34613 34667 34643 34667 34682 34743 34812 34855 35187 35229 35660 35731 35998 36117 36348 36396 36559 36427 36291 36523 36380 36517 36566 36538 36526 36469 36595 36533 36495 36434 36414 36442 36370 36374 36283 36325 36276 36239 36312 36267 36309 36368 36239 36431 36355 36422 36409 36393 36438 36339 36371 36286 36229 36271 36182 36276 36218 36250 36362 36341 36378 36130 36647 36614 36809 36898 36854 36846 36889 36801 36737 36792 36752 37030 36941 36964 37071 37108 37229 37567 37612 37686 38033 38865 39282 39597 39790 39975 39859 39744 39940 39899 39935 39936 39997 39973 40013 39997 40029 40108 40084 40116 40206 40194 40274 40336 40281 40531 40403 40603 40520 40573 40667 40454 40822 40795 40816 40903 40868 40930 40874 40959 40982 40938 41013 41060 41021 40979 41055 40828 41113 41027 41072 41029 41028 40932 40921 40897 40873 40762 40790 40762 40772 40749 40793 40786 40720 40651 40528 40594 40444 40556 40539 40440 40434 40364 40335 40409 40335 40333 40199 40313 40164 40331 40163 40357 40147 40133 40151 39963 40064 39927 40069 40004 40074 39711 39988 39796 39847 39933 39831 39897 39819 39800 39866 39709 39850 39749 39589 39632 39633 39442 39596 39556 39325 39522 39240 39569 39593 39409 39566 39549 39402 39578 39534 39467 39541 39471 39444 39383 39297 39339 39286 39354 39319 39379 39209 39282 39282 39234 39287 39190 39210 39259 39276 39253 39167 39122 39033 38990 38889 38877 38836 38809 38790 38672 38721 38638 38657 38575 38581 38585 38584 38469 38544 38523 38340 38387 38301 38267 38160 38241 38250 38106 38224 38191 38150 38159 38154 38157 38000 38259 38172 38317 38303 38387 38385 38339 38266 38248 38242 38239 38201 38210 38186 38163 38198 38212 38234 38226 38247 38269 38255 38273 38345 38354 38365 38338 38307 38233 38261 38236 38251 38231 38235 38236 38181 38213 38218 38173 38189 38195 38195 38176 38192 38203 38173 38156 38124 38072 38041 37995 37982 37990 37938 37954 37922 37907 37925 37873 37931 37930 37964 37956 37955 37924 37935 37868 37873 37814 37782 37710 37691 37645 37664 37637 37614 37614 37614 37606 37588 37596 37582 37588 37584 37600 37612 37573 37528 37476 37426 37378 37327 37308 37265 37252 37225 37220 37194 37181 37168 37158 37138 37123 37147 37125 37114 37076 37051 37170 37094 37259 37192 37196 37116 37255 37381 37510 37634 37781 37685 37840 37798 37836 37849 37808 37809 37615 37661 37624 37517 37446 37238 37386 37339 37289 37268 37197 37248 37226 37201 37178 37244 37198 37223 37216 37159 37097 37107 36986 37034 36958 37014 36972 36967 36977 37092 37044 37114 37171 37277 37463 37589 37704 37831 37876 37831 37814 37801 37844 37804 37948 37997 38053 38128 38276 38359 38431 38514 38440 38419 38405 38461 38475 38552 38643 38757 38854 38956 39103 39320 39629 40055 40406 40643 40799 40902 40949 40934 40890 40948 40973 41015 41007 41071 40980 41002 41023 40970 40966 40888 40876 40793 40893 40896 41016 40915 41075 40973 41291 41214 41635 41488 41496 41374 41193 40968 40803 40909 40774 40653 40588 40500 40516 40514 40445 40401 40412 40316 40275 40101 39950 39812 39699 39532 39429 39322 39198 39105 39019 38924 38870 38794 38739 38744 38718 38681 38598 38447 38347 38114 38043 37950 37864 37775 37682 37585 37544 37476 37426 37381 37372 37335 37318 37299 37219 37068 36933 36780 36633 36577 36433 36498 36445 36403 36346 36311 36294 36283 36292 36290 36298 36306 36276 36196 36078 36000 35981 35947 36037 36090 36167 36175 36234 36253 36263 36236 36222 36223 36213 36203 36187 36233 36138 36123 35990 36016 35971 35980 36014 36025 36056 36068 36074 36080 36072 36166 36169 36216 36227 36234 36269 36225 36182 36135 36152 36115 36415 36598 37152 37664 38113 38272 38214 38163 38100 38228 38332 38410 38419 38471 38477 38532 38493 38506 38513 38527 38531 38526 38476 38503 38455 38411 38411 38368 38326 38295 38315 38314 38293 38199 38127 38029 37959 37886 37881 37855 37848 37792 37731 37676 37654 37628 37623 37647 37645 37618 37623 37574 37588 37466 37443 37346 37314 37252 37206 37185 37189 37137 37120 37110 37051 37061 37035 36987 37032 37004 37014 37006 36934 36809 36683 36566 36516 36422 36344 36228 36193 36088 36112 36108 36150 36152 36254 36213 36234 36222 36308 36552 37118 37628 37775 37940 38157 38447 38852 39164 39278 39272 39145 38938 38798 38664 38571 38471 38340 38296 38155 38111 37943 37792 37674 37577 37430 37352 37291 37200 37110 37012 36943 36864 36821 36747 36718 36675 36695 36651 36587 36615 36616 36550 36441 36402 36294 36336 36322 36346 36302 36330 36308 36279 36274 36288 36344 36359 36420 36424 36436 36452 36456 36376 36308 36216 36186 36042 36090 36047 36063 36032 36032 35992 35993 36014 36080 36064 36114 36115 36122 36088 36060 36084 36028 36082 36048 36119 36101 36150 36189 36180 36285 36425 36511 36499 36596 36665 36707 36723 36722 36679 36600 36584 36524 36467 36512 36464 36626 36498 36684 36611 36689 36744 36711 36755 36765 36771 36765 36806 36800 36824 36805 36793 36804 36739 36824 36755 36866 36649 36861 36963 36996 37185 37077 37073 37130 37128 37359 37324 37299 37290 37255 37046 37195 37358 37388 37490 37367 37325 37549 37640 37740 37611 37717 37700 37675 37670 37639 37542 37542 37498 37377 37434 37351 37320 37443 37393 37488 37393 37495 37469 37509 37552 37508 37462 37433 37379 37366 37352 37388 37420 37460 37493 37511 37502 37473 37518 37448 37477 37455 37435 37387 37472 37341 37465 37383 37359 37356 37349 37293 37297 37245 37254 37218 37270 37190 37323 37255 37214 37206 37137 37051 37134 37106 37108 36995 37104 37046 37180 37183 37226 37240 37263 37237 37280 37211 37151 37134 37081 37121 36996 37132 37113 37124 37093 37110 37123 37103 37234 37138 37500 37310 37416 37195 37393 37292 37337 37385 37332 37347 37359 37352 37344 37421 37363 37457 37392 37446 37383 37342 37265 37278 37178 37218 37170 37314 37179 37339 37268 37292 37267 37308 37380 37338 37386 37313 37265 37206 37175 37164 37156 37152 37048 37218 37099 37255 37218 37311 37269 37317 37344 37325 37291 37244 37167 37303 37307 37225 37387 37716 37977 38211 38165 38061 38097 38413 38237 38242 38389 38343 38494 38309 38429 38386 38409 38490 38639 38789 39112 39200 39249 39308 39400 39197 39280 39245 39111 39154 39032 39028 38953 38858 38794 38899 38798 38908 38808 38818 38861 38823 38831 38782 38773 38739 38637 38501 38457 38379 38264 38306 38220 38216 38214 38149 38148 38096 38222 38150 38216 38272 38161 38173 38081 37969 37987 37973 37941 37940 37852 37899 37921 37885 37968 38036 38005 37988 37917 37967 37875 37889 37853 37834 37846 37864 37848 37967 37909 37969 37831 38020 37981 38128 38038 38243 37983 38279 38296 38313 38203 38359 38353 38359 38422 38475 38447 38469 38516 38563 38567 38583 38560 38549 38511 38471 38328 38517 38457 38553 38513 38504 38582 38633 38616 38709 38811 38780 38808 38845 38752 38800 38857 38751 38900 38856 38891 38870 38934 38755 39048 38911 39055 39017 39268 39122 39229 39080 39245 39121 39294 39250 39284 39313 39277 39348 39354 39390 39373 39458 39461 39658 39618 39685 39559 39689 39677 39761 39731 39703 39665 39714 39600 39597 39575 39674 39616 39681 39468 39489 39465 39378 39394 39339 39300 39246 39218 39183 39202 39197 39199 39199 39206 39125 39058 39004 38868 38962 38909 39023 38959 39114 38994 39301 39314 39380 39398 39346 39369 39326 39265 39159 39117 39074 39004 39026 38989 38959 38830 38884 38885 38823 38903 38843 38850 38687 38792 38455 38672 38539 38665 38459 38668 38678 38602 38508 38591 38647 38610 38678 38561 38616 38533 38478 38489 38447 38362 38401 38400 38314 38343 38219 38287 38339 38294 38331 38267 38226 38164 38089 38080 38054 38021 38041 38007 38004 38006 38014 38001 38001 38062 38000 38046 37958 37934 37876 37889 37886 37821 37830 37850 37797 37823 37816 37781 37773 37790 37785 37773 37719 37506 37651 37488 37739 37378 37872 37637 37966 37930 38010 37863 38130 38152 38204 38082 38284 38231 38254 38212 38273 38167 38257 38194 38242 38258 38310 38260 38354 38338 38340 38383 38401 38339 38303 38263 38275 38233 38226 38223 38240 38180 38261 38241 38312 38334 38318 38345 38343 38337 38232 38130 38256 38145 38230 38210 38177 38197 38225 38209 38213 38209 38203 38182 38220 38182 38150 38085 38043 37983 37994 38002 37766 38115 37813 38170 38007 38303 38058 38393 38333 38477 38178 38433 38379 38404 38323 38401 38315 38329 38320 38314 38272 38285 38241 38308 38266 38132 38206 38109 38091 38088 38157 38105 37935 38162 37852 38135 38152 38256 38143 38385 38438 38304 38282 38369 38218 38358 38197 38287 38218 38374 38186 38446 38330 38351 38311 38394 38442 38514 38366 38335 38295 38261 38189 38173 38220 38118 38127 38120 38133 38138 38218 37982 38331 38077 38238 38063 38258 38166 38214 38059 38211 38234 38218 38246 38288 38367 38356 38256 38356 38347 38243 38149 38148 38078 38077 38114 38148 38174 38060 37908 38116 38190 37982 38189 38172 38091 37997 38039 38024 37736 37810 37828 37684 37949 37478 38056 37756 38105 37967 38115 38022 38062 37923 37924 37924 37947 37876 37947 37882 37911 37793 37964 37991 37886 37883 37928 37956 37826 37668 37713 37626 37437 37763 37817 37865 37901 37807 38140 38158 38186 38064 38174 38083 38164 38202 38137 38113 38273 38225 38305 38334 38296 38337 38304 38383 37921 38346 38195 38355 38251 38023 38345 38298 38317 38257 38267 38342 38287 38383 38474 38543 38381 38534 38330 38414 38375 38351 38265 38294 38185 38295 38325 38285 38347 38294 38260 38451 38313 38243 38205 38209 38133 38120 38147 38132 38097 38078 38177 38017 38166 38138 38054 38029 38065 37757 37875 37943 37857 37933 37821 37850 37860 37858 37854 37810 37927 37927 37866 37833 37640 37823 37674 37816 37666 37909 37762 37879 37945 38029 38068 38259 38298 38431 38404 38315 38200 38209 38282 38044 38223 38106 38473 38573 38863 39063 39153 39222 39255 39161 39235 39044 39097 39094 39060 39139 38809 39176 38998 39202 39010 39198 39141 39103 39068 39046 38883 38918 38841 38860 38848 38852 38827 38841 38753 38560 38813 38693 38630 38638 38469 38485 38492 38396 38497 38441 38434 38406 38404 38455 38403 38516 38312 38347 38203 38193 38174 38176 38159 38114 38190 38046 38167 38116 38105 38153 38143 38213 38087 38124 38003 38124 38005 38117 37951 38185 38089 38171 38112 38222 38087 38372 38257 38460 38422 38469 38498 38590 38496 38646 38606 38615 38591 38549 38462 38399 38348 38287 38186 38180 38028 38073 38007 38030 38002 37964 37981 37946 37949 37902 37959 37890 37820 37769 37740 37603 37595 37548 37528 37450 37524 37483 37542 37502 37513 37473 37471 37428 37323 37240 37167 37041 37096 37026 37036 36980 36974 36978 37032 36992 36988 36985 36953 36932 36780 36759 36668 36627 36559 36633 36592 36605 36608 36570 36588 36559 36551 36493 36337 36307 36201 36178 36101 36121 36030 36132 36110 36073 36073 36172 36061 36159 36130 36003 36074 35865 35983 35904 35895 35912 35954 35969 35946 36078 36002 36024 36096 36053 35977 35927 35855 36097 36026 36062 36024 36007 35949 36046 35979 36098 36070 36061 36029 35931 35924 35903 35834 35847 35872 35873 35919 36011 35923 36028 35974 35990 36004 35966 35873 35829 35726 35715 35712 35612 35732 35655 35720 35739 35740 35761 35764 35786 35727 35707 35646 35627 35519 35599 35539 35583 35662 35700 35708 35743 35754 35757 35747 35723 35584 35613 35518 35542 35539 35570 35595 35593 35627 35586 35646 35607 35683 35553 35498 35371 35530 35754 36719 37131 37774 38156 38316 38537 38757 38872 39085 39182 39272 39321 39380 39397 39514 39516 39703 39679 39861 39923 40002 40056 40207 40296 40401 40510 40582 40563 40300 40194 40190 40191 40134 40141 40170 40172 40213 40204 40198 40096 39981 39872 39823 39727 39648 39596 39546 39475 39472 39363 39418 39266 39317 39166 39077 38818 38749 38607 38507 38448 38386 38363 38275 38236 38268 38351 38453 38486 38477 38468 38365 38338 38323 38263 38253 38257 38283 38381 38385 38288 38249 38230 38149 37976 37802 37640 37547 37410 37356 37254 37083 37035 36956 36903 36857 36805 36768 36648 36493 36352 36180 36118 35988 35946 35860 35832 35779 35788 35781 35717 35762 35712 35645 35506 35455 35279 35266 35169 35184 35124 35118 35063 35067 35032 35011 35024 34979 34817 34724 34630 34548 34505 34500 34427 34436 34425 34376 34388 34405 34400 34369 34298 34190 34141 34096 34064 34104 34030 34174 34146 34226 34234 34263 34282 34276 34200 34130 34033 33983 33979 33954 33969 33955 33970 34001 33970 33925 34005 34122 34424 34566 34661 34642 34593 34614 34645 34655 34856 34929 35071 35255 35268 35311 35301 35264 35225 35074 35060 34917 34960 34895 34845 34844 34809 34966 35041 35225 35303 35365 35351 35301 35242 35161 35104 35126 35168 35131 35258 35246 35308 35344 35337 35361 35367 35414 35363 35329 35363 35359 35350 35382 35393 35391 35371 35378 35347 35352 35347 35301 35261 35179 35155 35172 35121 35336 35363 35423 35440 35490 35489 35532 35555 35547 35536 35463 35411 35377 35351 35313 35293 35334 35313 35288 35338 35302 35391 35393 35349 35323 35260 35234 35169 35179 35115 35153 35138 35170 35167 35263 35297 35366 35421 35438 35417 35397 35407 35390 35396 35362 35403 35402 35422 35415 35394 35438 35354 35319 35247 35230 35188 35160 35147 35126 35107 35065 35085 35117 35112 35127 35149 35116 35071 35027 35088 35116 35176 35249 35358 35404 35429 35477 35514 35512 35554 35474 35429 35348 35245 35267 35205 35279 35292 35336 35386 35352 35414 35455 35486 35475 35448 35395 35362 35317 35327 35331 35301 35301 35362 35378 35479 35552 35643 35663 35624 35648 35599 35583 35539 35553 35483 35455 35483 35397 35435 35392 35473 35440 35413 35373 35286 35323 35275 35256 35277 35267 35322 35335 35354 35335 35339 35337 35253 35256 35189 35197 35166 35194 35213 35237 35256 35222 35285 35250 35107 35773 35771 35819 35686 36016 35957 36408 36339 36382 36466 36478 36366 36688 36703 36623 36571 36549 36480 36469 36496 36481 36490 36494 36514 36595 36643 36646 36650 36555 36478 36409 36392 36374 36424 36397 36442 36414 36455 36485 36500 36518 36486 36451 36336 36344 36272 36297 36306 36288 36285 36262 36275 36262 36319 36272 36388 36332 36344 36325 36309 36257 36320 36312 36325 36315 36349 36337 36325 36296 36207 36142 36059 36023 35986 35986 35986 35986 35993 36027 35981 36072 36053 36006 35974 35889 35911 35876 35835 35878 35858 35895 35912 35958 36010 36057 36129 36130 36132 36125 36116 36151 36148 36198 36219 36234 36263 36251 36250 36188 36130 35950 36009 35897 35934 35977 36023 36063 36121 36141 36302 36285 36383 36444 36305 36291 36276 36269 36269 36226 36258 36211 36299 36338 36339 36429 36430 36409 36419 36430 36441 36512 36569 36581 36632 36659 36671 36692 36713 36684 36602 36521 36448 36403 36373 36321 36323 36348 36354 36337 36367 36366 36309 36293 36230 36151 36105 36056 36065 36030 36042 36031 36026 36068 36077 36164 36106 36124 36101 36102 36066 36073 36088 36114 36124 36122 36193 36212 36217 36172 36184 36098 36067 36076 36056 36049 36049 36066 36033 36125 36132 36144 36177 36181 36123 36172 36187 36386 37080 37683 38144 39016 39429 39719 39921 40074 40207 40294 40352 40370 40448 40532 40591 40684 40805 40937 41037 41095 41107 41158 41132 41112 41080 41044 41013 41006 40943 40935 40848 40787 40767 40796 40865 40912 40782 40887 41038 41243 41377 41463 41431 41436 41484 41493 41409 41469 41479 41596 41595 41517 41445 41403 41483 41479 41325 41200 41164 41149 40984 40945 40845 40787 40629 40376 40217 40026 39905 39830 39734 39638 39568 39591 39521 39485 39495 39405 39332 39282 39133 39093 38987 38870 38811 38681 38608 38582 38435 38430 38357 38272 38195 38220 38162 38107 38034 37968 37918 37825 37870 37773 37767 37680 37701 37604 37511 37416 37309 37305 37214 37203 37182 37270 37198 37245 37148 37190 37169 37157 37045 36943 36834 36742 36712 36683 36659 36657 36633 36588 36663 36657 36719 36717 36698 36589 36543 36516 36452 36488 36469 36502 36489 36535 36485 36451 36399 36368 36238 36079 36044 36027 35893 35976 36014 36051 35971 36206 36151 36367 36339 36338 36330 36254 36208 36185 36186 36193 36220 36230 36221 36154 36216 36202 36187 36290 36220 36100 36068 36045 35998 35989 36005 36052 36006 36139 36108 36141 36090 36122 36095 36046 36012 36026 36013 36015 36052 36072 36075 36116 36144 36184 36209 36200 36113 36072 35992 35970 35932 35947 35903 35928 35931 35916 35868 35864 35873 35826 35712 35664 35592 35573 35518 35453 35461 35428 35386 35383 35319 35343 35319 35254 35209 35136 35086 35028 35039 35047 35080 35084 35053 35102 35090 35106 35148 35138 35079 35049 34984 34933 34899 34857 34849 34814 34796 34728 34662 34678 34692 34634 34626 34619 34609 34599 34682 34887 35187 35391 35660 36054 36371 36272 36265 36218 36177 36126 36127 36040 36109 36051 36140 36053 36136 36055 36148 36204 36407 36386 36366 36391 36451 36432 36575 36514 36654 36640 36756 36787 36822 36875 36863 36814 36723 36721 36646 36732 36774 36806 36853 36899 36933 37008 36962 36962 36838 36783 36591 36835 36711 36968 36854 36951 36871 37033 36911 36918 36928 36813 36852 36718 36792 36872 36585 37041 36881 37373 37423 37413 37571 37405 37645 37745 37704 37558 37692 37692 37830 37808 37892 37877 37891 37982 38035 38110 38110 38032 37978 37909 37881 37988 38001 38160 38254 38300 38165 38180 38038 37929 37896 37659 37650 37642 37726 37822 38007 38098 38269 38396 38533 38678 38776 38829 38814 38828 38900 38976 39096 39193 39285 39379 39535 39733 39908 40146 40355 40336 40226 40032 40135 40181 40200 40172 40011 39973 39963 39919 39938 39865 39878 39706 39619 39477 39412 39318 39320 39305 39320 39359 39455 39563 39703 39885 39954 40055 40265 40553 40792 40893 40824 40752 40475 40237 40040 39930 39767 39604 39341 39196 39041 38891 38808 38698 38569 38437 38282 38211 38049 38017 37811 37606 37473 37372 37285 37232 37160 37339 37197 37255 37216 37221 37190 37036 36982 36814 36671 36609 36490 36466 36427 36428 36425 36500 36875 37052 37452 37641 37539 37520 37417 37344 37217 37243 37109 36967 36870 36776 36781 36726 36628 36480 36437 36401 36410 36468 36479 36466 36506 36475 36487 36461 36535 36560 36565 36601 36657 36723 36866 37118 37190 37389 37547 37654 37858 37907 38054 38053 38176 38155 38275 38386 38572 38699 38859 38972 39192 39285 39467 39588 39653 39722 39893 39870 39933 40004 40042 40132 40132 40173 40129 40301 40267 40510 40400 40385 40342 40345 40419 40313 40404 40366 40424 40444 40421 40535 40520 40578 40529 40639 40687 40737 40830 41047 41426 41260 41000 40907 40710 40660 40718 40656 40656 40635 40660 40691 40749 40790 40883 40935 41008 40974 40984 40985 40951 40895 40846 40786 40751 40678 40755 40734 40731 40729 40641 40720 40656 40672 40530 40509 40388 40316 40216 40230 40254 40485 41022 41368 41589 41690 41773 41781 41683 41515 41331 41179 41057 40983 40855 40838 40762 40863 41008 41068 41105 41062 40938 40882 40794 40705 40566 40422 40335 40191 40154 40044 39954 39902 39801 39668 39546 39473 39357 39300 39277 39290 39283 39256 39469 39723 39867 39983 40076 40171 40153 40109 40076 40016 39967 39907 39872 39792 39771 39702 39632 39442 39360 39205 39024 39008 38855 38813 38730 38697 38617 38563 38527 38487 38399 38254 38143 38032 37919 37915 37851 37841 37790 37740 37707 37648 37628 37499 37363 37246 37156 37072 36982 36925 36861 36799 36815 36795 36784 36736 36714 36531 36516 36396 36348 36294 36249 36126 36222 36127 36202 36151 36198 36111 36120 35987 36003 35880 35909 35892 35838 35769 35794 35751 35726 35627 35580 35474 35437 35432 35362 35309 35304 35256 35282 35211 35251 35251 35220 35115 35026 34996 34999 35000 34946 35069 35041 35115 35034 35085 35066 35023 34922 34857 34723 34794 34746 34862 34875 34945 35034 34941 34972 35010 34978 34964 34933 34938 34895 34956 34966 34993 35043 35078 35134 35129 35219 35148 35146 35093 35032 34956 34951 34979 34954 34969 34946 35022 35002 35054 35053 34996 34896 34815 34730 34735 34746 34612 34794 34788 34861 34806 34938 34778 35063 35065 34904 35181 34959 35334 35360 35390 35459 35516 35582 35674 35703 35657 35655 35707 35689 35771 35738 35857 35816 35858 35885 35892 35934 35944 35888 35917 35855 35898 35913 36122 36179 36225 36265 36288 36352 36244 36306 36301 36164 35976 35834 35719 35604 35663 35744 35745 35818 35940 35919 36115 36107 36047 36201 36051 36213 36120 36182 36198 36199 36218 36210 36165 36177 36191 36169 36090 36028 35982 35964 36002 35979 35978 35958 35992 35974 36022 36030 35997 35899 35817 35737 35730 35649 35650 35652 35635 35637 35667 35666 35657 35670 35609 35523 35402 35400 35292 35342 35379 35363 35384 35348 35357 35339 35324 35328 35200 35124 35027 34874 34916 34858 34873 34813 34824 34846 34904 34946 34963 34957 34870 34836 34775 34751 34751 34727 34852 34873 34984 35013 35045 35124 35075 35221 35174 35160 35068 35269 35358 35565 35561 35612 35622 35632 35686 35735 35728 35646 35595 35581 35548 35576 35583 35590 35610 35604 35610 35631 35644 35628 35613 35559 35457 35457 35426 35422 35404 35455 35402 35480 35477 35462 35482 35494 35292 35429 35326 35381 35394 35364 35419 35379 35420 35259 35515 35549 35578 35587 35500 35492 35502 35432 35518 35479 35624 35603 35728 35722 35914 35893 35941 35933 35878 35844 35764 35740 35751 35725 35738 35720 35746 35740 35816 35802 35731 35762 35596 35580 35557 35466 35441 35385 35377 35367 35346 35389 35312 35435 35413 35366 35236 35263 35202 35178 35207 35163 35147 35152 35136 35155 35112 35165 35048 34986 34950 34899 34875 34869 34824 34823 34833 34825 34782 34794 34769 34662 34601 34548 34524 34455 34500 34481 34572 34531 34593 34673 34669 34676 34694 34597 34534 34400 34448 34413 34439 34378 34510 34450 34549 34471 34630 34583 34599 34550 34468 34436 34359 34347 34469 34427 34513 34497 34585 34619 34589 34746 34634 34648 34618 34686 34557 34722 34687 34742 34737 34743 34772 34766 34749 34815 34687 34710 34669 34624 34618 34646 34619 34586 34612 34527 34576 34470 34576 34508 34495 34549 34526 34519 34522 34615 34602 34697 34757 34730 34777 34768 34694 34675 34582 34567 34606 34505 34583 34549 34605 34505 34575 34583 34549 34544 34489 34450 34351 34270 34320 34240 34275 34279 34236 34291 34310 34330 34297 34295 34201 34168 34147 34143 34080 34147 34071 34229 34194 34238 34212 34193 34237 34174 34032 34216 34064 34224 34500 34892 35277 35625 35922 36229 35868 36440 36614 36432 36760 36555 36835 36608 37043 37102 36809 37234 37266 37140 37250 37240 37322 37178 37135 36961 37064 36966 36993 36956 36976 36891 36882 36910 36912 36824 36779 36642 36553 36454 36443 36384 36361 36295 36221 36218 36257 36330 36357 36369 36351 36228 36106 36021 35993 35908 35883 35871 35862 35758 35819 35780 35756 35770 35732 35646 35493 35438 35464 35439 35385 35397 35377 35355 35337 35344 35321 35350 35253 35204 35121 35088 35077 35121 35205 35213 35276 35306 35361 35452 35651 35732 35847 35847 35996 35978 36133 36238 36287 36356 36555 36610 36865 36945 37212 37288 37269 37332 37176 36985 36783 36577 36411 36248 36141 36118 36136 36160 36207 35800 36097 36264 36440 35862 36304 36439 36067 36518 36775 36823 36594 36830 36869 36570 36698 36606 36583 36505 36399 36405 36397 36373 36374 36414 36358 36363 36375 36362 36287 36255 36243 36188 36210 36198 36162 36144 36086 36128 36142 36171 36123 36031 35934 35874 35778 35754 35705 35712 35672 35672 35643 35658 35591 35611 35482 35429 35277 35290 35217 35195 35161 35121 35107 35094 35067 35031 35039 35025 34949 34918 34769 34758 34720 34706 34663 34657 34641 34567 34620 34578 34595 34560 34463 34355 34255 34252 34182 34157 34114 34155 34164 34152 34200 34190 34089 34091 34190 34199 34038 33974 33907 33832 33817 33815 33785 33774 33681 33662 33688 33801 33578 33819 34453 34746 34113 34829 35007 35246 35280 35585 35193 35477 36184 35992 36377 36272 36327 36217 36354 36505 36541 36662 36710 36737 36725 36789 36810 36709 36664 36577 36546 36513 36545 36624 36651 36622 36784 36710 36888 36770 37025 36809 36979 36787 36867 36837 36776 36891 36819 36906 36885 36881 36884 36831 36963 36875 36829 36736 36716 36579 36621 36626 36604 36709 36625 36669 36633 36652 36636 36529 36428 36289 36206 36123 36139 36170 36193 36245 36273 36403 36447 36487 36555 36506 36430 36385 36366 36412 36398 36730 36830 37031 37195 37430 37604 37870 38112 38276 38551 38612 38852 38886 39028 39056 39134 39181 39122 39055 38838 38666 38495 38359 38235 37996 37817 37637 37467 37379 37261 37222 37134 37179 37076 37046 36977 37033 36892 36856 36687 36571 36536 36352 36368 36312 36229 36242 36114 36194 36082 36131 36026 36029 35821 35802 35582 35695 35593 35571 35535 35496 35474 35470 35484 35464 35510 35510 35424 35309 35211 35213 35150 35212 35131 35142 35073 35098 35091 34969 35056 34993 34845 34709 34472 34262 34157 34094 34076 34056 34122 34053 34091 34083 34013 34031 34031 33904 33881 33909 33898 33848 33966 33937 33943 33948 33964 33877 34076 34050 34127 34112 34032 33955 33867 33899 33791 33932 33865 33908 33907 33911 33876 33872 33915 33876 33759 33757 33649 33665 33603 33690 33656 33970 34009 34088 34215 34177 34303 34401 34289 34188 34204 34142 34212 34174 34405 34341 34375 34430 34332 34467 34470 34499 34515 34435 34439 34375 34408 34366 34411 34419 34467 34398 34520 34493 34629 34606 34687 34523 34600 34532 34575 34574 34514 34582 34550 34571 34643 34612 34639 34713 34710 34673 34628 34524 34584 34514 34501 34466 34515 34473 34539 34483 34537 34610 34615 34595 34503 34434 34360 34300 34239 34268 34210 34234 34222 34226 34228 34313 34276 34317 34190 34198 34138 34110 34040 34066 34001 34138 34099 34163 34105 34110 34158 34142 34031 33986 33854 33863 33748 33779 33694 33767 33693 33760 33774 33767 33821 33819 33814 33741 33680 33676 33578 33598 33615 33599 33689 33617 33732 33679 33822 33818 33857 33762 33656 33626 33592 33604 33654 33690 33725 33782 33782 33876 33875 33943 33912 33805 33734 33647 33621 33542 33579 33554 33525 33592 33558 33525 33593 33545 33614 33518 33454 33379 33371 33304 33289 33252 33318 33264 33415 33434 33397 33413 33457 33415 33356 33338 33335 33453 33411 33561 33607 33602 33617 33657 33641 33628 33670 33686 33674 33611 33487 33551 33547 33514 33522 33455 33522 33505 33612 33554 33924 33862 34070 34071 34005 34079 34137 34188 34144 34297 34196 34454 34511 34570 34593 34586 34549 34511 34409 34381 34379 34371 34228 34449 34397 34435 34455 34489 34544 34496 34395 34472 34411 34420 34496 34454 34540 34559 34743 34672 34780 34737 34730 34682 34663 34752 34784 34757 34801 34727 34789 34790 34877 34824 35074 35093 35465 35553 35653 35751 36009 36110 36392 36507 36704 36858 37082 37262 37444 37634 37816 37934 38020 38051 38124 38316 38442 38648 38922 38986 39110 39254 39333 39331 39476 39544 39651 39962 40390 40799 41145 41357 41569 41633 41649 41456 41305 41117 40943 40918 40894 40945 40874 40715 40541 40346 40164 40002 39791 39603 39559 39449 39346 39284 39212 39083 38977 38721 38617 38508 38439 38330 38239 38129 38093 38149 38090 38100 38022 38065 38043 38026 37887 37731 37646 37549 37455 37435 37391 37436 37412 37461 37529 37494 37571 37523 37575 37468 37364 37196 37030 36919 36866 36832 36829 36774 36810 36829 36958 37083 37284 37479 37565 37568 37496 37477 37538 37598 37670 37644 37748 37649 37603 37464 37303 37141 37031 36933 36742 36450 36252 35950 35800 35591 35470 35196 35270 35141 35032 34957 34797 34903 34938 34983 35029 34836 34812 34940 35268 35315 35654 36112 36477 36757 36959 37116 37270 37427 37555 37670 37799 37725 37711 37553 37549 37534 37550 37616 37538 37542 37472 37522 37488 37569 37583 37549 37619 37611 37593 37497 37454 37448 37478 37418 37489 37414 37411 37400 37404 37478 37430 37580 37437 37554 37422 37333 37179 37175 37046 36833 36842 36753 36645 36504 36425 36406 36329 36299 36282 36270 36044 36019 35823 35671 35559 35476 35414 35337 35200 35238 35213 35201 35259 35241 35236 35305 35242 35249 35073 35022 35022 34930 34947 34946 34887 34833 34821 34761 34764 34689 34784 34745 34717 34657 34423 34443 34399 34311 34200 34333 34258 34324 34370 34365 34405 34408 34460 34468 34521 34458 34304 34198 34053 34011 34019 34022 34079 34077 34026 34161 34142 34229 34284 34331 34399 34443 34383 34171 34112 33984 33952 33914 33961 33943 33965 33921 34046 34054 34181 34221 34281 34352 34413 34200 34250 34066 34138 34108 34143 34207 34228 34403 34434 34710 35122 34962 35032 35203 35381 35648 35800 35667 35424 35200 34966 34856 34550 34594 34503 34322 34262 34134 33956 33957 33932 33809 33684 33540 33315 33337 33185 33070 33187 33031 33262 33191 33141 33077 33093 33172 33178 33159 33136 32996 32893 32862 32730 32651 32621 32583 32527 32504 32530 32446 32540 32484 32453 32475 32397 32585 32560 32441 32357 32267 32183 32181 32143 32195 32058 32278 32288 32307 32234 32314 32180 32573 32556 32594 32475 32427 32305 32372 32317 32341 32323 32316 32260 32290 32275 32356 32450 32427 32574 32575 32460 32441 32391 32443 32438 32400 32345 32274 32251 32313 32295 32429 32374 32386 32368 32378 32518 32538 32533 32518 32442 32344 32407 32333 32462 32550 32474 32586 32484 32599 32589 32637 32715 32593 32790 32736 32777 32830 32685 32823 32786 32863 32811 32732 32828 32716 32811 32781 32845 32806 32820 32866 32831 32811 32756 32676 32680 32701 32672 32764 32733 32721 32796 32776 32857 32830 32898 32871 33027 33023 33066 33055 33035 32887 33082 33086 33037 33149 33261 33281 33294 33346 33347 33325 33379 33413 33482 33476 33370 33270 33307 33231 33225 33212 33167 33121 33162 33165 33199 33277 33266 33361 33395 33493 33542 33604 33547 33521 33575 33769 34097 34575 35096 35547 35847 36005 36157 36061 36006 35980 35937 35840 35772 35556 35416 35237 35176 35117 35102 35106 35112 35083 35124 35098 35063 35024 35033 35004 35026 35049 34998 35039 34974 35063 35045 34979 35054 34958 34997 34974 34927 34903 34770 34832 34789 34792 34704 34657 34614 34585 34577 34561 34580 34566 34580 34605 34641 34700 34696 34697 34747 34850 34664 34669 34549 34528 34428 34418 34390 34280 34320 34318 34359 34556 34560 34633 34617 34648 34554 34544 34455 34480 34500 34450 34507 34529 34528 34592 34550 34607 34568 34582 34572 34510 34414 34350 34337 34350 34303 34235 34198 34218 34195 34190 34217 34181 34255 34270 34306 34669 34846 35112 35258 35281 35369 35375 35493 35475 35485 35628 35692 35779 35889 36070 36249 36393 36541 36598 36744 36935 37064 37362 37504 37812 37874 38129 38236 38430 38520 38689 38715 38759 38932 38933 38952 38982 39014 39034 39117 39127 39158 39253 39233 39286 39333 39278 39418 39357 39393 39208 39205 39101 39165 39136 39185 39124 39182 39197 39227 39207 39318 39378 39323 39360 39301 39168 38926 38881 38745 38592 38547 38572 38652 38719 38719 38784 38920 39027 39193 39151 39315 39266 39492 39608 39606 39160 38806 38730 38670 38698 38641 38714 38655 38590 38597 38498 38445 38265 37965 37819 37628 37449 37352 37286 37147 37096 36947 36907 36792 36717 36678 36682 36608 36457 36224 36035 35843 35688 35518 35454 35335 35283 35152 35138 35078 35066 35042 35040 35028 35003 34911 34798 34612 34532 34402 34388 34275 34267 34148 34112 34024 33943 33890 33863 33801 33764 33701 33685 33581 33522 33447 33347 33306 33291 33276 33218 33217 33190 33189 33222 33236 33244 33343 33369 33404 33392 33364 33322 33366 33401 33527 33459 33695 33716 33774 33808 33827 33837 33839 33880 33895 33901 33918 33843 33843 33802 33792 33791 33806 33842 33851 33916 33922 33936 34001 34125 34228 34381 34557 34670 34733 34787 34765 34821 34779 34838 34872 34915 34931 34972 35012 35028 35060 35082 35147 35188 35260 35296 35268 35276 35225 35224 35242 35294 35346 35380 35438 35462 35482 35514 35504 35536 35553 35600 35626 35655 35617 35605 35576 35560 35559 35555 35536 35552 35545 35562 35564 35594 35599 35607 35622 35621 35594 35508 35439 35374 35284 35234 35193 35156 35107 35085 35054 35028 35010 34990 34972 34972 34937 34927 34915 34905 34894 34872 34875 34909 34917 34944 34967 34986 34998 35019 35023 35183 35357 35502 35668 35835 35999 36279 36444 36460 36417 36341 36259 36116 35964 35829 35733 35639 35562 35499 35435 35344 35196 35055 34939 34828 34730 34670 34603 34533 34458 34408 34367 34325 34299 34246 34222 34166 34045 33935 33812 33722 33650 33590 33558 33516 33468 33440 33405 33374 33373 33382 33377 33390 33392 33307 33223 33144 33082 33039 32983 32956 32900 32882 32837 32801 32776 32744 32730 32720 32691 32654 32557 32454 32384 32327 32278 32247 32209 32187 32133 32115 32095 32067 32062 32043 32032 32014 31964 31894 31793 31733 31688 31652 31616 31585 31545 31518 31508 31484 31457 31444 31433 31424 31420 31352 31259 31219 31161 31131 31110 31092 31073 31051 31032 31034 31039 31050 31062 31086 31088 31059 30985 30960 30935 30913 30918 30927 30956 30958 31004 31033 31108 31164 31254 31345 31379 31369 31341 31301 31286 31291 31293 31300 31327 31364 31384 31388 31426 31450 31486 31513 31527 31499 31447 31410 31381 31381 31373 31376 31371 31369 31371 31373 31371 31363 31370 31370 31365 31332 31268 31217 31189 31161 31151 31167 31156 31175 31166 31178 31190 31203 31216 31251 31246 31246 31209 31167 31121 31109 31097 31112 31110 31113 31121 31136 31152 31164 31179 31211 31229 31254 31260 31249 31199 31152 31140 31138 31151 31159 31192 31185 31194 31208 31205 31246 31268 31265 31292 31319 31327 31266 31221 31194 31184 31181 31191 31193 31184 31181 31203 31207 31218 31211 31233 31242 31254 31272 31263 31211 31179 31148 31133 31140 31143 31145 31134 31149 31134 31139 31148 31164 31171 31201 31210 31240 31229 31183 31129 31112 31094 31113 31127 31135 31137 31148 31167 31184 31206 31210 31232 31256 31261 31293 31287 31250 31203 31162 31158 31158 31169 31195 31189 31224 31220 31227 31250 31268 31295 31311 31319 31336 31358 31323 31266 31240 31219 31218 31223 31234 31243 31246 31251 31255 31263 31279 31279 31302 31312 31323 31320 31313 31258 31196 31188 31166 31157 31164 31147 31167 31163 31172 31183 31188 31200 31203 31231 31242 31260 31266 31227 31180 31155 31126 31152 31156 31166 31167 31180 31203 31211 31243 31250 31265 31291 31311 31322 31348 31320 31255 31229 31203 31201 31196 31208 31203 31227 31225 31231 31250 31264 31279 31284 31300 31315 31345 31339 31318 31260 31221 31199 31199 31215 31215 31226 31218 31221 31234 31223 31241 31248 31258 31274 31265 31276 31278 31242 31173 31128 31102 31089 31089 31085 31078 31079 31068 31069 31075 31101 31097 31104 31108 31124 31130 31142 31086 31038 31003 30999 30992 30998 31002 31002 31022 31038 31051 31062 31094 31097 31107 31133 31154 31179 31156 31108 31073 31046 31032 31040 31061 31053 31075 31086 31090 31118 31141 31143 31163 31196 31215 31235 31238 31212 31158 31118 31077 31084 31070 31072 31073 31083 31079 31079 31088 31090 31094 31101 31114 31119 31116 31121 31069 31028 30979 30958 30945 30945 30959 30961 30952 30957 30975 30984 30989 31010 31015 31040 31061 31073 31057 31011 30981 30963 30955 30979 30983 31008 31010 31030 31035 31058 31074 31104 31104 31137 31142 31165 31173 31135 31091 31080 31060 31081 31092 31093 31112 31122 31139 31145 31165 31179 31202 31217 31239 31264 31276 31258 31219 31192 31172 31160 31180 31172 31184 31185 31195 31208 31213 31229 31227 31233 31259 31247 31265 31282 31257 31199 31154 31137 31129 31135 31140 31139 31135 31152 31155 31163 31171 31194 31192 31211 31232 31236 31257 31227 31182 31151 31128 31133 31151 31160 31176 31180 31183 31207 31219 31222 31244 31267 31280 31297 31311 31316 31291 31235 31217 31191 31180 31215 31218 31228 31231 31249 31256 31245 31286 31285 31310 31328 31360 31360 31369 31336 31287 31240 31225 31220 31216 31218 31218 31199 31204 31208 31222 31218 31232 31243 31244 31261 31273 31277 31236 31181 31148 31136 31126 31128 31124 31134 31125 31133 31150 31167 31169 31196 31205 31232 31256 31274 31268 31234 31188 31175 31164 31168 31170 31187 31215 31219 31222 31238 31243 31269 31292 31311 31336 31352 31386 31345 31323 31293 31279 31282 31298 31283 31298 31306 31310 31328 31337 31349 31364 31382 31384 31402 31416 31427 31392 31343 31317 31302 31301 31302 31304 31284 31294 31295 31311 31307 31289 31312 31329 31324 31323 31336 31330 31294 31252 31231 31211 31202 31203 31211 31198 31209 31207 31221 31229 31259 31264 31286 31291 31297 31318 31277 31244 31226 31210 31206 31226 31229 31237 31249 31259 31272 31294 31301 31319 31344 31348 31378 31379 31368 31330 31281 31257 31248 31253 31258 31257 31271 31273 31285 31303 31315 31324 31342 31353 31364 31372 31404 31353 31304 31274 31253 31242 31256 31248 31256 31248 31240 31253 31256 31266 31266 31282 31292 31299 31316 31298 31242 31199 31176 31150 31159 31162 31159 31169 31179 31188 31191 31205 31222 31214 31220 31262 31347 31427 31500 31562 31588 31614 31652 31720 31796 31878 31975 32116 32228 32313 32438 32591 32826 33051 33263 33403 33445 33483 33531 33567 33629 33687 33732 33738 33767 33799 33794 33837 34109 34411 34717 35319 35870 36326 36927 37589 37921 38136 38308 38413 38462 38527 38588 38589 38555 38516 38436 38328 38207 38111 37964 37800 37638 37531 37428 37344 37306 37288 37336 37346 37286 37214 37131 37030 36926 36851 36778 36646 36479 36281 36129 35976 35844 35750 35657 35586 35477 35374 35299 35206 35113 35045 34982 34942 34884 34807 34671 34542 34435 34314 34245 34160 34097 34025 33966 33911 33861 33825 33790 33770 33742 33713 33660 33548 33423 33325 33231 33171 33137 33096 33058 33017 33015 32999 32990 32975 32972 32967 32972 32939 32851 32757 32659 32587 32528 32507 32483 32461 32472 32449 32448 32451 32461 32465 32480 32494 32505 32469 32387 32310 32249 32215 32191 32189 32191 32184 32203 32204 32224 32241 32249 32279 32317 32332 32323 32217 32071 31965 31982 32050 32113 32148 32159 32187 32239 32363 32560 32967 33312 33944 34586 34969 35274 35412 35495 35574 35478 35264 35081 34864 34626 34428 34246 34089 33966 33896 33879 33877 33894 33956 34031 34094 34178 34254 34379 34714 35255 35722 36191 36522 36785 36874 36715 36560 36551 36594 36589 36802 37237 37563 37808 38129 38352 38450 38531 38643 38735 38903 39032 39164 39327 39405 39454 39535 39626 39745 39810 39869 39824 39712 39535 39438 39248 38991 38758 38597 38401 38192 38027 37931 37900 37905 37942 38040 38129 38176 38131 38112 38095 38112 38100 38052 38151 37984 38267 38233 38291 38108 38065 37931 37780 37640 37523 37471 37370 37256 37192 37157 37095 37029 37030 36969 36935 36941 36886 36924 36837 36728 36530 36389 36225 36122 35961 35791 35613 35412 35229 35083 34903 34836 34692 34706 34653 34714 34645 34555 34539 34610 34855 35094 35244 35372 35478 35609 35605 35811 35863 36073 36197 36501 36668 36895 36971 37140 37293 37457 37591 37688 37788 37958 38130 38323 38441 38521 38625 38712 38825 38852 38849 38840 38860 38920 39091 39277 39536 39818 39913 40286 40433 40650 40749 41372 41660 42117 42351 42483 42594 42659 42725 42766 42838 42786 42797 42861 42989 43079 43224 43280 43359 43432 43407 43312 43257 43131 43056 42954 42869 42853 42882 42905 42931 43002 42966 42939 42954 42859 42964 42875 42741 42600 42569 42614 42528 42616 42689 42714 42738 42717 42765 42742 42612 42584 42468 42389 42318 42050 42040 41913 41999 41877 42037 42012 41971 41825 41590 41437 41250 41241 41224 41120 41223 40989 40863 40616 40379 40186 40106 40051 39968 39809 39749 39621 39589 39522 39615 39534 39544 39393 39203 39102 39007 38888 38759 38646 38455 38280 38141 38092 37969 37907 37736 37733 37739 37670 37572 37381 37097 36859 36718 36666 36562 36542 36517 36486 36458 36438 36366 36361 36320 36274 36269 36190 35943 35749 35479 35324 35170 35148 35078 35092 35099 35066 35039 35035 34873 34936 34909 34972 34851 34776 34664 34558 34506 34436 34473 34500 34569 34652 34673 34666 34765 34936 35036 35078 35084 34977 34877 34814 34700 34688 34664 34820 34852 34949 34975 35001 34928 35002 34981 35012 35040 34962 35110 35304 35795 36196 36519 36567 36581 36494 36411 36329 36289 36284 36248 36246 36236 36148 36130 36194 36317 36456 36685 36958 37271 37574 37828 38013 38193 38175 38344 38360 38373 38435 38496 38572 38940 39228 39550 40040 40463 40624 40500 40269 39991 39845 39834 39957 40061 40018 39985 39780 39750 39681 39573 39542 39426 39416 39278 39262 39149 39054 38969 38883 38790 38555 38494 38194 38033 37827 37695 37508 37456 37331 37320 37227 37175 37190 37081 37158 37156 37158 37097 37020 36954 36979 37181 37437 37608 37805 38200 38356 38690 38579 38718 38479 38325 38366 38401 38427 38418 38377 38158 38019 37756 37545 37322 37175 37079 36917 36741 36617 36592 36486 36412 36346 36243 36196 36040 36003 35704 35709 35584 35631 35682 35873 35789 35985 35976 35944 35908 35876 35833 35822 35731 35624 35528 35409 35305 35053 35363 35137 35453 35394 35485 35393 35656 35553 35707 35641 35651 35527 35350 35177 35156 35125 35124 35108 35149 35203 35203 35297 35248 35304 35350 35372 35351 35315 35176 35058 35118 35158 35015 35172 35087 35107 35173 35212 35208 35246 35211 35234 35252 35202 35158 35063 35109 35005 35147 35083 35134 35086 35136 35067 35175 35235 35225 35274 35214 35404 35325 35164 35317 35196 35241 35160 35138 35219 35287 35292 35345 35357 35287 35492 35470 35476 35362 35262 35210 35129 35109 35117 35064 35121 35104 35139 35166 35212 35238 35176 35189 35101 35088 34962 34963 34854 34841 34868 34837 34897 34812 34907 34817 34807 34799 34772 34705 34824 34746 34615 34581 34531 34608 34521 34553 34512 34556 34587 34568 34562 34545 34580 34583 34678 34613 34616 34527 34583 34512 34612 34589 34589 34583 34539 34612 34571 34691 34662 34721 34717 34609 34551 34510 34489 34712 34610 34584 34650 34665 34726 34709 34800 34764 34866 34922 34863 34595 34801 34794 34738 34762 34701 34807 34823 34897 34862 34858 34903 34933 34935 34883 34800 34830 34795 34731 34796 34774 34818 34811 34797 34870 34755 34888 34860 34898 34822 34817 34806 34697 34734 34702 34680 34720 34678 34718 34687 34711 34792 34875 34911 34895 34874 34906 34744 34873 34862 34899 34933 35005 34937 35015 35070 35145 35164 35109 35163 35078 35008 35066 34947 35052 35042 35068 35158 35120 35161 35206 35317 35218 35483 35363 35519 35305 35478 35374 35496 35403 35590 35479 35654 35698 35649 35745 35786 35844 35789 35937 35659 35942 35672 35927 35904 35962 35774 35909 35875 36027 36087 35948 36014 35990 36009 35933 35879 35877 35782 35749 35730 35749 35780 35811 35746 35727 35788 35838 35855 35765 35636 35661 35574 35521 35575 35421 35653 35591 35684 35593 35671 35680 35744 35786 35744 35688 35663 35447 35497 35513 35512 35322 35592 35725 35520 35754 35673 35845 35741 35635 35676 35526 35537 35469 35576 35549 35642 35523 35456 35656 35708 35383 35804 35830 35651 35596 35545 35568 35553 35502 35478 35553 35525 35516 35451 35370 35435 35451 35398 35372 35176 35249 35082 35312 35136 35242 35420 35232 35490 35507 35574 35633 35649 35566 35621 35452 35543 35478 35348 35383 35333 35478 35373 35593 35520 35684 35759 35524 35774 35604 35423 35477 35387 35511 35371 35548 35563 35510 35711 35706 35877 35963 35706 35848 35798 35779 35746 35831 35794 35769 35833 35836 35990 35959 35906 35963 35890 35856 35759 35739 35641 35652 35454 35778 35772 35872 35884 35816 35873 36028 36035 36082 36005 35955 35880 35810 35875 35754 35942 35857 35837 35901 35864 35891 36037 35987 36145 36061 36144 36081 35937 36067 36114 36241 36145 36087 36105 36030 36199 36246 36201 36185 36127 36061 36000 35971 35800 35965 35927 35973 35952 35951 35922 35901 35898 36007 35926 36011 35844 35736 35747 35669 35680 35644 35603 35689 35585 35857 35834 35919 35972 36199 36028 36023 36016 35923 35797 35860 35690 35957 35881 35889 36007 35946 35937 35939 36051 36003 36041 35859 35878 35692 35849 35740 35894 35794 35856 35875 35976 35928 36012 36001 36004 35945 35928 35819 35972 35849 35992 35999 36002 36052 36130 36010 36194 36035 36114 36040 36068 35973 35862 35861 35746 35780 35705 35736 35718 35669 35681 35663 35581 35674 35512 35709 35474 35606 35424 35461 35309 35416 35371 35386 35329 35388 35362 35358 35377 35401 35427 35387 35319 35215 35126 35126 35099 35070 35062 35104 35145 35160 35100 35359 35434 35488 35673 35676 35581 35489 35457 35390 35419 35381 35344 35377 35394 35499 35534 35585 35646 35645 35622 35632 35487 35557 35476 35490 35629 35558 35711 35691 35743 35716 35746 35703 35701 35719 35721 35724 35667 35783 35778 35889 35921 35977 36027 36198 36005 36501 36359 36718 36691 36485 36712 36580 36624 36592 36587 36555 36764 36915 36801 36949 37014 37118 37147 37064 36937 37035 36598 36952 36967 36961 37032 37066 37080 37046 36912 37146 37124 37045 37043 36977 36819 36763 36990 36782 37021 37122 37119 37160 37164 37261 37132 37202 36910 37051 36795 37031 36909 37053 37228 37357 37297 37432 37582 37594 37443 37440 37433 37597 37532 37595 37604 37547 37741 37570 37733 37736 37821 37880 37650 37635 37503 37637 37645 37575 37481 37595 37614 37636 37677 37729 37805 37725 37787 37712 37754 37756 37825 37788 38015 38034 38122 38094 38142 38156 38270 38300 38294 38090 38131 37939 38065 38011 38026 38132 38125 38179 38237 38268 38286 38225 38331 38147 38231 38063 38149 37992 38163 38014 38175 37963 38130 38198 38172 38260 38133 38022 38064 37979 38031 37944 37987 38048 38037 38063 38087 38023 38034 38027 38135 38077 37868 37870 37806 37757 37867 37909 37744 37908 37778 37796 37916 37778 37986 37795 37817 37680 37713 37716 37666 37662 37667 37581 37630 37613 37312 37718 37529 37804 37545 37502 37436 37394 37451 37364 37287 37223 37196 37139 37132 37112 37159 37092 37025 36896 36974 36928 36959 37011 36895 36973 36928 36855 36828 36745 36728 36701 36625 36411 36369 36304 36164 36168 36079 36086 36108 36096 36135 36174 36140 36198 36082 36050 35837 35877 35759 35741 35714 35687 35647 35662 35688 35757 35802 35786 35765 35635 35541 35470 35402 35431 35429 35491 35485 35577 35595 35577 35636 35657 35662 35497 35671 35466 35582 35465 35647 35727 35747 35751 35717 35744 35726 35717 35679 35676 35611 35517 35569 35549 35551 35591 35557 35538 35534 35457 35580 35635 35751 35850 35905 35741 35952 35864 35873 35910 35877 35891 35877 35989 35896 35990 35917 35977 35840 35750 35645 35503 35546 35591 35603 35540 35541 35543 35639 35677 35720 35754 35678 35624 35482 35517 35439 35374 35452 35429 35433 35387 35429 35427 35501 35582 35484 35404 35299 35393 35318 35489 35381 35532 35532 35538 35522 35554 35602 35570 35545 35330 35364 35298 35315 35303 35247 35289 35320 35260 35420 35407 35445 35465 35398 35343 35359 35337 35291 35252 35313 35306 35290 35302 35388 35383 35350 35362 35352 35309 35143 35187 35003 35035 34947 35007 35023 35018 34939 35204 35257 35336 35228 35238 35118 35161 35053 34880 34932 34801 35151 35194 35493 35450 35650 35563 35614 35403 35709 35619 35628 35948 35861 36319 36293 36636 37385 36907 37712 38147 38142 38582 38301 38772 38733 38864 38600 38624 38485 38601 38374 38585 38486 38453 38656 38846 39018 39335 39216 39046 39051 38931 38928 38856 38862 38785 38818 38772 38779 38621 38484 38517 38527 38702 38790 38588 38774 38741 38849 38934 39060 39126 39266 39120 39080 38856 38761 38632 38517 38507 38383 38311 38220 38156 38129 38130 38086 37953 37789 37713 37615 37568 37496 37432 37468 37364 37334 37292 37218 37278 37178 37144 37024 36911 36876 36793 36763 36723 36725 36674 36661 36654 36610 36685 36596 36473 36352 36285 36308 36240 36150 36246 36257 36244 36248 36287 36304 36327 36243 36101 35965 35947 35834 35775 35708 35694 35615 35481 35523 35513 35517 35662 35567 35708 35574 35703 35710 35864 35836 35983 35835 35951 35901 35942 35972 36025 35961 35792 35667 35569 35558 35479 35367 35386 35278 35479 35486 35602 35560 35869 35748 36107 35926 35940 35847 35775 35654 35601 35657 35548 35595 35468 35447 35374 35301 35244 35141 35118 35001 35027 34907 34963 35003 34992 34993 35066 34872 35311 35096 35208 35010 34851 34921 34872 34940 34937 34889 34999 35026 35103 35103 35397 35365 35600 35324 35474 35165 35476 35317 35364 35384 35366 35486 35312 35694 35550 35957 35988 35894 35977 35933 35840 35894 35823 35813 35869 35966 35989 35985 36199 36080 36297 36344 36179 36291 36164 36182 36230 36241 36313 36238 36413 36457 36413 36481 36444 36379 36222 36156 36166 36137 36161 36311 36302 36258 36368 36292 36422 36366 36452 36253 36353 36373 36440 36384 36279 36356 36417 36366 36382 36309 36370 36437 36473 36460 36488 36289 36276 36279 36145 36222 36123 36230 36296 36458 36444 36429 36512 36499 36272 36403 36236 36091 36198 36120 36359 36347 36403 36627 36536 36704 36568 36714 36489 36709 36553 36569 36339 36600 36529 36545 36620 36555 36646 36760 36765 36742 36717 36721 36657 36595 36551 36591 36585 36587 36640 36708 36713 36801 36851 36858 36846 36774 36643 36612 36530 36451 36599 36526 36739 36676 36732 36677 36706 36768 36731 36653 36569 36532 36577 36543 36447 36608 36567 36634 36596 36736 36777 36793 36886 36734 36792 36725 36778 36730 36670 36654 36695 36641 37035 37099 37097 37274 37232 37192 37073 36985 36939 36856 36875 36768 36897 36923 36786 37081 37079 37133 37275 37242 37160 37114 37165 37128 37169 37272 37346 37294 37227 37378 37454 37634 37685 37597 37541 37495 37361 37277 37356 37430 37392 37585 37687 37776 37795 37798 37816 37761 37650 37557 37505 37422 37495 37517 37574 37556 37622 37598 37590 37702 37802 37793 37706 37639 37695 37598 37721 37723 37718 37818 37777 37784 37843 37987 37966 37748 37822 37775 37979 37922 37963 38193 38091 38623 39011 39294 39655 39850 39992 40331 40663 41029 41358 41379 41168 40973 40729 40676 40830 41009 41160 41176 41069 40981 40965 40911 40914 40881 40906 40894 40889 40905 40962 40981 40970 40665 40630 40490 40347 40277 40225 40160 40246 40270 40227 40144 40188 40183 40068 39842 39696 39587 39420 39449 39339 39331 39253 39193 39152 39154 39094 38911 38694 38496 38310 38238 38135 38142 38218 38241 38266 38313 38393 38463 38556 38508 38369 38299 38199 38261 38238 38361 38320 38375 38294 38508 38555 38653 38730 38654 38538 38494 38386 38420 38464 38514 38555 38559 38622 38642 38712 38674 38797 38706 38519 38434 38420 38401 38464 38442 38517 38603 38575 38728 38868 39020 39193 39251 39408 39555 39720 39830 39978 40118 40228 40394 40459 40525 40607 40706 40846 40882 40848 40808 40832 40883 40949 41046 41087 41173 41209 41250 41296 41354 41369 41261 41133 41030 40951 40921 40903 40905 40944 40943 40943 40920 40862 40792 40603 40401 40210 40074 39933 39827 39731 39637 39526 39420 39341 39250 39138 39016 38750 38500 38253 38062 37929 37926 37989 38068 38149 38501 38770 38881 38988 39058 39081 38755 38384 38116 37895 37725 37556 37388 37265 37141 37013 36867 36766 36670 36484 36221 36000 35783 35582 35440 35309 35195 35107 35011 34919 34831 34746 34652 34525 34323 34131 33972 33857 33770 33707 33640 33569 33510 33466 33419 33384 33361 33289 33139 33001 32902 32827 32781 32745 32709 32689 32690 32669 32664 32652 32653 32617 32523 32437 32384 32361 32361 32372 32378 32378 32358 32339 32314 32297 32306 32277 32216 32154 32087 32030 32009 32002 31998 31983 31981 31966 31950 31952 31939 31930 31923 31874 31827 31802 31777 31764 31771 31771 31779 31779 31790 31793 31786 31794 31812 31781 31742 31701 31675 31670 31674 31669 31680 31685 31668 31690 31689 31692 31694 31681 31640 31592 31565 31559 31560 31554 31544 31554 31561 31557 31554 31553 31557 31548 31504 31469 31406 31359 31330 31310 31296 31300 31280 31291 31288 31274 31269 31264 31225 31158 31110 31080 31061 31029 31010 30983 30959 30892 30832 30836 30905 30956 30980 30943 30900 30877 30830 30824 30823 30809 30798 30785 30776 30781 30778 30778 30750 30683 30613 30569 30530 30514 30500 30502 30495 30490 30482 30473 30471 30469 30438 30367 30314 30270 30257 30248 30245 30248 30249 30247 30240 30231 30241 30246 30198 30143 30076 30034 30035 30026 30038 30041 30031 30039 30040 30045 30041 30035 30024 29952 29868 29825 29800 29800 29791 29793 29785 29777 29781 29779 29769 29771 29751 29692 29644 29582 29565 29577 29563 29565 29565 29550 29555 29571 29554 29565 29548 29515 29468 29443 29430 29444 29449 29476 29488 29481 29504 29529 29542 29560 29588 29568 29517 29493 29490 29491 29506 29523 29534 29546 29564 29586 29596 29607 29623 29623 29603 29556 29535 29527 29526 29544 29546 29541 29552 29547 29533 29547 29557 29548 29540 29488 29450 29434 29423 29441 29440 29448 29446 29449 29453 29467 29454 29475 29480 29450 29418 29395 29371 29375 29390 29396 29428 29445 29462 29487 29525 29536 29570 29593 29565 29544 29527 29534 29554 29583 29624 29663 29670 29695 29726 29735 29758 29770 29761 29754 29726 29704 29682 29694 29692 29711 29739 29732 29754 29765 29773 29779 29775 29763 29729 29686 29668 29636 29626 29657 29647 29621 29623 29614 29599 29590 29614 29619 29619 29587 29576 29569 29562 29584 29615 29684 29737 29777 29817 29861 29881 29926 29932 29924 29938 29959 29986 30004 30035 30023 30070 30106 30151 30185 30231 30269 30328 30316 30302 30283 30306 30338 30395 30473 30535 30578 30661 30703 30746 30781 30818 30891 30907 30905 30896 30884 30914 30927 30927 30979 30966 30958 31054 31084 31088 31097 31040 30990 30939 30892 30885 30868 30874 30884 30918 30955 31055 31188 31346 31482 31546 31584 31571 31563 31544 31502 31482 31453 31446 31429 31397 31374 31370 31327 31251 31202 31351 31664 32033 32331 32616 32812 32861 32848 32810 32791 32728 32739 32787 32766 32733 32655 32534 32441 32345 32263 32237 32235 32220 32217 32190 32173 32147 32110 31998 31951 31900 31912 31959 32020 32045 32050 32016 32036 32014 32039 32036 31989 31903 31794 31698 31637 31594 31607 31598 31605 31597 31612 31626 31628 31650 31681 31640 31587 31540 31515 31491 31460 31460 31438 31429 31442 31449 31458 31454 31440 31427 31357 31297 31250 31238 31239 31252 31274 31290 31294 31334 31365 31377 31414 31443 31461 31421 31389 31376 31387 31435 31495 31535 31574 31589 31619 31640 31660 31692 31718 31678 31617 31563 31525 31521 31515 31514 31491 31467 31448 31462 31426 31425 31418 31387 31319 31253 31219 31188 31200 31187 31208 31205 31224 31232 31254 31271 31276 31283 31227 31171 31094 31074 31072 31058 31047 31047 31057 31047 31066 31066 31089 31099 31051 30959 30900 30857 30838 30862 30853 30864 30864 30883 30893 30902 30927 30968 30939 30893 30850 30831 30844 30859 30895 30920 30940 30958 30995 31021 31054 31094 31129 31099 31052 30993 31007 31004 31037 31038 31063 31087 31145 31183 31224 31260 31300 31330 31321 31258 31227 31221 31212 31233 31255 31257 31273 31294 31282 31316 31331 31387 31412 31392 31326 31281 31281 31289 31304 31337 31331 31334 31364 31371 31386 31404 31407 31424 31405 31349 31323 31292 31311 31339 31420 31485 31554 31586 31612 31660 31705 31738 31776 31768 31710 31660 31646 31656 31680 31723 31737 31750 31758 31756 31763 31777 31790 31786 31778 31725 31668 31646 31641 31629 31647 31615 31619 31628 31628 31639 31633 31643 31642 31682 31648 31584 31542 31507 31495 31494 31478 31486 31462 31464 31466 31443 31428 31433 31412 31405 31331 31261 31211 31213 31226 31245 31266 31264 31278 31297 31310 31339 31372 31392 31416 31408 31360 31300 31274 31278 31297 31323 31333 31366 31415 31447 31504 31550 31588 31622 31656 31636 31579 31552 31551 31558 31588 31603 31634 31656 31664 31678 31696 31720 31733 31767 31799 31788 31714 31659 31604 31598 31583 31603 31585 31587 31582 31576 31589 31582 31594 31601 31596 31578 31513 31442 31374 31346 31346 31356 31371 31385 31410 31420 31460 31494 31521 31593 31610 31638 31584 31547 31504 31498 31517 31533 31548 31582 31592 31630 31642 31680 31693 31731 31748 31780 31748 31677 31639 31603 31575 31596 31608 31586 31571 31583 31589 31607 31612 31623 31623 31651 31640 31583 31494 31443 31411 31414 31409 31407 31399 31409 31406 31422 31436 31429 31431 31431 31456 31450 31407 31341 31285 31259 31262 31262 31263 31271 31282 31288 31313 31347 31364 31358 31330 31318 31271 31257 31222 31244 31290 31363 31401 31455 31490 31543 31565 31617 31652 31678 31714 31762 31785 31752 31701 31658 31625 31651 31667 31696 31730 31736 31771 31795 31816 31850 31879 31927 31970 31983 31945 31903 31864 31855 31859 31872 31877 31877 31871 31853 31857 31865 31858 31871 31871 31893 31882 31819 31733 31704 31676 31688 31676 31695 31711 31749 31782 31811 31858 31879 31933 31964 32011 31999 31961 31963 31972 31984 32007 32038 32057 32074 32108 32137 32160 32196 32224 32267 32293 32329 32335 32356 32403 32505 32598 32693 32757 32791 32814 32827 32844 32836 32865 32892 32907 32931 32932 32906 32848 32795 32747 32741 32741 32716 32698 32695 32648 32631 32624 32600 32583 32573 32560 32568 32559 32481 32396 32345 32329 32311 32313 32315 32292 32303 32308 32313 32338 32345 32354 32401 32407 32398 32346 32286 32253 32229 32232 32239 32250 32263 32295 32309 32328 32359 32377 32394 32417 32433 32443 32363 32319 32305 32320 32345 32408 32480 32580 32666 32733 32811 32878 32957 32988 32985 32963 32924 32788 32656 32552 32478 32423 32403 32374 32346 32332 32310 32309 32314 32307 32321 32328 32336 32341 32307 32224 32148 32102 32070 32059 32057 32050 32057 32048 32056 32082 32082 32091 32092 32105 32123 32134 32126 32036 31970 31925 31905 31893 31874 31857 31838 31836 31838 31840 31846 31848 31865 31881 31892 31918 31875 31810 31762 31718 31699 31694 31708 31705 31723 31742 31768 31808 31837 31861 31909 31937 31974 31994 31962 31899 31843 31830 31841 31843 31862 31872 31889 31905 31924 31949 31987 31997 32028 32068 32092 32119 32092 32029 31963 31943 31918 31931 31941 31943 31943 31950 31963 31983 32022 32027 32060 32088 32101 32122 32150 32110 32033 31985 31953 31943 31958 31963 31948 31954 31956 31964 31988 32000 32016 32050 32049 32085 32114 32112 32049 31974 31946 31944 31991 32058 32135 32218 32285 32317 32381 32461 32536 32610 32690 32762 32795 32828 32798 32776 32781 32799 32810 32865 32878 32886 32893 32926 32955 32974 33004 33027 33067 33103 33120 33107 33083 33584 34499 35177 35555 36404 37361 38207 38642 38837 38844 38545 38199 38246 38541 38880 39054 39125 39084 38981 38877 38801 38767 38768 38780 38760 38674 38545 38406 38226 38044 37835 37651 37482 37299 37089 36738 36390 36065 35780 35546 35379 35216 35067 34920 34763 34656 34580 34493 34456 34399 34342 34302 34218 34053 33881 33766 33668 33595 33560 33524 33477 33458 33440 33424 33395 33359 33341 33346 33369 33402 33381 33243 33212 33260 33380 33443 33606 33632 33726 33773 33875 34040 34148 34258 34279 34102 34016 33913 33810 33695 33656 33619 33538 33430 33265 33141 33076 32991 32938 32910 32884 32866 32854 32829 32813 32705 32543 32404 32300 32208 32136 32088 32047 32021 32002 31973 31965 31955 31962 31973 31992 32005 32020 31970 31857 31738 31652 31599 31545 31542 31519 31528 31511 31516 31507 31511 31534 31547 31576 31590 31626 31598 31497 31433 31389 31363 31328 31343 31339 31356 31354 31362 31373 31409 31444 31466 31516 31561 31567 31490 31424 31381 31365 31394 31414 31459 31491 31519 31560 31592 31618 31648 31686 31713 31764 31783 31777 31714 31640 31613 31584 31583 31603 31625 31643 31659 31685 31723 31754 31795 31821 31863 31895 31936 31955 31878 31789 31744 31725 31735 31747 31765 31772 31791 31810 31836 31866 31889 31922 31949 31991 32013 32043 32012 31944 31865 31841 31821 31817 31849 31861 31865 31885 31900 31904 31924 31958 31996 32007 32028 32068 32073 31987 31920 31886 31878 31906 31941 31974 31998 32003 32035 32083 32112 32175 32227 32280 32346 32399 32410 32342 32274 32220 32188 32191 32204 32212 32227 32243 32269 32304 32330 32355 32388 32411 32445 32496 32505 32446 32348 32319 32286 32276 32285 32314 32318 32334 32350 32372 32395 32428 32450 32478 32512 32538 32549 32513 32409 32343 32308 32268 32257 32269 32239 32258 32241 32245 32254 32283 32284 32310 32333 32359 32378 32399 32328 32260 32216 32210 32202 32217 32242 32248 32273 32305 32340 32377 32405 32447 32482 32531 32563 32589 32550 32468 32408 32398 32401 32421 32437 32453 32481 32505 32539 32573 32611 32651 32685 32719 32756 32799 32790 32719 32643 32595 32572 32575 32593 32587 32614 32618 32630 32650 32689 32705 32747 32768 32820 32836 32885 32890 32851 32788 32755 32727 32744 32752 32774 32786 32803 32815 32835 32891 32908 32924 32962 33011 33021 33039 33063 33050 32984 32938 32898 32881 32876 32889 32897 32895 32915 32915 32940 32987 32989 33028 33047 33081 33132 33160 33164 33124 33087 33067 33073 33090 33104 33141 33151 33150 33153 33159 33172 33207 33245 33289 33329 33366 33397 33413 33369 33329 33302 33285 33291 33306 33325 33330 33377 33400 33412 33438 33465 33492 33516 33553 33564 33599 33612 33574 33518 33463 33440 33405 33399 33400 33380 33361 33374 33373 33371 33383 33390 33386 33404 33390 33418 33433 33376 33298 33229 33173 33166 33152 33167 33143 33158 33138 33155 33188 33200 33236 33254 33287 33307 33342 33361 33320 33226 33171 33119 33108 33082 33084 33076 33066 33062 33059 33077 33095 33132 33149 33180 33192 33206 33250 33249 33158 33079 33014 32999 32982 32995 32987 32988 33003 33006 33030 33034 33053 33092 33124 33136 33170 33190 33203 33202 33119 33051 33005 32990 33000 33013 33033 33041 33040 33057 33083 33101 33112 33140 33185 33189 33205 33233 33243 33215 33144 33087 33067 33069 33068 33073 33068 33073 33081 33090 33100 33122 33144 33162 33172 33194 33227 33248 33230 33186 33145 33124 33123 33150 33170 33174 33187 33203 33232 33247 33284 33299 33331 33354 33382 33431 33457 33422 33382 33335 33320 33330 33355 33371 33383 33406 33417 33449 33481 33497 33541 33566 33596 33634 33680 33701 33665 33619 33568 33541 33537 33551 33542 33558 33568 33574 33578 33598 33630 33647 33672 33707 33727 33751 33760 33717 33653 33620 33637 33693 33747 33802 33851 33886 33913 33922 33916 33890 33852 33836 33801 33802 33792 33770 33690 33605 33507 33447 33385 33362 33329 33325 33305 33286 33305 33340 33377 33425 33470 33491 33526 33530 33558 33527 33413 33305 33233 33161 33140 33124 33126 33119 33125 33150 33149 33168 33167 33168 33188 33206 33199 33212 33164 33090 33014 32977 32947 32933 32938 32939 32942 32957 32977 32993 33017 33045 33075 33105 33143 33199 33249 33265 33217 33184 33156 33150 33148 33165 33169 33163 33170 33166 33193 33213 33222 33245 33270 33294 33338 33373 33406 33382 33344 33306 33270 33276 33286 33290 33307 33317 33326 33332 33380 33405 33424 33447 33468 33503 33531 33556 33564 33534 33485 33450 33422 33430 33406 33405 33412 33423 33429 33440 33440 33458 33474 33493 33502 33517 33543 33541 33545 33490 33476 33443 33426 33411 33384 33382 33379 33386 33396 33416 33463 33492 33503 33535 33561 33567 33596 33580 33540 33502 33479 33454 33444 33455 33469 33467 33477 33484 33505 33523 33548 33563 33593 33617 33641 33659 33623 33572 33526 33487 33481 33466 33473 33471 33464 33470 33475 33491 33498 33506 33525 33530 33547 33548 33539 33512 33437 33375 33332 33313 33293 33297 33272 33266 33253 33251 33263 33268 33268 33264 33287 33272 33297 33298 33274 33209 33153 33101 33067 33074 33059 33060 33054 33050 33055 33063 33076 33086 33102 33122 33135 33163 33158 33133 33071 33014 32997 32978 32984 32993 32974 32979 32974 32989 32994 33017 33039 33060 33082 33106 33132 33134 33091 33044 33008 33016 33008 33035 33063 33073 33110 33135 33181 33221 33260 33296 33315 33347 33362 33388 33403 33361 33316 33274 33254 33243 33249 33249 33257 33270 33280 33289 33300 33333 33359 33387 33399 33452 33470 33476 33464 33441 33407 33387 33390 33394 33418 33429 33448 33447 33484 33497 33530 33553 33576 33591 33606 33615 33640 33612 33571 33539 33497 33471 33471 33448 33445 33440 33440 33450 33474 33486 33501 33522 33549 33561 33586 33613 33586 33553 33525 33531 33514 33527 33532 33553 33559 33556 33581 33606 33614 33637 33665 33685 33705 33732 33755 33736 33697 33677 33659 33644 33633 33648 33650 33661 33656 33678 33701 33728 33745 33781 33790 33823 33832 33845 33845 33817 33784 33729 33723 33734 33724 33719 33727 33728 33736 33742 33736 33751 33767 33773 33783 33783 33804 33791 33740 33695 33633 33590 33569 33532 33539 33525 33502 33494 33492 33495 33488 33490 33491 33502 33513 33512 33529 33491 33431 33397 33390 33374 33382 33367 33376 33386 33385 33395 33418 33432 33466 33486 33510 33534 33561 33558 33513 33478 33459 33444 33450 33454 33464 33466 33473 33488 33507 33533 33551 33588 33585 33615 33651 33671 33662 33630 33589 33566 33563 33572 33563 33578 33576 33590 33592 33608 33637 33654 33688 33712 33732 33761 33787 33787 33744 33715 33707 33706 33697 33703 33702 33696 33705 33709 33717 33728 33749 33748 33750 33766 33780 33803 33779 33741 33716 33705 33701 33722 33739 33760 33792 33814 33838 33859 33881 33905 33929 33961 33991 34021 34027 34006 33981 33962 33942 33928 33923 33919 33923 33931 33921 33948 33956 33975 33995 34024 34031 34052 34084 34082 34046 34011 33979 33958 33959 33954 33939 33933 33935 33945 33952 33952 33982 33981 34008 34015 34031 34046 34032 33978 33933 33899 33861 33864 33847 33837 33820 33799 33798 33783 33786 33791 33794 33807 33807 33819 33818 33784 33728 33678 33652 33631 33621 33619 33634 33650 33671 33693 33720 33751 33772 33802 33819 33843 33858 33859 33816 33767 33720 33710 33712 33714 33724 33725 33736 33730 33740 33751 33761 33785 33790 33821 33837 33866 33867 33833 33773 33747 33720 33724 33713 33704 33704 33714 33710 33725 33727 33753 33766 33815 33870 33912 34068 34094 34120 34170 34309 34565 34889 35215 35522 35728 35799 35860 35906 35958 36010 36030 36146 36210 36257 36380 36454 36595 36738 36913 37072 37313 37456 37692 37792 37800 37876 37896 37937 37964 38052 38143 38218 38329 38433 38494 38503 38437 38310 38160 38096 37964 37892 37849 38035 38776 39072 39358 39594 39836 39991 40051 40114 40138 40183 40249 40271 40313 40295 40281 40271 40229 40222 40240 40245 40245 40188 40085 39991 39819 39567 39266 38980 38742 38524 38324 38227 38112 38027 37943 37839 37747 37618 37539 37435 37422 37422 37346 37246 37090 36979 36892 36795 36690 36580 36431 36337 36181 36110 35983 35877 35816 35710 35554 35384 35222 35168 35106 35154 35186 35258 35274 35283 35333 35336 35392 35412 35560 35748 35890 36065 36187 36349 36400 36495 36585 36684 36695 36820 36847 36875 36917 36905 36962 36893 36783 36619 36641 36530 36470 36403 36381 36368 36359 36350 36356 36326 36350 36371 36351 36226 36083 36028 36035 36064 36101 36210 36283 36427 36474 36573 36661 36668 36639 36627 36741 36896 37274 37356 37594 37628 37639 37718 37877 37889 38069 38044 38025 38050 38102 38059 38087 38039 38032 38012 37914 37825 37831 37818 37802 37754 37681 37698 37620 37711 37673 37716 37688 37618 37449 37398 37239 37296 37227 37240 37220 37150 37192 37089 37155 37109 37152 37191 37081 37133 37093 37067 37093 36729 37288 37394 37314 37367 37373 37377 37291 37124 37412 37270 37444 37309 37316 37200 37139 37090 37099 36982 37076 36976 37014 37099 37100 37285 37229 37254 37266 37061 37352 37285 37460 37561 37513 37648 37662 37778 37744 37784 37775 37749 37766 37653 37332 37064 36853 36789 36787 36781 36756 36781 36685 36651 36642 36787 36944 36980 36943 36917 36845 36863 36816 36772 36752 36726 36766 36866 36959 37161 37342 37443 37498 37443 37438 37323 37357 37306 37395 37549 37823 38106 38473 38655 38954 39059 39400 39265 39129 38841 38570 38305 38167 37899 37922 37827 37690 37540 37439 37360 37288 37177 37093 36885 36654 36514 36366 36246 36192 36223 36173 36122 36043 35928 35893 35830 35796 35696 35608 35472 35379 35325 35284 35287 35294 35340 35365 35368 35417 35404 35390 35369 35348 35221 35206 35233 35244 35296 35343 35320 35302 35306 35320 35349 35388 35393 35409 35369 35366 35328 35423 35542 35588 35863 35854 36031 36052 36131 36142 36201 36185 36180 36130 35958 36027 35906 35986 35876 36003 35978 35938 35994 36031 36057 35911 36014 35909 35818 35830 35788 35716 35578 35633 35547 35621 35556 35590 35452 35569 35488 35523 35414 35429 35417 35301 35423 35454 35446 35507 35476 35435 35479 35511 35534 35453 35500 35485 35351 35432 35353 35333 35282 35246 35302 35245 35276 35340 35227 35467 35422 35387 35374 35286 35255 35252 35127 35274 35252 35206 35280 35325 35386 35485 35451 35356 35318 35336 35376 35456 35664 35757 35957 36080 36156 36299 36490 36873 37016 37165 37337 37452 37695 37842 38160 38486 38787 38963 39126 39338 39661 40017 40236 40283 40269 40296 40305 40259 40373 40357 40365 40469 40537 40444 40882 40728 41172 40927 40911 41233 41324 41314 41461 41593 41725 41959 41958 41972 41955 41984 42003 41968 41784 41750 41816 41663 41841 41757 41794 41747 41759 41779 41882 41769 41643 41596 41551 41467 41565 41514 41694 41723 41659 41837 41721 41848 41811 41554 41577 41348 41239 41244 41256 41218 41086 40897 40819 40810 40841 40962 40859 40845 40731 40650 40759 40775 40916 40744 40659 40562 40440 40359 40214 40110 39933 39647 39553 39390 39347 39251 39195 39080 39087 39040 39057 39079 39090 38959 38784 38729 38562 38397 38484 38475 38501 38661 38825 38818 38816 38763 38703 38479 38255 37964 37757 37531 37339 37262 37066 36994 36836 36779 36669 36624 36447 36197 36090 35865 35868 35661 35608 35547 35387 35485 35460 35437 35513 35523 35471 35488 35405 35324 35329 35196 35298 35196 35234 35196 35161 35255 35251 35402 35296 35247 35079 35212 35051 35161 35120 35092 35113 35137 35175 35201 35202 35247 35126 35070 35022 34934 34935 34907 35055 34930 35210 