37707 37638 37594 37588 37607 37606 37600 37601 37609 37644 37689 37726 37759 37789 37838 37788 37681 37566 37496 37486 37495 37506 37519 37533 37529 37550 37580 37625 37667 37698 37755 37801 37761 37644 37552 37500 37482 37505 37514 37511 37525 37543 37564 37622 37639 37682 37729 37782 37828 37790 37681 37600 37533 37524 37535 37561 37557 37575 37583 37600 37619 37674 37716 37766 37817 37859 37849 37723 37591 37453 37385 37389 37414 37396 37396 37377 37361 37326 37165 36880 36834 36585 36476 36271 36055 35867 35675 35513 35417 35388 35391 35368 35238 35115 35059 35058 35132 35336 35576 35939 35844 36215 36867 37233 37458 37641 37838 37995 38169 38077 37928 38053 38065 38024 38163 38449 38681 38771 38822 38657 38442 38348 38381 38390 38319 38230 38149 38138 38231 38517 38607 38723 38846 39006 39148 39219 39249 39287 39278 39201 38969 38942 39031 38927 38697 38592 38525 38521 38635 38850 39041 39084 39120 39102 39081 39198 39470 39679 39880 40007 40066 40081 40147 40313 40546 40606 40834 41052 41064 40970 40921 40835 40762 40699 40625 40574 40605 40673 40881 41053 41240 41346 41334 41216 40867 40499 40161 39846 39592 39360 39145 39000 38902 38916 38721 38635 38552 38493 38432 38307 37887 37342 37053 36917 36804 36778 36725 36585 36670 36663 36648 36457 36367 36284 36357 36245 36013 35725 35560 35494 35527 35740 35992 36289 36557 36853 37177 37444 37650 37736 37828 37870 37750 37682 37649 37636 37611 37631 37598 37547 37499 37454 37470 37506 37546 37653 37754 37859 37855 37769 37701 37656 37626 37610 37616 37577 37524 37479 37469 37449 37508 37586 37701 37877 37946 37993 38128 38260 38340 38433 38392 38435 38637 38937 39398 39844 40190 40437 40567 40570 40429 40141 39797 39363 38845 38493 38374 38409 38552 38618 38792 39049 39231 39575 39784 39866 39992 39573 39622 40046 40612 41044 41382 41584 41732 41896 41995 42014 42073 42136 42140 42206 42263 42310 42205 42077 41970 41918 41885 41868 41837 41803 41841 41812 41747 41724 41713 41721 41736 41787 41748 41644 41513 41426 41355 41341 41320 41311 41317 41277 41261 41270 41232 41288 41303 41200 41080 40824 40517 40358 40367 40372 40354 40290 40268 40185 40183 40133 40108 40119 40107 40052 39979 39711 39476 39309 39282 39472 39615 39712 39654 39575 39592 39627 39548 39524 39381 39178 38852 38522 38175 38009 37905 37783 37523 37198 36934 36708 36533 36385 36266 36124 35995 35856 35587 35285 35024 34823 34638 34484 34346 34214 34096 34013 33934 33867 33803 33726 33657 33493 33350 33263 33219 33191 33164 33166 33129 33093 33040 32997 32989 32975 32995 32944 32831 32739 32696 32691 32677 32679 32662 32657 32646 32630 32633 32676 32701 32711 32702 32622 32580 32573 32578 32599 32650 32673 32676 32711 32745 32771 32803 32822 32854 32848 32769 32720 32698 32699 32728 32769 32820 32848 32869 32905 32955 32988 33003 33046 33067 33055 32979 32944 32919 32948 32945 32978 32995 33023 33030 33062 33077 33095 33126 33148 33174 33121 33040 33006 32989 32997 33015 33054 33079 33115 33141 33157 33214 33241 33292 33323 33366 33364 33320 33296 33309 33350 33360 33404 33445 33463 33502 33554 33569 33611 33648 33672 33712 33736 33750 33706 33665 33651 33649 33668 33696 33740 33772 33799 33830 33884 33894 33932 33956 33983 33992 34019 34038 33999 33948 33915 33915 33942 33960 33989 34014 34010 34020 34034 34047 34077 34089 34118 34128 34138 34161 34169 34114 34043 34012 33999 33982 33993 33996 33988 33985 33986 33997 33999 34006 34007 34031 34045 34065 34074 34047 33989 33965 33959 33978 34003 34027 34055 34059 34088 34109 34143 34194 34222 34261 34274 34300 34343 34337 34274 34199 34176 34180 34175 34220 34238 34257 34290 34317 34345 34388 34403 34445 34473 34508 34529 34560 34580 34521 34447 34415 34397 34389 34409 34429 34445 34437 34461 34484 34504 34537 34578 34593 34612 34644 34662 34690 34674 34620 34559 34528 34518 34528 34532 34544 34534 34546 34529 34547 34549 34560 34590 34565 34587 34579 34587 34585 34555 34482 34432 34388 34374 34378 34374 34378 34374 34379 34330 34300 34222 34103 34077 34049 34047 34033 34030 33990 33926 33895 33938 33956 34025 34102 34168 34204 34229 34241 34277 34319 34360 34393 34414 34460 34484 34518 34504 34459 34439 34437 34435 34429 34447 34480 34482 34484 34476 34480 34464 34486 34478 34478 34514 34626 34954 35859 36751 37746 38541 39281 40581 41586 42127 42225 42020 42019 41841 41522 41269 41053 40842 40642 40480 40302 40088 39829 39594 39384 39190 39033 38887 38744 38617 38477 38371 38258 38158 37992 37792 37633 37769 37908 38581 39464 40104 40400 40005 39445 38990 38639 38456 38373 38413 38416 38374 38314 38281 38329 38400 38444 38278 38090 37946 37742 37582 37602 37513 37456 37532 37575 37668 37742 37835 37991 38109 38211 38254 38409 38661 39195 40462 41456 42009 42363 42566 42811 42963 43066 42910 42764 42697 42737 42751 42764 42616 42489 42421 42324 42260 42240 42146 42008 41839 41724 41601 41484 41402 41304 41257 41210 41118 40920 40725 40532 40413 40361 40348 40389 40513 40617 40739 40828 40949 40994 41022 41110 41064 41068 41117 41179 41234 41332 41445 41523 41592 41665 41784 41783 41833 41913 41980 41939 41909 41859 41843 41856 41812 41771 41686 41585 41487 41428 41414 41469 41480 41352 41201 40916 40634 40404 40344 40349 40472 40562 40621 40669 40736 40859 41056 41227 41344 41359 41411 41331 41239 41163 41125 41173 41192 41246 41289 41356 41520 41653 41798 41850 41892 41811 41651 41436 41282 41217 41240 41430 41615 41754 41961 42027 42126 42270 42292 42471 42705 42808 42993 43118 43012 42707 42421 42231 42020 41822 41651 41461 41309 41160 41108 41004 40822 40661 40489 40331 40212 40092 40010 39934 39817 39725 39648 39555 39546 39491 39432 39342 39226 39132 39043 39038 39047 39092 39110 39138 39098 39095 39034 39009 38971 38837 38742 38675 38585 38543 38500 38505 38498 38528 38594 38596 38663 38878 39148 39248 39288 39266 39308 39432 39645 39848 39990 40049 40189 40283 40348 40392 40392 40418 40414 40394 40320 40337 40298 40222 40164 40067 39995 39876 39792 39714 39634 39568 39501 39341 39151 39005 38900 38867 38855 38895 38956 39013 39026 39150 39244 39301 39360 39369 39393 39312 39230 39195 39178 39152 39142 39155 39149 39118 39125 39077 39054 39061 39058 38919 38865 38788 38798 38830 38920 38988 39169 39245 39441 39617 39757 39900 40006 40019 39962 39875 39914 39921 39982 40024 40045 40083 40090 40074 40097 40145 40167 40199 40236 40322 40400 40516 40600 40642 40705 40700 40689 40730 40749 40739 40758 40717 40694 40687 40568 40455 40369 40286 40188 40081 39980 39874 39788 39746 39703 39749 39812 39864 39876 39819 39728 39625 39521 39475 39405 39372 39325 39288 39262 39260 39273 39292 39278 39254 39133 39021 38938 38862 38818 38827 38836 38902 38958 39030 39117 39154 39201 39206 39178 39126 39077 39036 39016 39018 38996 38998 38999 39023 39006 39000 38985 38977 38967 38905 38807 38707 38652 38728 38841 38962 39071 39076 39100 39126 39153 39209 39252 39274 39273 39290 39417 39787 39978 40068 40109 40151 40196 40235 40219 40239 40319 40428 40519 40558 40604 40594 40652 40738 40842 40927 40886 40870 40821 40764 40724 40675 40609 40449 40196 39981 39795 39697 39670 39614 39634 39576 39533 39559 39619 39679 39728 39670 39529 39422 39327 39228 39146 39034 38974 38921 38888 38785 38763 38791 38787 38817 38756 38634 38501 38442 38454 38466 38538 38560 38607 38699 38893 39061 39168 39231 39177 39043 38978 38922 38919 38901 38936 38922 38856 38811 38791 38873 38961 39002 39110 39101 38999 38979 38905 38860 38724 38664 38564 38568 38608 38815 39292 39920 40605 41161 41445 41569 41866 42198 42415 42543 42529 42420 42363 42206 42144 42085 42057 41977 41931 41811 41815 41801 41807 41857 41972 42120 42337 42549 42928 43137 43136 42855 42644 42361 42120 42026 41879 41720 41632 41675 41743 41870 41941 41986 41908 41791 41678 41604 41541 41504 41438 41437 41442 41441 41546 41674 41848 42056 42156 42245 42381 42615 43027 43305 43629 43563 43270 42864 42563 42289 42062 41863 41694 41500 41266 40955 40688 40418 40258 40307 40460 40763 40935 41027 40940 40810 40656 40505 40252 40034 39818 39680 39578 39526 39433 39331 39229 39129 39066 38904 38985 38968 38844 38691 38557 38503 38479 38485 38497 38458 38419 38403 38408 38428 38458 38436 38300 38134 37936 37944 37935 37897 37944 37891 37928 37962 37995 38007 38024 38008 37880 37755 37668 37597 37563 37571 37561 37590 37564 37580 37581 37601 37637 37689 37658 37530 37397 37317 37285 37311 37342 37387 37386 37394 37416 37451 37488 37470 37445 37372 37284 37248 37242 37278 37290 37354 37490 37603 37687 37770 37866 37843 37754 37697 37611 37608 37595 37582 37627 37711 37751 37725 37781 37757 37803 37840 37958 38039 38085 38127 38135 38166 38148 38079 38070 38049 38041 38001 38019 38004 37931 37892 37887 37896 37870 37809 37794 37786 37751 37792 37837 37919 37931 37844 37783 37783 37776 37785 37814 37845 37947 38018 38113 38151 38201 38267 38184 38161 38137 38064 38113 38124 38155 38172 38170 38203 38255 38256 38255 38159 38095 38030 38054 38042 38020 38104 38163 38205 38232 38259 38321 38298 38242 38201 38136 38149 38110 38098 38133 38172 38216 38197 38274 38337 38385 38395 38324 38288 38167 38142 38066 38084 38134 38113 38089 38230 38231 38153 38269 38313 38107 38091 38072 38048 38079 38044 38064 38076 38086 38124 38114 38172 38197 38104 38057 38026 37979 37919 37995 37995 38083 38129 38098 38146 38108 38136 38053 38020 38069 38121 38195 38247 38313 38347 38357 38355 38364 38359 38377 38414 38405 38332 38213 38196 38186 38263 38341 38563 38884 39212 39483 39883 40179 40319 40454 40486 40523 40531 40465 40406 40396 40454 40458 40451 40513 40508 40451 40387 40293 40209 40149 40213 40257 40312 40438 40528 40592 40735 40621 40741 40664 40719 40772 40759 40832 40852 40912 40879 40840 40926 40979 40939 41005 41048 41026 40965 40951 40909 40889 40876 40851 40906 40878 40894 40910 40967 40842 40663 40627 40507 40406 40397 40370 40326 40457 40494 40500 40526 40511 40448 40321 40182 40130 40034 40010 39934 39960 39916 39910 39846 39815 39827 39807 39672 39622 39504 39489 39467 39497 39444 39404 39433 39462 39424 39381 39463 39364 39231 39108 39069 38980 38970 38978 39042 39079 39142 39161 39245 39265 39192 39128 39106 39035 39028 38986 39039 39083 39064 39077 39062 38964 38989 38926 38847 38866 38907 39040 39368 39637 39877 39984 40069 40175 40185 40198 40133 39997 39898 39794 39721 39710 39629 39632 39641 39719 39765 39845 39947 39900 39756 39875 39975 40011 40021 40095 40075 40060 39967 39968 39908 39876 39740 39620 39501 39511 39463 39469 39453 39507 39454 39416 39386 39398 39376 39378 39284 39176 39122 39090 39105 39054 39076 39086 39103 39128 39136 39180 39142 39078 38958 38885 38870 38846 38863 38856 38889 38915 38931 38917 38946 38966 38918 38807 38750 38715 38740 38779 38770 38819 38832 38811 38840 38854 38868 38745 38666 38577 38592 38662 38794 38863 38865 38755 38726 38603 38563 38510 38485 38344 38178 38115 38055 37991 37917 37968 37904 37920 37775 37883 37916 37982 37943 37767 37798 37751 37721 37723 37719 37803 37829 37861 37812 37902 37951 38139 38954 39675 40709 41316 41763 41837 41763 41606 41490 41376 41286 41217 41074 40923 40771 40626 40496 40418 40435 40628 40732 40952 41283 41467 41577 41501 41375 41209 41101 40997 40877 40777 40696 40578 40517 40449 40378 40351 40317 40194 40081 39942 39867 39802 39754 39879 40162 40506 40665 40867 40934 41005 40836 40690 40498 40308 40111 40024 40054 40062 40094 40034 40021 39933 39909 39964 39906 39894 39799 39719 39653 39619 39508 39416 39379 39306 39241 39167 39139 39026 38921 38805 38815 38778 38579 38758 38753 38911 39390 39904 40451 40686 40698 40322 40007 39799 39658 39639 39741 40039 40572 40873 40900 40667 40478 40293 40086 39795 39659 39598 39570 39467 39414 39463 39592 39735 39935 40012 40232 40156 40422 40339 40339 40281 40358 40324 40397 40411 40436 40455 40381 40325 40403 40566 40570 40592 40619 40539 40456 40466 40505 40549 40687 41105 42222 42803 43253 43384 42867 42563 42305 42066 41775 41595 41515 41418 41241 41153 41096 41131 41200 41121 41027 41017 41089 41192 41297 41531 41649 41676 41758 41831 41872 41832 41792 41684 41624 41519 41506 41479 41445 41483 41562 41805 41908 41925 41964 42019 42035 42052 42051 42001 42034 42052 42044 42099 42063 42041 41968 41816 41657 41469 41341 41285 41264 41364 41487 41633 41764 41924 42043 42133 42022 41875 41721 41616 41554 41587 41636 41664 41637 41638 41519 41513 41550 41481 41449 41456 41531 41546 41470 41444 41399 41322 41298 41272 41225 41235 41161 41084 40997 40983 40907 40814 40783 40750 40780 40847 40946 41038 41121 41197 41280 41279 41332 41322 41261 41196 41156 41151 41142 41125 41082 41106 40991 40943 40888 40904 40944 41028 41151 41308 41460 41609 41678 41733 41732 41668 41612 41559 41497 41507 41490 41467 41443 41409 41358 41348 41352 41389 41407 41433 41586 41655 41737 41835 41864 41862 41809 41816 41771 41786 41780 41745 41713 41640 41574 41483 41446 41383 41373 41342 41369 41453 41464 41489 41476 41403 41399 41369 41327 41353 41346 41366 41380 41389 41404 41370 41313 41235 41199 41224 41238 41375 41640 42053 42320 42512 42581 42627 42530 42467 42360 42329 42289 42243 42291 42273 42275 42258 42238 42259 42311 42433 42528 42696 42862 43020 43290 43466 43588 43587 43588 43608 43623 43735 43854 43834 43776 43726 43696 43625 43478 43335 43230 43216 43296 43456 43683 43755 43765 43743 43741 43771 43692 43650 43654 43645 43663 43648 43610 43579 43425 43261 43031 42910 42797 42807 42771 42635 42586 42611 42679 42781 42772 42630 42508 42502 42517 42575 42686 42674 42779 42698 42692 42538 42502 42439 42355 42226 42334 42331 42604 42751 42796 42834 42823 42814 42816 42698 42261 42252 42137 42029 41997 41926 41914 41943 41900 41797 41684 41632 41437 41266 41015 40839 40645 40527 40432 40362 40326 40281 40260 40229 40043 39800 39688 39507 39437 39408 39461 39522 39603 39622 39590 39628 39468 39263 39125 39024 38960 38874 38913 38951 38993 39005 39075 39060 39095 39122 39123 39227 39300 39510 39706 39831 39883 39874 40017 39912 39897 39761 39714 39666 39686 39637 39678 39777 39778 39696 39870 39990 40228 40324 40427 40643 40754 40850 40969 40779 40848 40717 40817 40945 40735 40704 40592 40669 40702 40697 40526 40810 41007 41410 41645 41761 41843 41573 41592 41516 41383 41339 41320 41267 41219 41182 41287 41319 41175 41087 41070 40882 40989 40843 41151 41390 41466 41747 41872 41968 41961 41431 41659 41558 41479 41555 41548 41694 41666 41587 41749 41782 41355 41414 41388 41354 41422 41343 41642 41829 42053 42200 42276 41938 41965 41771 41750 41667 41779 41822 41922 42013 42062 41990 41792 41867 41735 41627 41677 41557 41694 41745 41877 41829 42108 42221 42159 42150 41970 41947 41906 41929 41759 41799 41953 42048 42175 42179 41686 41730 41586 41471 41547 41475 41603 41726 41833 41950 42032 42001 41911 41762 41634 41455 41573 41520 41563 41486 41322 41597 41593 41543 41343 41014 40993 41012 41115 41209 41361 41483 41555 41591 41585 41408 41286 41196 41082 41101 41178 41253 41442 41626 41784 41675 41552 41439 41241 41146 40970 40808 40966 41190 41231 41356 41356 41352 41234 41087 40929 40820 40708 40649 40683 40741 40842 40884 40958 40941 40779 40633 40682 40479 40453 40599 40917 41378 41441 41343 41538 41515 41475 41405 41239 41164 41103 41066 41074 41063 41082 41086 40993 40843 40686 40491 40391 40336 40336 40425 40531 40571 40548 40645 40589 40569 40575 40415 40481 40456 40489 40427 40482 40484 40427 40215 40036 39912 39780 39690 39668 39776 39928 40195 40717 41136 41426 41520 41491 41708 41760 41792 41772 41660 41640 41565 41512 41575 41582 41519 41521 41515 41494 41456 41421 41512 41415 41471 41553 41603 41540 41544 41501 41545 41443 41352 41369 41305 41201 41099 40955 40831 40621 40568 40522 40538 40409 40501 40569 40492 40461 40481 40451 40264 40200 40143 40170 40206 40190 40152 40105 40064 40049 40006 39831 39785 39820 39995 40172 40370 40517 40736 41013 41341 41676 42092 42365 42531 42825 42796 42904 42871 42843 42829 42859 42900 42865 42722 42540 42348 42126 41985 41940 41989 42032 42147 42175 42143 41858 41544 41357 41242 41134 40974 40886 40771 40686 40575 40512 40326 40107 39884 39726 39603 39512 39435 39361 39286 39194 39206 39041 38939 38740 38615 38456 38418 38341 38245 38286 38188 38145 38088 37840 37757 37508 37391 37283 37197 37160 37120 37157 37147 37281 37339 37268 37343 37312 37469 37415 37444 37463 37464 37520 37574 37622 37539 37348 37156 37189 37114 37084 37159 37132 37126 37117 37154 37069 36972 36833 36767 36713 36633 36644 36681 36721 36754 36788 36845 36849 36801 36749 36786 36794 36820 36841 36835 36833 36839 36814 36733 36663 36609 37462 38483 39293 39941 40451 40853 41197 41611 41867 42196 42370 42720 42843 43167 43249 43378 43407 43390 43436 43520 43545 43615 43573 43548 43674 43685 43828 43825 43862 43788 43799 43823 43819 43796 43617 43533 43478 43425 43393 43378 43521 43585 43727 43878 44048 44119 44130 44151 44158 44107 44090 44075 43945 43772 43575 43399 43189 42867 42490 42207 41976 41818 41693 41565 41467 41387 41290 41211 41114 40887 40712 40553 40442 40590 41069 41634 42049 42289 42426 42558 42521 42406 42328 42307 42287 42290 42336 42355 42382 42404 42411 42387 42262 42092 41994 41916 41861 41831 41825 41861 41841 41881 41939 41962 41878 41864 41767 41715 41713 41736 41764 41771 41785 41782 41786 41668 41632 41581 41636 41777 42006 42302 42429 42503 42475 42459 42267 41989 41731 41532 41390 41305 41227 41187 41133 41119 41069 41032 40896 40715 40588 40500 40432 40399 40389 40352 40329 40297 40282 40209 40057 39915 39820 39806 39813 39814 39832 39854 39885 39895 39881 39770 39649 39554 39506 39524 39554 39619 39673 39719 39769 39824 39776 39674 39568 39519 39516 39506 39535 39549 39583 39624 39652 39645 39553 39457 39409 39351 39326 39308 39344 39346 39376 39394 39402 39332 39189 39097 39022 38992 39057 39043 38895 38717 38526 38332 38162 37903 37693 37438 37273 37230 37153 37162 37370 37582 37807 38056 38361 38749 39181 39713 40172 40546 40936 41243 41467 41645 41836 41878 41740 41666 41608 41574 41530 41503 41462 41347 41248 41169 41103 41085 41013 40946 40873 40798 40770 40745 40689 40647 40634 40613 40634 40598 40485 40433 40492 40486 40515 40764 40941 41239 41727 42254 42253 42182 42347 42623 43037 43583 43960 43853 43534 43246 43246 43589 43710 43555 43375 43224 43065 42951 42978 43249 43352 43458 43539 43492 43429 43149 42894 42682 42672 42946 43170 43422 43593 43619 43492 43374 43194 42951 42672 42469 42304 42234 42177 42134 42125 42091 42106 42096 42089 41919 41765 41642 41581 41513 41479 41441 41484 41476 41532 41738 41810 41775 41605 41702 41900 42067 42152 42060 41783 41524 41296 41028 40743 40393 39984 39605 39368 39200 39041 38921 38810 38692 38482 38301 38180 38007 37728 37435 37200 37000 36877 36802 36941 37154 37344 37501 37485 37422 37197 37119 36865 36849 36822 36874 36906 36895 36900 36895 36921 36907 36790 36635 36527 36441 36410 36389 36383 36351 36337 36295 36278 36355 36303 36203 36076 36015 36010 35951 35910 35882 35902 35975 35984 36485 37685 38664 39533 40005 39884 39781 39634 39449 39319 39306 39301 39343 39384 39411 39308 39270 39259 39276 39265 39117 38975 38904 38845 38898 38931 38840 38753 38649 38563 38483 38438 38446 38456 38422 38357 38303 38252 38256 38115 37932 37795 37720 37639 37747 37792 37936 38085 38323 38775 39564 39699 39818 40043 40315 40496 40537 40642 40647 40643 40565 40477 40391 40272 40004 39789 39609 39461 39345 39284 39201 39111 39027 38926 38879 38806 38643 38420 38328 38176 38127 38113 38197 38317 38507 38657 38789 38817 38714 38568 38486 38410 38426 38437 38523 38530 38562 38573 38582 38604 38594 38480 38375 38325 38165 38326 38448 38634 38789 38960 39087 39099 39093 38954 38634 38577 38666 38746 38864 38935 38911 38953 38877 38824 38653 38686 38691 38742 38848 38936 39042 39198 39442 39854 40124 40268 40422 40316 40178 39997 39890 39734 39647 39596 39536 39370 39287 39210 39199 39145 38904 38659 38397 38182 38065 37983 37975 37953 37992 38024 38090 38108 38013 37931 37921 37997 37995 38037 37968 37980 37988 37986 37984 37974 37821 37651 37548 37446 37412 37375 37467 37615 37689 37768 37895 37822 37795 37985 38346 38539 38776 39067 39283 39403 39739 40231 40646 40892 41095 41322 41447 41305 41103 41026 40923 40757 40701 40568 40434 40277 40098 39935 39950 39947 40014 40241 40631 41090 41357 41436 41161 41062 41072 41137 41042 40843 40816 40925 40899 40882 40905 40849 40898 40843 40608 40375 40169 40072 39973 40082 40270 40669 41323 41898 42272 42551 42683 43035 43315 43407 43466 43473 43380 43402 43061 43554 43338 43360 43175 43121 43074 43017 43010 43003 42976 42980 43009 43011 43037 42944 42972 43093 43428 43682 43892 44055 44145 44105 44125 44030 43884 43685 43520 43481 43321 43236 43229 43197 43089 43023 42933 42796 42445 42036 41732 41528 41519 41414 41618 41801 41997 42160 42429 42445 42449 42411 42384 42385 42422 42464 42399 42422 42608 42558 42503 42336 42066 41865 41776 41553 41537 41462 41466 41415 41707 41942 42299 42349 42238 42072 41914 41812 41785 41765 41750 41713 41693 41648 41573 41060 40936 40723 40578 40598 40456 40392 40409 40414 40450 40341 40254 40007 40115 40178 40333 40504 40821 41122 41360 41762 41718 41863 41677 41703 41506 41439 41403 41317 41203 41153 41145 41103 41024 40808 40501 40158 39945 39793 39796 39864 39972 40015 39953 39910 39765 39485 39303 39157 39100 38996 38972 38969 38945 39033 39153 39109 38873 38664 38432 38277 38191 38148 38103 38107 38160 38235 38298 38405 38496 38595 38739 38948 39125 39282 39383 39428 39432 39469 39400 39266 39168 38992 38904 38827 38836 38804 38772 38801 38810 38840 38684 38613 38692 38831 39009 39281 39600 39895 40094 40258 40310 40130 39930 39777 39609 39446 39519 39472 39562 39634 39700 39681 39418 39421 39402 39257 39349 39574 39638 39885 40087 40555 40990 41252 41316 41450 41414 41448 41543 41589 41547 41624 41649 41673 41584 41352 41164 40981 40849 40776 40800 40819 40776 40841 40948 41049 41063 41064 41019 40973 40986 41082 41179 41142 41042 40890 40698 40417 40208 40276 40161 40351 40388 40302 40139 39974 39949 39748 39464 39302 39241 39152 39202 39279 39294 39370 39350 39463 39341 39126 38912 38781 38689 38640 38682 38876 38911 38912 38912 38728 38368 38063 37866 37767 37720 37669 37635 37739 37847 37932 37893 37730 37634 37530 37464 37418 37415 37404 37363 37440 37693 37675 37667 37647 37697 37643 37562 37530 37568 37757 37907 38215 38694 39027 39400 39543 39701 39845 39983 40020 40068 39962 39762 39447 39106 38915 38756 38642 38438 38345 38171 38031 37939 37856 37700 37466 37378 37614 37872 38329 38907 39327 39562 39743 39837 39817 39684 39493 39231 39033 38863 38781 38607 38457 38321 38111 37842 37711 37641 37573 37551 37597 37781 38183 38798 39522 39947 40201 40325 40436 40480 40563 40579 40554 40551 40504 40495 40387 40118 39822 39595 39371 39193 39099 39040 38967 38942 39008 38998 38920 38940 38925 39071 39194 39342 39373 39434 39380 39287 39102 38924 38801 38720 38534 38411 38299 38198 38153 38173 38146 37975 37986 38022 38417 38938 39410 39755 39850 39878 39800 39575 39233 38959 38683 38492 38354 38243 38120 37974 37841 37641 37326 36998 36720 36512 36354 36225 36271 36286 36387 36436 36482 36434 36363 36332 36326 36276 36200 36142 36098 36111 36195 36162 36014 35860 35779 35738 35715 35722 35792 35954 36148 36413 36722 37449 38518 39256 39757 39978 40108 40146 40182 40250 40198 40163 40209 40476 40673 40704 40737 40769 40663 40571 40577 40584 40614 40758 41195 41749 42071 42407 42681 42821 42937 42974 42766 42582 42596 42703 42903 43107 43284 43283 43203 43066 42928 42653 42380 42133 42032 42101 42250 42411 42532 42632 42651 42619 42423 42224 42014 41825 41646 41509 41415 41337 41197 41019 40755 40390 40033 39768 39618 39605 39664 39936 40268 40562 40585 40496 40454 40427 40396 40379 40266 40161 40043 40049 40023 39961 39582 39215 38894 38622 38498 38425 38479 38522 38656 38991 39075 39205 39290 39232 39121 39128 39096 39059 38968 38878 38769 38561 38332 38081 37863 37752 37667 37681 37717 37759 37897 37997 38168 38258 38488 38618 38792 38834 38941 38946 38913 38812 38648 38478 38492 38497 38459 38391 38282 38146 38015 37910 37682 37374 37150 37000 36944 36858 36877 36878 36858 36870 36971 36737 36551 36363 36200 36256 36723 37153 37391 37599 37692 37894 38080 38032 37849 37853 37922 37999 38024 37877 37692 37520 37287 37034 36842 36712 36588 36512 36384 36318 36282 36342 36256 36145 36053 36104 36110 36081 36427 36610 36927 37166 37357 37441 37544 37601 37780 38021 38140 38174 38228 38172 38033 37807 37636 37500 37282 37143 36958 36930 36891 36886 36836 36829 36739 36758 36722 36841 36887 37162 37273 37436 37632 37664 37375 37111 36874 36755 36722 36771 36918 36935 37077 37165 37090 37100 37138 37153 37120 37068 37385 37503 38004 38205 38319 38275 38188 38126 38017 37865 37632 37522 37378 37325 37320 37178 36968 36681 36462 36349 36227 36185 36187 36141 36324 36212 36473 36460 36611 36794 36834 37040 37084 37077 37015 36907 36726 36274 36391 36215 36298 36212 36234 36206 36296 36410 36341 36172 36119 36248 36572 37203 37821 38483 38932 39222 39430 39394 39236 39038 38917 38783 38699 38690 38605 38472 38257 38032 37711 37556 37454 37346 37404 37480 37787 38122 38463 38740 38718 38716 38663 38578 38289 38022 37799 37623 37573 37528 37312 37057 36833 36686 36553 36489 36533 36559 36615 36880 37158 37140 37484 37766 38119 38527 38773 39022 39132 39051 38915 38720 38698 38593 38603 38529 38413 38355 38245 38204 38163 38167 38173 38385 38774 38934 39218 39459 39649 39749 39877 39840 39629 39362 39067 38811 38668 38579 38477 38378 38246 38130 37925 37664 37456 37274 37157 37290 37583 37835 38174 38324 38287 38054 37829 37662 37508 37470 37347 37296 37159 37142 37114 37082 36877 36726 36624 36588 36640 36749 36858 36970 37070 37154 37183 37280 37375 37476 37576 37592 37539 37507 37431 37370 37286 37280 37309 37459 37567 37618 37627 37558 37644 37628 37615 37798 37982 38230 38559 38934 39273 39477 39537 39736 39613 39507 39386 39270 39018 38954 38854 38862 38822 38771 38597 38257 38060 37850 37739 37698 37659 37614 37620 37618 37940 38035 38196 38448 38653 38741 38728 38737 38636 38474 38286 38071 37814 37580 37400 37248 37093 37017 36916 36822 36718 36549 36454 36384 36653 37006 37578 38352 38986 39366 39734 39939 39866 39841 40077 40389 40587 40294 39824 39509 39320 39159 38862 38449 38070 37771 37457 37281 37210 37119 37503 37894 38212 38448 38564 38612 38757 38849 38759 38643 38407 38298 38126 37784 37518 37253 37149 37091 37109 37253 37313 37461 37521 37631 37730 37805 38358 38491 38873 39183 39275 39266 39314 39053 38806 38479 38232 38071 37995 37989 37956 37730 37705 37718 37578 37418 37367 37376 37517 37843 37951 38070 38165 38285 38175 37879 37757 37599 37498 37529 37619 37708 37673 37839 37675 37545 37534 37695 37764 38070 38532 38787 39164 39513 39997 40261 40274 40471 40719 40925 41048 41112 41042 41049 40945 40710 40410 40335 40207 40172 40167 40142 40036 39940 39869 39670 39503 39414 39374 39685 40076 40219 40603 40867 41089 41046 40812 40579 40346 40111 39920 39868 39823 39689 39590 39402 39114 38918 38740 38778 38736 38729 38906 39317 39673 39979 40011 40060 39766 39524 39342 39216 39090 38877 38927 38984 38844 38832 38664 38459 38428 38491 38446 38533 38670 38723 38610 38712 38645 38899 38762 39134 39555 39885 40077 40094 39919 39617 39345 39043 38923 38901 38773 38648 38731 38684 38621 38522 38524 38512 38529 38569 38850 39154 39975 40775 41161 41231 41299 41360 41305 41260 41306 41001 41230 41015 41089 40634 40319 40059 39840 39620 39483 39282 39126 39085 38955 38944 38366 38563 38886 39016 39378 39499 39299 39498 39271 39111 38888 38637 38571 38486 38614 38706 38870 38896 39058 39100 38988 38996 39270 39487 39986 40156 40668 40530 40785 40844 40565 40472 40268 40154 40079 39942 39981 39899 39851 39509 39124 38755 38537 38515 38474 38515 38567 38690 38890 39147 39185 39115 39144 39006 39268 39191 39163 39106 39078 38880 38680 38436 38207 38096 37927 37817 37698 37671 37603 37484 37087 36898 36736 36774 36940 37100 37147 37111 37145 37076 36886 36796 36331 36756 36699 36891 36961 36993 37031 36861 36588 36376 36288 36202 36143 36280 36471 36831 37213 37574 37632 37633 37656 37721 37691 37700 37633 37549 37509 37336 37110 36851 36599 36541 36487 36544 36512 36613 36534 36567 36373 36409 36455 36625 36814 37047 37283 37521 37732 37906 37946 37914 37821 37818 37857 37901 38003 38048 38106 38100 38058 37945 37887 37924 38053 38222 38470 38772 39021 39347 39522 39649 39712 39844 39934 39992 39938 39914 39836 39898 39783 39597 39552 39461 39380 39358 39257 39139 39085 39022 38829 38598 38392 38417 38619 38978 39373 39701 39852 40110 40147 39988 39724 39480 39308 39140 39025 38941 38877 38800 38571 38227 37925 37747 37655 37592 37645 37676 37782 38008 38207 38300 38324 38309 38355 38353 38306 38169 38072 37813 38046 37964 37867 37671 37657 37691 37687 37578 37826 37954 37997 37759 37530 37421 37274 37068 37144 37435 37467 37481 37445 37231 37024 36808 36672 36631 36625 36585 36689 36684 36737 36522 36353 36219 36207 36029 36160 36405 36593 36728 36778 36747 36527 36649 36484 36839 37117 37154 37370 37255 37300 37334 37081 36932 36787 36863 36778 36927 37015 37287 37453 37512 37505 37471 37916 38601 39398 39863 41162 41485 42106 42137 42015 41975 41858 41838 41851 41570 41513 41970 42060 42016 41558 41434 41394 41323 41374 41306 41605 41535 41821 41971 41886 41721 41681 41659 41714 41708 41692 41493 41455 41640 41336 41040 40831 40809 40770 40800 40758 40684 40677 40651 40563 40411 40164 40059 40058 40151 40302 40567 40726 40777 40476 40216 40205 40187 39936 39937 39786 40015 40070 40279 40289 40027 39728 39409 39456 39492 39588 39551 39695 39722 39848 39873 39767 39489 39599 39447 39666 39810 39872 39912 40074 40018 39691 39382 38966 39064 39045 39039 38939 38976 38891 38782 38489 38191 37988 37919 37840 37876 37941 37706 37970 37912 37800 37573 37419 37355 37348 37435 37947 39709 40833 41208 41382 41404 41709 42375 42726 42963 42827 42548 42345 42271 42151 41778 41663 41476 41392 41345 41257 41281 41277 41339 41294 41067 40706 40655 40990 41526 42076 42364 42625 42543 42011 41762 41023 41093 40617 40795 40829 40945 40965 40926 41037 41123 40816 40462 40217 39960 39864 39821 39986 40088 40211 40278 40308 40212 40361 40525 40835 40996 41055 40913 40905 40841 40519 40183 39772 39426 39245 39160 39065 38982 38785 38861 38975 38838 38633 38526 38491 38634 38709 39011 39110 39380 39618 39519 39515 39539 39818 40185 40543 40754 41009 41141 41274 41303 41096 40863 40633 40426 40307 40157 40058 39976 39957 39960 39725 39431 39163 39006 38943 38829 38762 38616 38578 38501 38357 38116 38014 38199 38521 38919 39175 39280 39293 39318 39339 39082 38678 38234 38120 38089 38101 38136 38220 38378 38513 38301 38040 37340 37596 37189 37452 37334 37817 37529 38045 37801 38117 37841 37924 38137 38038 38181 38083 38047 38099 38017 38012 37694 37497 37537 37523 37550 37705 37773 37845 37925 37912 37749 37627 37550 37632 38306 39676 40421 40950 40919 40959 40873 40691 40536 40236 40180 40195 40177 40169 40173 40225 40265 40154 40145 40230 40180 40160 40183 40051 40054 40078 40348 40749 41044 41363 41673 42122 42590 43074 43298 43265 43256 43055 42699 42427 42106 41994 42033 41940 41886 41872 41809 41866 42100 41991 42354 42221 42466 42955 42918 42872 42968 42928 42931 42689 42432 42266 42085 42059 41973 41780 41554 41453 41364 41342 41339 41437 41575 41843 41873 42024 42401 42487 42522 42636 42424 42198 42158 42141 42236 42430 42437 42564 42626 42671 42701 42509 42144 41798 41419 41148 40959 40770 40629 40548 40551 40563 40292 40191 40342 40269 40256 40520 40090 39954 40290 40239 40455 40618 40599 40193 40291 40476 41392 41825 42383 42457 42833 43021 42632 42343 42233 42176 42208 42308 42445 42603 42740 42867 42874 42768 42832 42894 43061 43169 43191 43275 43189 43031 42687 42132 41677 41299 41146 41071 40957 40822 40713 40602 40486 40120 39679 39377 39188 39002 38934 38879 38832 38792 38819 38746 38709 38730 39187 39659 40249 40794 41218 41545 41715 41799 41789 41443 41258 41253 41324 41473 41618 41733 41703 41815 41732 41646 41339 41116 40924 40644 40603 40539 40561 40618 40827 41091 40974 40793 40602 40503 40398 40361 40313 40203 40122 40077 40019 39701 39312 39052 38851 38690 38578 38484 38417 38418 38552 38676 38678 38741 38902 39144 39437 39677 39834 40045 40262 40446 40529 40372 40142 40032 39912 39992 40089 40237 40461 40655 40833 40709 40264 39797 39390 39042 38741 38489 38276 38236 38346 38611 38679 38621 38721 38976 39287 39712 40268 40768 40826 41192 41404 41436 41011 40852 40621 40663 40681 40822 40768 40729 40705 40661 40426 40119 39847 39535 39331 39273 39220 39214 39261 39242 39418 39472 39539 39708 39913 40084 40230 40365 40385 40342 40222 39987 39453 38995 38615 38398 38317 38206 38115 37996 37884 37802 37615 37307 37039 36891 36797 36786 36863 37027 37256 37465 37687 37673 37536 37460 37382 37374 37428 37471 37533 37509 37584 37582 37544 37223 37084 37002 36987 36977 36989 36955 36775 36650 36645 36568 36352 36315 36208 36413 36630 36980 37169 37474 37624 37745 37665 37510 37413 37382 37226 37178 37118 37084 37364 37746 38049 37938 37706 37432 37212 36966 36787 36617 36439 36341 36264 36260 36061 35949 35960 36079 36234 36406 36623 36747 36911 37015 37077 36902 36602 36444 36390 36520 36566 36685 36811 36849 36870 36816 36674 36520 36389 36440 36550 36621 36813 36951 37072 37172 37180 37046 36879 36794 36738 36749 36718 36868 36843 36912 36990 37020 36958 36803 36678 36593 36613 36632 36686 36797 37119 37348 37596 37727 37787 37704 37774 37761 37858 37893 37866 37769 37928 38049 38068 37854 37642 37487 37447 37459 37456 37405 37603 37808 37973 37973 37728 37577 37497 37477 37577 37740 37856 37970 38099 38390 38598 38828 39083 39356 39691 39983 40092 39790 39799 39814 39900 39847 39525 39278 39246 39031 38963 38878 38845 38844 38781 38689 38577 38304 38012 37873 37853 38205 38694 39408 39857 40434 40780 40976 40983 40791 40665 40483 40456 40344 40315 40166 40066 39844 39693 39328 39022 38709 38580 38523 38481 38545 38589 38539 38527 38597 38397 38180 37958 37857 37645 37527 37392 37250 37188 37059 37054 36877 36745 36721 36787 36803 36770 36766 36757 36782 36770 36819 36706 36594 36593 36487 36577 36792 37156 37462 37549 37705 37827 37895 37822 37845 38091 38314 38564 39049 39323 39546 39850 39977 40146 40045 40043 39979 40008 40082 40414 40584 40965 41215 41420 41556 41548 41488 41487 41476 41520 41663 41690 41721 41710 41774 41819 41706 41453 41310 41166 41070 40983 40913 40834 40865 40770 40624 40576 40625 40544 40590 40389 40447 40294 40145 40037 39959 39892 39677 39429 39177 38990 38829 38654 38415 38260 38180 38105 38131 38100 37896 37560 37347 37319 37397 37412 37458 37444 37294 37220 37244 37279 37373 37558 37715 37899 38047 38171 38163 38153 38229 38322 38315 38164 38076 38011 38044 38009 37971 38063 38143 38256 38327 38334 38285 38410 38787 39326 39898 40366 40677 40904 41051 41220 41250 41025 40775 40658 40604 40649 40660 40464 40259 40130 40024 39975 39745 39429 39153 38997 38862 38747 38672 38632 38556 38489 38435 38355 38077 37770 37555 37376 37254 37180 37172 37116 37170 37256 37425 37580 37599 37638 37805 37910 38094 38325 38495 39011 39455 40220 40701 40943 40943 41158 41153 41341 41478 41345 41096 40827 40684 40537 40324 40052 39848 39528 39319 39226 39081 38762 38663 38530 38511 38336 38172 37946 37777 37657 37514 37458 37404 37393 37340 37438 37587 37675 37452 37340 37173 37179 37168 37217 37195 37155 37153 37207 37179 37134 36902 36789 36704 36696 36733 36774 36704 36720 36813 37074 37182 37031 36907 36802 36939 37015 37116 37229 37293 37345 37432 37554 37525 37517 37527 37632 37752 37840 37826 37868 37750 37673 37548 37494 37294 37016 36918 36758 36789 36840 36970 37052 37142 37104 37199 37098 36948 36893 36988 37102 37226 37407 37446 37648 37758 37887 37944 37830 37590 37399 37309 37419 37427 37369 37314 37312 37361 37376 37466 37553 37654 37598 37493 37592 37555 37814 38001 38029 38010 38093 38053 37846 37771 37645 37605 37580 37580 37734 37825 37944 37882 37904 37844 37808 37889 37775 37785 37698 37841 38091 38116 38193 38180 38181 38068 37935 37910 37958 38095 38263 38319 38349 38459 38449 38572 38624 39191 40325 41227 41694 41949 42119 42830 43546 44101 44475 44636 44497 44096 43622 43338 43074 42830 42539 42290 42075 41912 41798 41696 41440 41180 40918 40831 40823 41171 41381 41542 42129 42277 42039 41632 41330 40862 40457 40084 39720 39400 39171 38955 38937 39078 39279 39041 39427 40315 40965 41747 42597 43224 43675 43847 43808 43443 43379 43199 42988 42730 42562 42345 42399 42057 42059 41927 41837 41755 41832 41591 41156 40770 40545 40446 40211 40290 40253 40084 40039 40027 39915 39652 39418 39365 39164 39070 38878 39222 39474 39495 39972 39924 39952 39704 39702 39550 39564 39564 39501 39483 39402 39349 39383 39300 39397 38725 38834 38719 38675 38725 38675 38608 38630 38603 38560 38389 38328 38140 38029 37878 38202 38290 38329 38506 38492 38519 38519 38576 38441 38159 37965 37882 37792 37905 38138 38249 38551 38604 38617 38666 38450 38348 38233 38686 38913 39167 39027 39034 38954 39061 39273 39224 39155 39092 38901 39264 39287 39469 39712 40072 40115 40078 40179 40121 40166 39968 39802 39656 39482 39349 39164 38950 38803 38689 38642 38575 38482 38339 38233 38305 38349 38349 38399 38409 38368 38341 38395 38331 38350 38138 38010 37901 37841 37885 37868 37857 37776 37783 37783 37799 37675 37527 37425 37353 37325 37298 37252 37362 37659 37724 37800 37804 37729 37527 37435 37334 37306 37288 37306 37283 37375 37372 37545 37582 37514 37290 37188 37192 37199 37301 37332 37397 37382 37427 37415 37533 37409 37307 37142 37099 37108 37147 37213 37264 37309 37375 37374 37366 37245 37087 37009 36965 36984 36994 36998 37044 37073 37051 37084 37109 37053 36962 36945 36979 37003 37110 37167 37253 37377 37538 37804 37909 37746 37680 37613 37516 37556 37544 37571 37574 37578 37641 37657 37746 37761 37680 37609 37580 37561 37630 37675 37810 37933 37976 38105 38257 38354 38288 38304 38058 38408 38624 38776 38764 38823 38905 38880 38834 38761 38579 38300 38094 37898 37778 37691 37630 37565 37526 37482 37515 37515 37395 37252 37178 37150 37166 37167 37141 37146 37126 37134 37166 37209 37234 37123 37030 36989 37025 37030 37095 37095 37121 37156 37145 37109 37067 37036 36894 36755 36705 36676 36680 36715 36765 36843 36856 36893 36936 37006 36937 36877 37017 37401 38056 38443 38797 38825 38638 38408 38176 37998 37810 37742 37777 37820 37840 37948 37983 38059 38026 38017 38026 38126 38168 38191 38356 39041 40490 41559 42418 42960 43232 43102 42552 42509 42253 41891 41594 41410 41294 41025 40775 40465 40216 40012 39846 39699 39516 39105 38701 38421 38242 38150 38090 38034 37939 37796 37681 37582 37455 37261 37083 37005 37087 37073 37121 37125 37136 37212 37321 37377 37549 37425 37281 37121 37201 37166 37154 37283 37281 37350 37291 37328 37462 37473 37288 37132 37029 37089 37171 37445 37711 38106 38321 38458 38612 38528 38190 37864 37650 37521 37437 37351 37285 37182 37124 37122 37165 36931 36559 36271 36068 36169 36297 36450 36576 36657 36763 36826 36909 37095 37176 37319 37312 37316 37236 37177 37066 37058 37074 37127 37189 37238 37172 37142 37103 37104 37155 37168 37187 37225 37243 37304 37381 37433 37345 37086 36998 37043 37087 37124 37202 37251 37327 37306 37304 37314 37376 37363 37446 37556 37791 37988 38161 38312 38373 38279 38191 38181 38114 37960 37852 37860 37844 37868 37816 37845 37831 37960 38062 38162 38251 38288 38282 38242 38191 38004 37937 37923 37952 37974 38030 38062 38126 38182 38145 38060 38074 38006 38020 37989 38048 38045 38114 38065 38010 38053 37930 37794 37658 37570 37514 37476 37353 37332 37304 37318 37317 37360 37395 37289 37125 37013 36941 36902 36988 36977 36952 36964 36947 36900 36865 36766 36590 36357 36398 36513 36652 36793 36877 37010 37135 37233 37487 37654 37603 37465 37302 37208 37205 37218 37258 37225 37263 37226 37215 37219 37197 37050 36943 36831 36847 36827 36863 36895 36930 36926 36955 36931 36912 36878 36721 36640 36612 36580 36610 36608 36609 36556 36613 36568 36657 36614 36689 36647 36554 36491 36545 36588 36718 36796 37000 37114 37312 37459 37569 37650 37786 37913 38029 38179 38589 39096 39626 40119 40455 41033 41234 41366 41418 41315 41375 41407 41432 41622 41642 41964 42234 42415 42734 43005 43171 43288 43533 43678 43793 43866 43969 44108 44170 44202 44501 44439 44683 44712 44560 44702 44782 44956 45058 45201 45291 45283 45191 45049 44967 44838 44747 44616 44568 44565 44534 44525 44456 44362 44275 44203 44125 44087 43926 43709 43466 43308 43182 43123 43142 43214 43413 43700 43893 44057 44169 44030 43807 43597 43422 43215 43035 42915 42693 42553 42456 42312 42236 42095 41827 41531 41252 41060 40879 40735 40701 40662 40637 40706 40836 41042 41426 41256 41104 40845 40615 40329 40164 40003 39912 39766 39634 39566 39416 39226 38914 38650 38468 38394 38374 38362 38294 38270 38202 38221 38184 38162 38031 37955 37893 37836 37815 37745 37787 37718 37756 37810 37960 38029 38085 37933 37847 37758 37689 37679 37675 37771 37869 37979 37949 37997 37992 38000 37807 37683 37653 37704 37745 37699 37748 37699 37791 37792 37823 37807 37783 37686 37602 37575 37572 37593 37617 37688 37741 37808 37829 37941 38020 38046 37979 37917 37880 37884 37911 37914 37991 38050 38088 38180 38204 38178 38160 38193 38203 38137 38143 38147 38143 38183 38270 38287 38301 38295 38289 38253 38163 38119 38126 38080 38078 38084 38111 38177 38250 38334 38364 38446 38457 38474 38491 38488 38527 38508 38458 38444 38496 38602 38654 38655 38787 38845 38888 38849 38891 38843 38721 38655 38576 38536 38628 38715 38871 38957 39016 38992 38911 38888 38942 39051 39131 39169 39191 39162 39149 39231 39226 39150 39009 38854 38789 38759 38801 38820 38780 38752 38730 38729 38795 38793 38717 38679 38693 38724 38874 39102 39270 39502 39651 39682 39623 39528 39335 39171 39061 38937 38911 38912 38984 38943 38901 38809 38682 38575 38420 38205 38097 38017 38020 38036 38089 38217 38304 38344 38382 38378 38358 38240 38192 38064 37972 38005 38028 38057 38156 38305 38371 38381 38381 38333 38194 38119 38069 38066 38089 38142 38202 38228 38260 38323 38350 38419 38404 38329 38258 38231 38239 38283 38326 38344 38357 38405 38441 38493 38514 38437 38373 38258 38179 38167 38202 38273 38308 38362 38396 38472 38508 38559 38520 38429 38374 38352 38374 38399 38482 38526 38571 38645 38665 38684 38652 38570 38518 38487 38594 38650 38718 38799 38882 38926 39002 38970 39028 39114 39127 39129 39182 39089 39191 39122 39173 39184 39203 39189 39279 39269 39279 39115 39022 38937 38971 39041 39043 39098 39129 39174 39164 39238 39333 39324 39285 39262 39208 39166 39152 39209 39283 39365 39429 39465 39528 39528 39447 39366 39297 39259 39232 39300 39306 39325 39328 39401 39389 39443 39465 39381 39241 39123 39051 38961 39047 39096 39059 39187 39137 39314 39093 39427 39176 39305 39064 39201 38988 39252 39167 39341 39298 39541 39650 39763 39961 40304 40677 40998 41173 41222 41125 41088 41001 40903 40880 40854 40817 40728 40559 40286 40136 40071 39984 39866 39756 39616 39536 39464 39383 39331 39263 39105 38901 38839 38768 38741 38705 38841 38882 39031 39039 39108 39111 39170 39070 38966 38858 38851 38866 38791 38722 38680 38677 38642 38537 38466 38407 38350 38293 38221 38163 38308 38356 38383 38464 38570 38686 39027 39296 39458 39516 39415 39284 39136 39013 38959 38925 38916 38952 39043 39154 39295 39481 39572 39662 39745 39936 40124 40419 40582 40580 40421 40222 40093 39979 39953 39904 39814 39802 39842 39952 40002 40095 40039 39880 39863 39900 39945 39878 39790 39522 39273 39131 39072 39012 38927 38854 38743 38704 38612 38533 38462 38450 38364 38231 38249 38240 38337 38569 38972 39321 39711 40057 40304 40568 40798 40963 40922 40857 40907 40980 40985 40798 40476 40313 40091 40000 39837 39844 39656 39408 39202 39050 38959 38995 38815 38739 38627 38524 38492 38658 38815 38894 38893 39539 40494 41280 41630 41600 41400 41063 40690 40451 40194 39985 39777 39500 39186 38908 38674 38437 38315 38193 38060 37895 37725 37630 37542 37552 37527 37467 37419 37380 37309 37288 37319 37334 37333 37384 37451 37590 37717 37713 37641 37603 37612 37620 37652 37806 38011 38400 38675 38980 38993 38962 38643 38356 38130 37974 37934 37977 37991 37935 38064 38726 39974 41091 41988 42501 42544 42433 42358 42244 42159 42135 42119 42218 42734 43285 43435 43559 43556 43318 42996 42817 42541 42340 42130 41939 41713 41522 41338 41153 41038 40806 40493 40214 39956 39693 39561 39393 39241 39116 39010 38879 38834 38746 38598 38393 38203 38098 38020 38031 37968 37926 37845 37751 37788 37852 37959 38012 37898 37763 37679 37692 37705 37715 37731 37715 37697 37749 37760 37713 37788 37757 37859 37875 38036 38141 38160 38215 38205 38212 38281 38366 38406 38480 38312 38222 38107 38011 38003 38012 37940 37943 37993 37957 37994 37918 37910 37775 37591 37401 37277 37209 37258 37351 37461 37525 37587 37697 37680 37703 37648 37482 37386 37332 37281 37301 37339 37387 37438 37488 37501 37569 37629 37682 37589 37506 37439 37448 37480 37531 37538 37543 37588 37616 37639 37657 37661 37586 37492 37408 37398 37389 37422 37456 37477 37518 37580 37665 37747 37825 37883 37803 37824 37826 37732 37653 37575 37534 37469 37394 37428 37500 37597 37658 37678 37633 37531 37474 37489 37570 37676 37779 37760 37702 37646 37566 37446 37326 37253 37324 37500 37639 37726 37807 37905 37982 38039 38078 38126 38154 38076 37917 37730 37609 37699 37921 38127 38331 38523 38634 38719 38862 39112 39415 39508 39502 39428 39384 39311 39301 39265 39269 39156 39057 39007 38954 38996 39002 38946 38910 38851 38770 38652 38569 38573 38766 38997 39439 40254 41269 42037 42494 42713 42700 42311 41895 41594 41297 41066 40826 40640 40513 40314 40051 39706 39376 38959 38572 38312 38063 37855 37719 37639 37595 37588 37575 37510 37353 37183 37038 36964 36891 36874 36933 37121 37272 37422 37638 38160 38646 39260 39883 40186 40753 40850 40733 40462 40413 40399 40842 41027 41255 41384 41567 41804 42032 42191 42137 42218 42185 42240 42201 42205 42232 42128 42282 42099 41806 41519 41214 40989 40810 40709 40591 40500 40422 40353 40195 40329 40213 40208 40032 39954 39851 39900 40021 40025 40206 40129 40180 40107 40154 40101 39959 39835 39739 39668 39603 39568 39597 39646 39728 39799 39899 39909 40000 40104 40195 40359 40895 41226 41688 42264 42799 42974 43040 42830 42544 42223 42112 41930 41548 41239 40904 40691 40488 40322 40099 39971 39927 39971 40100 40231 40288 40312 40189 40142 40022 39932 39743 39699 39591 39581 39505 39470 39422 39414 39273 39259 39187 39033 39009 38990 38844 38812 38733 38756 38882 39039 39103 39162 39021 39068 38999 39068 39165 39346 39368 39447 39389 39501 39329 39497 39521 39485 39346 39222 39225 39295 39375 39445 39385 39482 39511 39562 39554 39617 39469 39431 39324 39327 39346 39360 39410 39446 39492 39492 39586 39674 39761 39694 39763 39706 39728 39795 39909 40022 40329 40604 40949 41192 41567 41703 42299 42533 42816 42864 43085 43229 43514 43737 43906 43886 43886 43483 43330 43273 43520 43864 43708 43756 43555 43620 43513 43367 43199 43016 42803 42651 42467 42227 41975 41707 41526 41354 41267 41224 41130 41069 41001 40871 40849 40761 40737 40531 40415 40325 40293 40314 40411 40453 40539 40585 40645 40589 40554 40514 40386 40171 40079 39923 39899 39824 39815 39742 39716 39677 39668 39601 39699 39650 39642 39540 39428 39315 39307 39191 39248 39145 38993 38999 39018 39067 39144 39137 39069 38926 38876 38801 38759 38792 38863 38929 38925 38877 38872 38870 38830 38738 38614 38476 38435 38434 38431 38506 38490 38474 38464 38455 38544 38546 38440 38362 38232 38277 38307 38336 38348 38507 38625 38826 38944 39063 39086 39041 38813 38692 38626 38632 38718 38753 38883 38977 39073 39167 39258 39294 39308 39186 39028 38874 38807 38832 38980 39140 39295 39418 39381 39381 39357 39342 39238 39121 39032 38968 38979 39013 39061 39022 39030 39055 39099 39104 39057 39024 38894 38812 38677 38677 38665 38664 38693 38712 38707 38718 38751 38775 38711 38660 38609 38576 38545 38553 38607 38654 38674 38712 38834 38881 38951 38903 38825 38776 38724 38658 38665 38665 38721 38726 38779 38839 38883 38909 38838 38778 38687 38693 38743 38813 38957 39003 39090 39163 39239 39322 39336 39286 39196 39128 39105 39085 39110 39136 39184 39232 39258 39293 39354 39346 39278 39156 39037 39025 38963 39052 39084 39113 39130 39208 39184 39269 39178 39091 38961 38892 38831 38853 38870 38876 38886 38895 38913 38837 38819 38705 38605 38449 38419 38372 38372 38432 38542 38491 38437 38411 38437 38425 38319 38138 38050 38009 38004 38062 38051 38049 38018 37966 37954 38037 38038 37965 37903 37879 37894 37911 37949 38001 38054 38045 38054 38105 38132 38073 37944 37850 37748 37725 37700 37651 37661 37737 37762 37835 37892 37925 37778 37742 37700 37695 37652 37619 37712 37741 37799 37845 37899 37933 37876 37800 37666 37664 37619 37667 37471 37679 37853 37783 37858 38038 38083 38118 37875 37961 38024 38014 37973 38209 38270 38235 38501 38371 38582 38650 38429 38397 38245 38298 38296 38378 38411 38523 38454 38833 38852 39079 39270 39149 39087 39062 39115 39447 39979 40252 40358 40183 40346 40121 40109 39876 39667 39316 39191 38980 38815 38808 38814 38748 38984 38989 39145 39144 38952 38941 38767 38779 38761 38749 38826 38799 39000 39034 39159 39227 39276 39240 39155 38954 38863 38908 38959 39061 39187 39108 39077 39289 39574 39797 39817 39850 39960 39831 39859 39964 40154 40186 40220 40258 40339 40375 40458 40425 40245 39993 39898 39725 39652 39669 39597 39606 39589 39564 39451 39484 39441 39281 39012 38828 38763 38700 38636 38726 38719 38677 38730 38685 38595 38700 38580 38367 38351 38311 38215 38270 38277 38321 38341 38424 38486 38458 38449 38330 38215 38124 38051 38010 38079 38138 38209 38369 38467 38617 38649 38644 38560 38381 38207 38031 37940 37959 38093 38062 38098 37993 37970 37891 37893 37866 37711 37709 37615 37540 37533 37573 37643 37753 37763 37837 37827 37892 37979 37831 37800 37633 37623 37714 37835 37976 37875 37959 37986 38147 38349 38414 38424 38290 38256 38295 38230 38385 38456 38446 38463 38420 38436 38492 38528 38500 38323 38224 38153 38115 38150 38209 38270 38316 38344 38303 38289 38278 38273 38163 38143 38018 38077 38017 38164 38110 38026 38093 38210 38270 38318 38253 38206 38142 38131 38042 38112 38062 38137 38177 38165 38188 38190 38260 38244 38149 38115 38029 37922 37899 38009 38028 38052 38070 38117 38147 38159 38166 38163 38009 37947 37896 37857 37913 37931 37995 38014 38067 38111 38155 38187 38194 38117 38002 37988 37941 37969 38033 38101 38105 38104 38166 38139 38132 38128 38022 37872 37817 37781 37735 37737 37736 37670 37603 37596 37544 37475 37471 37435 37274 37116 37082 37078 37139 37145 37223 37278 37335 37401 37384 37423 37412 37326 37269 37270 37307 37364 37406 37454 37517 37493 37544 37550 37613 37637 37548 37497 37472 37512 37583 37593 37641 37688 37773 37792 37823 37790 37784 37664 37569 37532 37527 37565 37631 37681 37714 37727 37851 37882 38135 38299 38241 38088 37950 37785 37864 37904 38114 38139 38168 38151 38175 38211 38205 38231 38181 38183 38086 38058 38082 38166 38149 38337 38328 38421 38683 38780 38902 38865 38692 38615 38562 38442 38451 38394 38320 38228 38070 37954 37917 37915 37870 37869 37867 37888 37908 37966 38028 38059 38096 38140 38190 38297 38354 38318 38295 38233 38228 38229 38271 38283 38324 38361 38394 38439 38525 38557 38590 38495 38352 38263 38209 38165 38153 38114 38036 37961 37931 37939 37959 37985 37987 37849 37726 37645 37791 37930 38063 38170 38206 38263 38219 38262 38360 38254 38048 37862 37693 37519 37462 37514 37791 38225 38756 39147 39554 39857 40244 40484 40589 40893 40870 40982 40749 40503 40308 40095 39945 39724 39600 39455 39220 38819 38509 38277 38173 38162 38169 38256 38368 38644 38825 38988 39065 39013 38883 38809 38673 38589 38635 38687 38740 38780 38837 38850 38899 38980 38957 38851 38698 38576 38487 38429 38447 38466 38487 38523 38565 38586 38594 38526 38430 38350 38315 38297 38259 38309 38301 38234 38177 38136 38162 38257 38280 38237 38183 38127 38151 38148 38259 38303 38349 38406 38468 38531 38582 38518 38328 38125 37959 37853 37766 37667 37565 37570 37564 37615 37707 37782 37744 37699 37656 37628 37536 37445 37402 37361 37559 37860 38239 38788 39054 39207 39201 39185 39351 39505 39686 39683 39481 39265 39083 38907 38734 38629 38400 38206 38116 38137 38319 38761 39431 40761 41897 42540 42839 42473 41581 40925 40736 40871 40751 40736 40638 40376 40076 39565 39306 38916 38515 38188 37807 37373 36951 36587 36321 36117 35913 35705 35612 35502 35443 35537 35748 35923 36115 36121 36139 36184 36144 36060 36086 36193 36299 36238 36141 36153 35984 35713 35401 35237 35691 36169 36533 36945 37530 38390 39371 40072 40454 40606 40774 40962 41177 41690 42149 42462 42644 42956 43101 43174 43167 43297 43061 42708 42265 42010 41829 41820 41800 41650 41482 41364 41304 41161 41024 41115 41175 41510 42168 42841 43477 43662 43627 43613 43449 43348 43237 42693 42469 42802 42973 43005 42876 42923 42853 42866 42978 43046 43002 42934 42934 42830 42662 42530 42475 42373 42333 42441 42515 42742 43070 43244 43333 43174 42679 42202 41958 41827 41769 41697 41541 41338 41128 40951 40678 40275 39979 39669 39442 39272 39119 38849 38602 38409 38364 38468 38530 38382 38128 37903 37723 37542 37323 37132 36998 36973 37008 37072 37054 36897 36820 36888 36976 37038 37097 37179 37312 37501 37738 38146 38651 38960 39208 39524 39850 40148 40483 40748 40881 41150 41183 41250 41233 40931 40473 40175 39930 39880 39846 39826 39843 39716 39500 39326 39138 38966 38703 38482 38491 38649 39087 39846 40426 40793 40995 41170 41393 41556 41470 41340 41012 40783 40271 39821 39474 39240 38998 38741 38523 38359 38056 37747 37471 37361 37303 37340 37358 37314 37227 37146 36995 36833 36509 36120 35809 35575 35437 35434 35516 35642 35697 35660 35541 35511 35464 35355 35266 35274 35398 35514 35669 35852 35999 36077 36115 36204 36304 36331 36227 36083 35994 35955 35923 35953 36013 36107 36371 36581 36544 36494 36413 36303 36234 36151 36366 36448 36632 36713 36719 36643 36650 36986 37564 37862 38075 38389 38778 39286 39658 39975 40217 40339 40449 40488 40512 40476 40138 39888 39641 39408 39213 39035 38851 38704 38552 38436 38438 38468 38272 37857 37368 36995 36821 36750 36758 36836 36928 37039 37102 37049 37023 36981 36748 36455 36166 36006 36008 35834 35957 35921 35851 35789 35850 35870 35893 35797 35691 35686 35794 35938 36050 36225 36395 36483 36558 36804 36886 36929 36709 36489 36320 36279 36345 36488 36608 36679 36703 36784 36921 37211 37418 37478 37331 37221 37089 36987 36958 36945 36939 36926 36939 37055 37161 37221 37425 37627 37534 37497 37578 37697 37877 38032 38236 38476 38767 39077 39334 39502 39414 39245 39150 39000 38994 38880 38792 38742 38601 38505 38402 38341 38184 37970 37768 37658 37573 37585 37610 37638 37613 37580 37670 37832 37985 38105 38050 37985 37904 37986 37987 38139 38136 38205 38193 38197 38166 38154 38028 37801 37529 37375 37210 37236 37322 37501 37623 37612 37691 37838 37999 38014 37968 37833 37730 37661 37655 37682 37689 37602 37553 37468 37468 37351 37382 37300 37592 37693 37968 38112 38477 38461 38206 37970 37797 37672 37555 37431 37135 36819 36529 36411 36373 36623 36922 37731 38764 39572 40255 40373 40190 39969 39596 39176 38846 38568 38291 38050 37776 37510 37261 37029 36790 36567 36233 35784 35336 35037 34817 34658 34522 34408 34310 34225 34172 34112 34080 33975 33769 33618 33530 33482 33461 33453 33447 33445 33448 33448 33467 33487 33428 33277 33197 33146 33146 33174 33204 33245 33277 33310 33348 33375 33419 33392 33240 33161 33131 33147 33173 33225 33239 33252 33262 33279 33304 33339 33285 33164 33073 33067 33125 33187 33239 33283 33333 33362 33403 33437 33469 33394 33275 33214 33210 33273 33311 33375 33412 33454 33478 33510 33544 33586 33516 33407 33363 33358 33409 33459 33516 33545 33574 33609 33648 33664 33702 33661 33567 33515 33513 33563 33610 33667 33697 33718 33740 33764 33780 33829 33804 33703 33656 33649 33677 33721 33754 33806 33816 33827 33857 33894 33926 33913 33815 33750 33755 33779 33838 33872 33903 33936 33946 33973 34002 34044 34049 33941 33875 33848 33862 33899 33942 33986 34018 34039 34055 34087 34115 34132 34049 33941 33917 33941 33980 34023 34068 34068 34096 34123 34144 34176 34201 34165 34053 34025 34027 34072 34138 34175 34187 34215 34223 34233 34242 34294 34284 34183 34072 34039 34064 34094 34144 34155 34167 34184 34196 34206 34230 34251 34191 34064 34009 34033 34059 34121 34158 34187 34204 34220 34234 34276 34304 34273 34148 34076 34071 34105 34173 34205 34238 34250 34290 34302 34332 34367 34386 34278 34169 34136 34149 34179 34248 34276 34300 34307 34320 34343 34368 34410 34401 34288 34199 34197 34223 34283 34330 34333 34346 34364 34367 34392 34409 34436 34366 34243 34188 34205 34249 34300 34324 34330 34346 34360 34374 34386 34421 34400 34283 34180 34180 34207 34270 34325 34346 34374 34381 34425 34449 34482 34517 34439 34317 34266 34277 34333 34383 34414 34442 34448 34480 34500 34525 34565 34575 34456 34353 34344 34350 34395 34435 34452 34449 34457 34470 34523 34533 34557 34517 34403 34338 34337 34389 34434 34457 34457 34480 34501 34522 34545 34565 34588 34504 34375 34365 34382 34431 34475 34511 34516 34548 34561 34599 34636 34668 34583 34478 34414 34443 34464 34508 34557 34569 34587 34604 34637 34658 34678 34669 34548 34454 34430 34468 34513 34555 34596 34600 34624 34636 34661 34718 34768 34781 34650 34541 34521 34493 34527 34542 34580 34646 34703 34730 34744 34728 34772 34750 34652 34635 34689 34782 34869 35007 35091 35144 35203 35259 35315 35407 35460 35341 35169 35109 35182 35349 35803 36505 37492 38961 39921 40365 40443 40006 39485 39041 38660 38369 38202 38032 37994 38052 38156 38397 38439 38574 38728 38795 38720 38644 38645 38704 38737 38817 38921 39155 39329 39315 39195 39038 39069 39919 40677 41360 42016 42346 42552 42531 42358 41942 41676 41469 41279 41080 40648 40213 39853 39716 39724 39769 39999 40253 40816 41330 41803 42134 42372 42258 41954 41750 41707 41741 41857 41928 41935 41900 41838 41721 41509 41318 40950 40390 39936 39601 39388 39240 39077 38842 38622 38412 38206 38001 37828 37498 37080 36731 36477 36331 36227 36156 36062 35984 35899 35823 35761 35707 35488 35209 35038 34961 34942 34956 34952 34932 34905 34882 34874 34865 34864 34651 34444 34483 34815 34899 35058 35147 35167 35086 34964 34842 34767 34690 34460 34298 34323 35308 36492 37603 38877 40019 40819 41370 41732 42033 42289 42428 42512 42556 42591 42587 42661 42710 42379 42461 42819 43015 43146 43157 42972 42883 42864 42892 42894 42875 42859 42817 42809 42841 42837 42858 42685 42451 42359 42317 42329 42313 42281 42244 42152 42086 41983 41875 41741 41419 40946 40539 40089 39656 39271 38850 38386 37936 37536 37163 36848 36548 36105 35634 35149 34728 34407 34169 34030 33863 33716 33604 33524 33471 33458 33398 33285 33188 33162 33172 33227 33287 33360 33412 33507 33536 33478 33367 33185 32944 32801 32740 32792 32838 32816 32782 32746 32691 32669 32637 32627 32569 32390 32310 32275 32276 32277 32241 32192 32152 32124 32120 32097 32060 31975 31802 31665 31600 31598 31617 31598 31545 31539 31543 31564 31621 31616 31659 31555 31439 31389 31487 31808 32501 33508 34518 35025 35038 34744 34399 34119 33830 33441 33115 32918 32826 32760 32724 32877 33065 33197 33314 33539 33733 33805 33771 33552 33360 33265 33224 33261 33292 33286 33223 33169 33147 33108 33118 33076 32932 32824 32771 32794 32873 32912 32906 32840 32796 32753 32749 32725 32701 32624 32509 32446 32449 32515 32549 32548 32535 32508 32454 32457 32439 32477 32499 32421 32370 32354 32378 32398 32407 32402 32385 32395 32398 32380 32376 32376 32388 32315 32255 32259 32262 32294 32298 32311 32312 32323 32342 32359 32392 32410 32396 32332 32309 32321 32379 32434 32448 32442 32337 32311 32310 32330 32341 32338 32372 32487 32514 32578 32607 32630 32610 32629 32630 32649 32692 32714 32750 32691 32607 32568 32608 32647 32699 32734 32735 32767 32769 32795 32840 32851 32852 32741 32694 32702 32748 32796 32848 32859 32878 32907 32929 32946 32991 33020 33006 32919 32892 32913 32975 33031 33065 33076 33094 33109 33148 33169 33196 33221 33206 33124 33085 33110 33151 33187 33214 33224 33237 33256 33277 33304 33338 33392 33375 33303 33273 33282 33321 33380 33423 33436 33477 33495 33529 33567 33596 33624 33594 33530 33509 33570 33640 33732 33794 33828 33841 33835 33877 33907 33935 33982 33942 33896 33930 34029 34151 34265 34312 34374 34413 34435 34444 34486 34531 34556 34515 34442 34412 34437 34493 34556 34592 34634 34646 34665 34687 34744 34765 34775 34697 34574 34537 34573 34626 34678 34719 34736 34769 34797 34843 34861 34910 34922 34821 34719 34716 34709 34773 34828 34871 34892 34889 34903 34919 34951 34974 34958 34819 34736 34673 34704 34747 34801 34841 34900 34950 34980 35015 35046 35049 35009 34875 34731 34668 34657 34705 34814 35045 35446 35981 37835 39502 40409 40263 39534 38879 38155 37444 36786 36223 35756 35560 35371 35080 34802 34588 34510 34550 34588 34796 34897 34972 35148 35362 35564 35735 35981 36128 36270 36333 36441 36708 36893 36909 36712 36543 36633 36834 37105 37433 37758 37978 38017 37950 38001 38123 38014 38109 38087 37909 37899 37916 38045 38177 38530 39289 40207 40903 41352 41334 41346 41180 40928 40488 40216 40207 40307 40316 40186 40069 39926 39689 39527 39395 39192 39045 39003 38537 38060 37762 37664 37600 37510 37608 37569 37722 37785 37823 37939 38153 38177 38088 38026 37984 38179 38348 38562 38600 38531 39086 39538 40056 40524 40966 41533 41723 41561 41255 41005 40776 40419 40109 39829 39522 39343 39286 39348 39533 39951 40284 40456 40784 41109 41465 41733 41905 41993 41930 41607 41305 40898 40571 40366 40145 39606 39062 38423 38028 37719 37594 37575 37590 37590 37614 37492 37365 37135 37051 36909 36556 36432 36274 36168 36216 36273 36377 36355 36363 36319 36388 36398 36446 36370 36208 35907 35837 35798 35736 35771 35853 36011 36068 36080 36042 35935 35903 35998 36069 35945 35690 35548 35545 35638 35723 35817 35890 35970 36120 36192 36234 36283 36337 36394 36383 36239 36092 36024 36075 36210 36301 36307 36331 36412 36464 36500 36553 36618 36776 36748 36606 36455 36415 36412 36488 36541 36628 36669 36688 36737 36755 36839 36962 37102 37090 36927 36796 36765 36792 36903 37033 37173 37260 37258 37281 37298 37193 37123 37052 37044 37000 36976 36969 37000 37031 37129 37202 37282 37375 37473 37539 37604 37664 37708 37727 37686 37514 37363 37238 37143 36973 36842 36754 36683 36661 36636 36672 36703 36742 36775 36750 36709 36811 37231 37822 38446 38994 39364 39275 38896 38614 38374 38296 38281 38344 38407 38298 38165 38081 37954 37871 37749 37517 37273 36987 36760 36570 36409 36253 36078 35816 35591 35483 35415 35402 35391 35331 35282 35233 35185 35154 35129 35126 35105 35048 34921 34883 34879 34874 34815 34770 34722 34678 34630 34561 34523 34513 34534 34530 34385 34253 34172 34137 34108 34128 34146 34139 34132 34143 34147 34142 34150 34147 33995 33834 33730 33674 33643 33660 33656 33659 33684 33696 33743 33775 33806 33812 33716 33568 33497 33493 33499 33551 33593 33597 33610 33632 33644 33659 33670 33688 33615 33474 33396 33367 33397 33423 33450 33468 33476 33469 33465 33473 33468 33480 33498 33395 33333 33286 33315 33349 33399 33425 33447 33465 33484 33498 33525 33563 33564 33490 33431 33438 33466 33515 33561 33592 33622 33659 33687 33734 33774 33815 33812 33737 33671 33673 33702 33760 33801 33837 33877 33897 33922 33967 33995 34034 34032 33954 33909 33900 33938 33995 34019 34062 34068 34092 34112 34128 34177 34191 34185 34096 34055 34026 34057 34102 34133 34140 34162 34183 34219 34244 34273 34302 34313 34224 34167 34108 34113 34139 34162 34192 34187 34183 34213 34222 34251 34277 34287 34232 34146 34110 34102 34144 34171 34182 34198 34211 34226 34235 34252 34279 34291 34243 34157 34094 34083 34100 34147 34191 34209 34215 34235 34243 34262 34283 34300 34240 34134 34071 34033 34077 34115 34156 34167 34187 34196 34206 34243 34275 34292 34209 34095 34058 34055 34096 34135 34146 34173 34173 34208 34228 34265 34298 34323 34252 34124 34068 34069 34079 34101 34135 34158 34167 34175 34191 34237 34259 34291 34270 34166 34088 34064 34096 34132 34165 34175 34199 34201 34221 34244 34256 34279 34293 34188 34090 34062 34079 34120 34147 34143 34155 34173 34175 34198 34203 34226 34244 34182 34080 34046 34060 34101 34153 34180 34183 34219 34241 34259 34295 34310 34339 34302 34212 34172 34173 34212 34256 34289 34322 34330 34357 34375 34397 34433 34450 34408 34317 34288 34289 34320 34371 34391 34405 34441 34455 34488 34533 34567 34581 34564 34479 34420 34427 34475 34545 34598 34614 34648 34636 34668 34689 34727 34745 34764 34687 34618 34599 34618 34667 34715 34728 34746 34759 34780 34798 34800 34829 34840 34825 34742 34690 34696 34708 34757 34776 34784 34791 34795 34825 34851 34872 34892 34918 34844 34786 34790 34818 34876 34923 34948 34965 34964 35010 35033 35058 35087 35119 35076 34980 34945 34951 34986 35045 35072 35084 35107 35122 35153 35188 35205 35231 35248 35121 35058 35028 35025 35060 35081 35096 35123 35130 35152 35177 35183 35217 35243 35171 35078 35017 35019 35058 35090 35119 35125 35120 35137 35153 35178 35203 35216 35216 35098 35011 34996 35010 35050 35077 35078 35087 35099 35125 35141 35167 35183 35196 35126 35001 34974 34999 35044 35064 35082 35075 35086 35094 35108 35141 35146 35183 35147 35045 34990 34984 35012 35052 35078 35078 35073 35095 35101 35132 35150 35160 35125 35017 34975 34979 35009 35040 35068 35076 35081 35105 35122 35137 35134 35158 35101 34997 34970 34968 35001 35036 35048 35052 35038 35042 35065 35088 35102 35119 35075 34958 34931 34946 34970 35019 35023 35023 35029 35039 35054 35083 35105 35113 35029 34962 34956 34965 35011 35054 35067 35077 35096 35128 35149 35178 35200 35132 35010 34981 34992 35020 35061 35068 35082 35090 35108 35139 35157 35184 35196 35093 35006 34972 34991 35020 35061 35076 35084 35079 35109 35133 35153 35158 35170 35086 34981 34964 34981 35017 35045 35073 35089 35107 35111 35132 35162 35182 35208 35186 35063 34994 34994 35013 35055 35059 35059 35082 35086 35087 35121 35124 35130 35146 35054 34971 34935 34952 34989 35017 35039 35042 35042 35076 35092 35113 35132 35165 35127 35020 34954 34941 34989 35030 35061 35077 35080 35098 35109 35157 35186 35204 35182 35059 34971 34959 34998 35046 35072 35079 35096 35115 35126 35167 35182 35211 35234 35183 35069 35031 35032 35053 35086 35118 35097 35123 35145 35156 35190 35210 35240 35265 35259 35146 35087 35080 35098 35133 35164 35175 35191 35196 35209 35223 35246 35254 35269 35289 35195 35119 35101 35134 35172 35212 35213 35225 35244 35255 35278 35311 35341 35377 35383 35304 35214 35197 35210 35269 35301 35304 35342 35337 35368 35385 35423 35464 35478 35466 35360 35296 35287 35305 35347 35378 35399 35412 35420 35440 35464 35487 35503 35542 35551 35465 35379 35364 35375 35378 35421 35439 35458 35458 35495 35508 35536 35527 35561 35575 35535 35426 35366 35364 35396 35442 35477 35483 35478 35477 35481 35499 35513 35539 35541 35551 35493 35390 35371 35397 35437 35475 35491 35497 35508 35534 35554 35585 35613 35621 35639 35552 35431 35387 35403 35429 35460 35478 35474 35467 35494 35499 35519 35516 35542 35562 35485 35361 35316 35302 35331 35365 35362 35366 35368 35378 35379 35415 35426 35434 35463 35448 35307 35249 35228 35237 35284 35296 35301 35301 35317 35318 35343 35368 35377 35387 35401 35304 35200 35162 35158 35192 35206 35209 35198 35195 35202 35205 35204 35219 35231 35255 35143 35044 35011 35009 35031 35073 35084 35071 35086 35097 35134 35149 35157 35176 35142 35013 34948 34929 34926 34944 34970 34972 34987 34990 35002 35031 35043 35083 35090 35068 34931 34878 34854 34865 34899 34915 34931 34933 34947 34976 34992 35008 35026 35055 35054 34954 34867 34852 34878 34905 34915 34921 34933 34944 34959 34983 34999 35020 35060 35078 35000 34920 34874 34893 34935 34976 34991 35013 35023 35060 35084 35116 35130 35152 35174 35097 34984 34964 34980 35013 35050 35076 35096 35093 35129 35157 35185 35213 35244 35261 35246 35136 35065 35054 35074 35099 35142 35147 35172 35173 35208 35222 35248 35260 35323 35415 35475 35392 35344 35372 35426 35479 35478 35466 35487 35470 35492 35462 35439 35462 35516 35549 35543 35463 35409 35408 35435 35508 35554 35591 35613 35647 35652 35653 35674 35674 35647 35633 35598 35457 35393 35366 35354 35380 35389 35393 35388 35381 35384 35411 35423 35447 35460 35501 35449 35385 35400 35427 35489 35534 35586 35645 35737 35829 36041 36313 36530 36647 36667 36595 36390 36223 36142 36159 36355 36609 36784 36939 37071 37019 36832 36608 36476 36406 36372 36204 36093 36020 35982 35998 36046 36096 36242 37275 38726 40330 41511 41709 41403 41854 42187 41995 41213 40436 39817 39425 39131 39048 39018 39086 39143 39457 39957 40981 41790 42257 42491 42730 42870 42979 43148 43362 43558 43608 43636 43542 43428 43143 43002 42784 42466 41998 41606 41282 41105 41033 41149 41308 41509 41670 41849 41966 42183 42212 42115 41655 41100 40564 40120 39860 39732 39815 39729 39863 40028 40269 40432 40729 40866 40783 40725 40716 40744 40714 40793 40923 41024 41066 41089 41072 41035 40971 40810 40440 39952 39355 38935 38783 38667 38607 38640 38601 38603 38812 39145 39343 39394 39094 38547 38138 37782 37349 37115 36897 36866 36765 36779 36658 36846 36831 36944 36923 36833 36587 36591 36606 36729 36877 36866 36983 37461 37727 37849 38059 38823 39457 40196 40687 40613 40166 39537 39079 39266 40442 41063 41262 40947 40668 40480 40196 39905 39302 38799 38364 38119 37873 37537 37543 37416 37331 37252 37201 37210 37254 37283 37246 37089 36999 36933 36807 36788 36780 36833 36810 36828 36888 36981 37144 37327 37371 37283 37152 37064 36887 36816 36826 36883 36956 37100 37181 37247 37315 37184 37229 37027 37104 37080 37071 37066 37091 37168 37469 37588 37498 37444 37495 37650 37866 37991 37998 37919 37685 37483 37386 37338 37425 37469 37534 37503 37382 37298 37263 37194 37206 37196 37305 37287 37285 37127 37087 37086 37158 37264 37343 37299 37382 37374 37383 37659 37720 37728 37521 37388 37304 37246 37282 37351 37437 37542 37788 38669 39858 40718 41210 41199 40493 39861 39198 38643 38120 37723 37481 37253 37140 37200 37427 37912 38941 39209 39231 39083 38939 38965 38902 38701 38648 38568 38623 38594 38400 38174 38010 37964 37818 37790 37697 37680 37464 37204 37057 36980 36970 37102 37126 37148 37178 37292 37481 37647 38070 37982 37997 37626 37389 37200 36959 37617 38522 39256 39441 39537 39368 39177 38980 38981 38988 39003 38803 38405 38029 37780 37560 37225 37063 37053 37250 37701 38179 38853 39611 40262 40612 40461 40028 39613 39182 38912 38778 38759 38888 38855 38737 38706 38667 38643 38724 38563 38548 38324 38430 38807 38992 39232 39637 39968 40312 40511 40854 40916 41136 40868 40618 40513 40344 40211 40258 40022 39770 39496 39324 39315 39320 39156 38979 38831 38788 38737 38757 38567 38444 38459 39006 39313 39591 39810 39905 39806 39740 39399 39264 39571 39357 39170 38915 38846 38788 38599 38459 38278 38195 38276 38167 38133 37738 37799 37618 37568 37701 37896 38000 38541 39270 39646 40139 40570 40773 40636 40462 40507 40606 40845 40976 40986 41098 41052 40751 40567 40671 40790 40422 39942 39646 39545 39396 39146 38854 38816 38898 38932 39113 39363 39880 40294 40669 41064 41530 41879 42193 42374 42538 42358 42234 41894 41822 41825 41570 41361 41257 41111 41015 41076 41284 41475 41844 42037 42051 42085 41984 41555 40928 40732 40547 40623 40810 41152 41304 41354 41373 41513 41604 41819 41720 41634 41448 41042 40948 40790 40993 40967 41230 41489 41518 41476 41201 40948 40783 40795 40986 41242 41409 41415 41323 41360 41503 41812 42001 41850 41367 41078 40864 40729 40818 41034 41278 41550 41782 41711 41673 41517 41057 40686 40598 40649 40716 40774 40672 40706 40538 40699 40769 40882 40502 40177 39969 39947 39815 39823 39761 39874 39819 39626 39621 39508 39177 38775 38484 38359 38260 38329 38478 38516 38627 38815 39031 39385 39572 39423 39411 39424 39084 38656 38826 38890 38996 39071 39219 39351 39380 39046 38924 38750 38719 38990 38847 39190 39385 39331 39415 39480 39564 39184 38963 38804 38776 38833 38908 39035 38943 38867 38744 38671 38587 38327 38092 37924 37886 37834 37648 37633 37570 37566 37562 37590 37597 37448 37259 37215 37164 37181 37308 37349 37443 37602 37607 37629 37728 37569 37391 37275 37227 37241 37320 37431 37546 37608 37624 37731 37818 37673 37557 37459 37401 37447 37517 37584 37683 37707 37788 37839 37886 37863 37743 37675 37582 37638 37658 37658 37811 37878 37982 38047 38042 37989 37791 37632 37581 37562 37485 37400 37321 37274 37213 37313 37440 37412 37305 37075 37008 37015 37118 37196 37263 37310 37345 37422 37436 37567 37472 37367 37253 37279 37345 37477 37508 37568 37618 37573 37634 37691 37727 37539 37467 37423 37447 37493 37559 37755 37828 37866 37924 38082 38110 37993 37880 37745 37730 37762 37800 37883 37916 37858 37844 37865 37891 37917 37767 37633 37694 37785 37949 38099 38240 38320 38407 38439 38595 38784 39013 38979 38943 39002 38907 38963 38791 38796 38663 38620 38562 38528 38529 38312 38084 37934 37900 37804 37783 37756 37570 37392 37296 37327 37458 37537 37479 37309 37191 37291 37452 37505 37524 37566 37533 37589 37591 37566 37548 37338 37046 36950 36932 36914 36818 36884 36906 37011 37122 37145 37151 37258 37088 36927 36856 36855 36963 37040 37070 37182 37236 37226 37308 37385 37429 37375 37249 37206 37099 37075 37034 37025 37057 37065 37051 37122 37174 37229 37154 37029 36947 36936 36953 36927 37029 37104 37073 37076 37132 37147 37190 37157 36960 36874 36784 36739 36810 36881 36900 36900 36915 36927 36992 37116 37147 37029 36897 36847 36823 36852 36908 36919 36765 36821 36891 37005 37111 37094 37045 37010 37001 37094 37110 37258 37245 37303 37413 37512 37658 37752 37798 37675 37621 37538 37541 37551 37480 37508 37577 37507 37656 37664 37767 37738 37614 37521 37418 37373 37547 37572 37631 37679 37692 37730 37710 37649 37570 37624 37486 37440 37332 37437 37258 37242 37211 37194 37306 37289 37292 37258 37297 37182 37085 37018 37082 37072 37135 37201 37244 37334 37343 37336 37388 37390 37339 37111 36994 36964 36897 36933 37024 37040 37079 37110 37118 37209 37205 37220 37123 37169 37209 37091 37015 37222 37560 37825 38034 38012 38010 37899 37819 37826 37810 37870 38006 38079 38171 38092 37938 37929 37920 38030 38060 38055 38012 37894 37784 37712 37683 37748 37989 38248 38640 38597 38662 38839 38839 39065 38998 39175 39223 39161 39294 39343 39579 39493 39645 39762 39684 39770 39699 39646 39578 39527 39393 39432 39409 39515 39756 39869 40238 40241 40446 40612 40803 40619 40495 40524 40706 40716 40794 40763 40667 40515 40422 40279 40204 40152 40105 39975 39814 39806 39650 39630 39707 39906 39982 39992 40137 40205 40174 40079 39883 39664 39531 39378 39401 39500 39534 39650 39599 39608 39651 39672 39551 39365 39265 39087 39087 39072 39122 39165 39215 39247 39269 39230 39187 39081 38906 38696 38521 38479 38423 38468 38531 38576 38645 38676 38699 38757 38854 38707 38584 38483 38382 38419 38369 38429 38631 38934 39086 39480 39734 39730 39647 39596 39427 39261 39125 38935 38917 39102 39491 39769 39899 40058 40130 40136 39852 39629 39536 39567 39537 39641 39921 40297 40781 41177 41501 41784 41770 41646 41482 41356 41207 41095 41161 41185 41132 41202 41212 41064 40951 40755 40540 40808 41179 41429 41547 41814 42129 42633 43054 43335 43437 43457 43398 43143 42998 42798 42786 42808 42797 42935 42934 43079 43177 43248 43401 43197 43253 43178 43180 42821 42544 42128 41689 41393 41158 41012 40979 40927 40765 40579 40375 40034 39937 39820 39869 39979 40218 40227 40234 40339 40573 40849 40633 40603 40428 40212 40063 40113 40347 40201 40327 40464 40633 40591 40447 40415 40181 39903 39832 39768 39828 39934 40335 40434 40500 40768 40849 40840 40667 40620 40645 40469 40611 40879 41012 41088 41092 41233 41077 40791 40601 40586 40581 40656 40767 40828 40731 40730 40765 40790 40914 40966 40850 40680 40463 40338 40230 40372 40383 40406 40423 40272 40171 40102 40049 39896 39787 39673 39595 39763 39792 39784 39826 39994 40107 40443 40500 40516 40493 40630 40653 40570 40739 40828 40955 41021 41028 41155 41248 41366 41077 40840 40734 40714 40675 40672 40962 41182 41299 41638 41714 41871 41855 41733 41526 41506 41474 41544 41550 41576 41572 41566 41617 41688 41735 41595 41436 41223 41120 41061 41055 41153 41251 41409 41531 41756 41975 41941 41792 41491 41369 41246 41215 41424 41501 41606 41649 41689 41741 41719 41536 41364 41169 41197 41323 41458 41685 41797 41943 41891 42015 41969 41949 41786 41563 41453 41331 41479 41459 41592 41724 41771 41788 41769 41711 41550 41352 41249 41291 41292 41390 41344 41439 41567 41652 41605 41597 41468 41231 41089 41183 41259 41213 41040 40738 40475 40387 40295 40561 40642 40574 40563 40702 40803 40603 40492 40694 40970 41233 41402 41673 41759 41787 41555 41303 41096 41002 41199 41376 41542 41493 41371 41233 41156 41074 41158 41041 41105 41174 41146 41181 41191 41277 41298 41389 41570 41770 41965 41982 41858 41808 41729 41818 41914 41951 42238 42382 42562 42591 42734 42603 42433 42078 42050 41957 41730 41937 42148 42417 42155 42519 42621 42510 42387 42051 41999 41916 41977 42036 42196 42288 42433 42464 42519 42444 42346 42114 41978 41909 41713 41953 41823 42071 42252 42438 42483 42456 42451 42080 41951 41827 41750 41759 41818 41786 41847 41807 41781 41847 41814 41675 41591 41476 41485 41375 41574 41566 41675 41876 41980 42104 42139 41706 41559 41224 41175 41289 41197 41463 41421 41514 41573 41542 41659 41092 40817 40866 40804 40772 40954 40996 41115 41273 41473 41579 41633 41582 41401 41281 41174 41103 41146 41139 41179 41293 41447 41592 41554 41235 41021 40727 40655 40724 40883 41033 41179 41256 41378 41406 41264 41137 40988 41016 41058 41309 41433 41589 41541 41617 41733 41771 41757 41595 41457 41257 41149 41118 41150 41383 41892 42406 42892 43284 43536 43624 43487 43404 43425 43571 43660 43712 43862 44024 44172 44112 43995 43950 44018 44032 44037 44059 44016 44069 44071 44052 44180 44081 43831 43543 43319 43155 43048 42963 42885 42874 42874 42935 42818 42659 42414 42218 42117 42014 41971 41944 41923 41843 41904 41898 41892 41708 41581 41547 41536 41545 41478 41452 41366 41329 41358 41441 41224 40878 40472 40265 40061 39978 40103 40225 40335 40337 40329 40154 39767 39458 39251 39188 39341 39452 39575 39448 39429 39250 39191 38921 38794 38704 38609 38514 38494 38411 38391 38379 38409 38432 38116 37767 37670 37919 38366 38983 39801 40626 40955 41281 41186 40921 40324 39847 39642 39522 39573 39454 39162 38986 38925 39056 39150 39295 39315 39265 39100 38939 38652 38517 38463 38408 38404 38529 38613 38699 38906 38931 39285 39476 39614 39711 39822 40119 40277 40224 40001 39826 39818 39857 40104 40298 40209 40000 39856 39691 39626 39494 39417 39364 39306 39209 39147 39010 39127 39086 39113 39129 38957 38791 38582 38487 38485 38685 39146 39651 39917 40030 40184 39910 39749 39647 39373 39583 39613 39656 39830 39962 40100 40122 40411 40472 40599 40830 40960 40876 40905 40893 40930 40978 40948 40717 40272 39903 39668 39515 39559 39746 39984 40220 40381 40514 40406 40403 40161 40302 40393 40554 40714 40752 40875 40979 41211 41192 41119 41067 40854 40626 40512 40580 40651 40967 41149 41360 41154 40815 40686 40429 40500 40539 40652 40608 40658 40562 40317 40010 39798 39728 39694 39740 39860 39806 39828 39954 40147 40186 40150 40106 40059 40035 39946 39988 39956 40257 40546 40845 40960 40819 40757 40549 40689 40852 40922 41105 41296 41331 41376 41243 41123 40980 40938 41025 41074 41159 41300 41313 41390 41476 41265 41106 41089 41065 41024 41158 41286 41418 41691 41820 41763 41440 41283 41031 41015 41090 41222 41377 41543 41586 41682 41481 41244 41132 41138 41298 41298 41470 41370 41497 41531 41499 41226 40969 40893 40881 40906 40920 40981 40986 40986 40971 40695 40412 40159 39997 40022 39954 39997 40100 40337 40604 40620 40598 40343 40258 40313 40557 40759 40956 41098 41283 41388 41292 41181 41177 41179 41295 41365 41551 41635 41808 41928 41918 41788 41666 41686 41609 41704 42018 42428 42810 43203 43541 43617 43661 43471 43490 43558 43812 43987 44209 44078 43928 43210 42967 42616 42343 42293 42239 42257 42111 42186 42117 41913 41802 41641 41705 41765 41695 41767 41820 41865 41813 41578 41216 40900 40593 40414 40416 40484 40659 40827 40963 40774 40460 40227 40109 40104 40173 40347 40537 40714 40621 40558 40212 40201 40182 40284 40565 40671 40677 40698 40510 40243 40145 40165 40197 40310 40395 40497 40625 40807 40658 40724 40470 40574 40517 40477 40548 40673 40698 40797 40506 40059 39998 39959 40054 40226 40409 40620 40699 40637 40257 39937 39956 40027 40259 40420 40527 40765 40782 40809 40671 40496 40510 40457 40451 40486 40538 40595 40544 40376 40045 39720 39414 39505 39540 39695 39941 40130 40310 40156 39898 39647 39615 39625 39605 39769 39865 39994 39993 39871 39664 39703 39764 39963 40144 39959 39928 39829 39664 39341 39367 39324 39297 39302 39421 39455 39637 39842 39726 39457 39313 39459 39253 39756 40014 40383 40684 40514 40379 40081 40048 40137 40495 40617 40888 40871 40886 40736 40434 40461 40530 40828 40942 41024 41031 41222 41188 41027 40822 40980 40841 40916 40838 41058 41141 41346 41241 40998 40816 40811 40953 40969 41187 41344 41584 41224 41066 40786 40663 40756 40873 41152 41291 41152 41555 41240 41046 41087 41141 41227 41443 41284 41370 41220 40889 40439 40176 40132 40183 40266 40310 40330 40246 39961 39358 38971 38712 38601 38540 38466 38372 38253 38064 37545 37343 37064 36973 36989 37012 37011 37118 37108 36748 36508 36338 36330 36539 36584 36938 37123 37410 37315 37268 37121 37272 37423 37546 37464 37409 37206 37009 36712 36642 36586 36805 36750 36865 36871 36764 36563 36259 36108 35988 35962 35912 35846 35841 35793 35580 35500 35447 35589 35736 35871 35965 36049 36187 36203 36276 36335 36515 36887 37177 37171 37152 37105 37008 36788 36755 36915 36953 36927 37018 37250 37411 37549 37587 37732 37871 38192 38257 38251 38261 38157 38106 37901 38082 38073 38324 38334 38444 38688 38883 39181 39180 39220 39322 39445 39518 39634 39887 39838 39864 39742 39671 39481 39387 39567 39717 39936 40097 40394 40426 40487 40490 40526 40590 40621 40519 40374 40344 40232 39986 39686 39569 39384 39550 39532 39818 40170 40384 40350 40293 40242 40069 40023 39925 40050 40054 39743 39150 38780 38497 38357 38354 38200 38245 38111 37981 37783 37595 37629 37648 37808 37922 38153 38216 38044 38044 37998 38145 38137 38281 38458 38747 39041 39052 39144 38962 39035 39325 39433 39873 40146 40694 40982 40910 40861 40938 41225 41409 41513 41724 41847 42030 42156 42410 42844 43465 44104 44339 44476 44154 43736 43125 42823 42728 42992 43284 43429 43744 43815 43909 43917 43462 43236 43250 43180 43153 43027 43317 43097 43055 42446 41996 41607 41254 41096 40906 40699 40533 40133 39562 39122 39007 39138 39050 38950 38876 38724 38575 38316 38155 38115 38226 38799 39733 40548 41161 41385 41638 41698 41972 42150 42603 42562 42130 41760 41194 40413 39630 38977 38459 37968 37629 37306 37294 37255 36975 36839 37331 37818 38212 38308 38257 37932 37641 37345 37021 37225 38290 39663 40606 41049 41540 41706 41272 40777 41037 41233 41078 40966 40890 40709 40621 40454 40215 39703 39094 38854 38573 38268 38141 37870 37639 37353 36811 36330 36114 36041 36041 36041 36397 37100 37518 37646 37928 38517 39202 39923 40402 40745 40749 40347 39702 38967 38554 38068 37935 37517 37591 37422 37326 37173 36974 36738 36787 36942 36993 37188 37468 38121 39221 39756 39937 39969 39713 39090 38618 38216 37899 37489 37150 36624 36206 35871 35659 35539 35497 35543 35620 35696 35712 35532 35393 35187 34975 34896 34914 34803 34656 35087 35114 35453 35538 35786 36345 36567 36687 36997 37079 36844 36574 36324 36186 36229 36417 36505 36486 36435 36268 36019 35855 35858 35844 35969 36656 37986 38897 39137 38995 38693 38424 38649 38929 39076 39537 39499 40015 39853 39702 39565 39407 39108 39036 38812 38638 38531 38501 38155 37876 37694 37571 37750 38420 38706 38880 39106 39046 38938 38795 38723 38721 38778 38625 38655 38874 38903 38814 38599 38674 38585 38665 38493 38381 38365 38717 38865 39163 39311 39325 39687 40347 40992 41103 41559 41649 41499 41245 41055 40932 40813 40791 40801 40796 40910 40931 40673 40209 39934 39740 39642 39774 39891 40108 40214 40272 39866 39410 39051 38795 38688 38618 38572 38620 38578 38291 37894 37475 37180 37071 36970 36990 37060 37231 37381 37283 37108 37055 36896 36689 36565 36346 36254 36204 36084 35755 35456 35222 35244 35239 35236 35292 35473 35546 35570 35545 35557 35701 35890 36056 36056 35996 35977 35983 35919 35654 35556 35571 35545 35604 35629 35623 35614 35697 35623 35533 35561 35677 35920 36153 36599 36092 36580 36885 36894 36757 36909 36814 37008 37153 37210 37262 37376 37249 37245 37035 37003 37131 37225 37646 37976 38508 38769 38983 38986 38980 38952 38795 38522 38389 38433 38367 38362 38193 38010 37753 37615 37685 37725 37817 38243 38549 38882 38903 38723 38582 38500 38337 37922 37777 37516 37625 37524 37192 37046 37011 37028 37317 37674 37913 38295 38504 38364 38146 37951 37897 37857 37783 37797 37837 37878 38045 37862 37821 37713 37532 37496 37648 37780 38284 38485 38878 38620 38654 38849 39242 38691 38974 39395 39253 39428 39736 39476 38963 38650 38506 38399 38411 38264 38181 38555 38334 38036 38124 38085 38185 38189 38133 38061 38068 37926 37642 37189 36931 36891 36832 36832 36874 36881 36848 36846 36810 36677 36686 36831 36870 36991 36937 36850 36785 36787 36370 36091 36097 36085 36045 36075 36104 36135 36201 36147 36078 36076 36085 36090 36209 36493 36379 36339 36145 36097 35774 35553 35694 35733 35913 36008 36060 36134 36224 36134 35941 35915 35978 36048 36259 36328 36163 36173 36066 35785 35576 35372 35368 35352 35572 35748 35734 35813 35911 35737 35718 35815 35834 36123 36356 36426 36518 36505 36509 36219 36189 36127 36209 36274 36314 36468 36502 36646 36465 36371 36505 36691 36963 37159 37827 38426 38026 38010 37586 37596 37516 37708 37932 38030 38028 37953 37806 37795 37644 37509 37434 37550 37545 37835 37743 37956 37864 37850 37426 37398 37210 37317 37642 37584 37526 37645 37691 37398 37295 37095 37152 37127 37582 37463 37264 37666 37769 37366 37002 37094 37298 37439 37531 37623 37724 37852 37850 37754 37488 37645 37756 37777 37727 37693 37801 37539 37169 36897 36929 37001 37045 37108 37323 37658 37650 37317 37172 37197 36698 37127 37626 37831 37891 37990 37929 37743 37411 37246 37500 37534 37649 37729 37726 37605 37330 37039 36853 36712 36718 36752 36757 36772 37077 36973 36641 36523 36213 36294 36493 36663 36556 36617 36842 36466 36244 36258 36101 36049 36391 36421 36488 36491 36355 36196 35991 35958 36039 36085 36168 36263 36273 36324 36105 35919 35848 35760 35775 35997 36072 35953 36158 36258 35912 35633 35796 35725 36066 35988 36232 36233 36367 35922 36012 35974 36049 36083 36057 36271 36425 36513 36534 36341 36264 36220 36283 36397 36505 36611 36690 36701 36612 36313 36186 36310 36434 36549 36568 36570 36579 36593 36339 36256 36298 36211 36195 36374 36432 36619 36703 36513 36374 36363 36329 36310 36412 36498 36506 36539 36528 36180 36274 36301 36392 36505 36534 36684 36937 37035 36956 36972 37046 37229 37467 37555 37728 37744 38047 38424 38386 38233 38464 38843 39280 39771 40070 40238 40377 40426 40500 41128 41975 42483 42891 43544 43298 42232 41917 41602 41076 40838 40646 40464 40276 40056 40020 39897 39527 38901 38391 38087 38084 37888 37818 37839 37712 37773 37668 37241 37340 37697 38565 39543 40140 40500 40659 40796 40517 39885 39705 39204 38793 38515 38294 38029 37765 37079 36623 36297 36036 36129 36280 36529 36593 36654 36566 36365 36035 35947 35845 35962 36086 36167 36378 36407 36132 36058 35893 35965 36158 36161 36420 36746 37151 37082 36883 36842 37347 38251 39251 39943 40591 40851 40764 39744 38812 38009 37542 37239 36845 36852 36496 36703 36701 36345 36207 36176 35951 36257 36554 36633 36550 36625 36520 36185 35992 35919 35890 36188 36443 36526 36695 37186 36674 36519 36335 36484 36423 36527 36506 36544 36534 36208 36002 35846 35929 35932 36069 36065 36538 36871 37245 37152 36988 36574 36171 36249 36281 36628 37096 37009 37009 37137 37066 37086 37093 37121 37016 37017 36913 36736 36344 36092 35918 36005 35889 35829 35898 35982 36439 36222 36392 36594 36684 36854 37087 37037 37154 37180 37051 36775 36594 36656 36595 36596 36843 36965 36922 36805 36537 36357 36259 36272 36574 36897 37039 37404 37536 37742 37530 37652 37746 38065 38305 38456 38406 38223 38084 38142 37190 37288 37683 37763 38211 38266 38457 38479 38333 38529 38316 38515 38966 39196 39590 40273 40714 41334 41320 41265 41189 41263 41260 41221 41318 41236 40855 40821 40543 39818 39640 39735 39454 39667 39887 39421 39583 39913 39693 39925 39866 40108 40185 39892 40637 40633 40574 40529 40105 39772 39556 39524 39495 39493 39475 39458 39387 38950 38461 38147 38067 38260 38370 38423 38617 38698 38488 38176 38011 37926 37959 37917 37975 38002 38016 38338 38142 37711 37377 37018 37045 37566 38541 39384 40312 40787 40812 39982 40007 39657 39217 39040 39053 38956 39172 39249 38641 38036 37721 38207 39366 40153 40635 40702 40590 40423 40112 39987 40087 40385 40556 40353 39973 39901 40201 39968 39765 39866 40116 40493 40826 41487 42060 42504 42775 41519 40437 39580 39147 38892 38615 38407 38630 38869 39404 39331 39385 39034 39040 39269 39748 40165 40403 40499 40356 39632 38824 38231 37932 37710 37686 37936 38146 38370 38463 38554 38696 38594 38498 38506 38418 38801 38599 38737 38694 38001 37632 37283 37120 37124 37029 37320 37967 38383 38625 38454 38235 38357 38281 38172 38117 38055 37946 37932 37409 36910 36605 36243 36134 36106 35959 35889 35990 36042 35706 35726 35731 35724 35703 35710 35746 35812 35965 36073 35839 35604 35423 35369 35381 35415 35450 35592 35716 35760 35435 35297 35238 35196 35205 35216 35269 35374 35570 35643 35565 35464 35409 35342 35555 35847 36007 36202 36589 36741 36712 36591 36606 36540 36605 36822 36811 36935 36760 36684 36622 36406 36378 36316 36471 36673 36994 37602 38345 38249 37953 37870 37855 38030 38086 38192 38277 38582 38617 38513 38116 37986 37963 38108 38004 38096 38240 38639 39031 39083 39272 39204 38998 39122 39080 39270 39451 39593 39559 39100 38957 38961 39383 39772 40171 40017 39945 40379 40073 39682 39343 39130 38843 39006 39217 39346 39925 39695 39555 39069 38980 39293 39563 39932 40058 40364 40631 40633 40141 39688 39172 38914 39165 39162 39406 39508 39448 39458 38970 38754 38678 38781 38666 38984 39363 39648 39630 39595 39426 39190 38947 38768 38621 38652 38724 38716 38951 38546 38179 38210 38286 38820 39059 39541 39979 40141 40259 39574 39001 38551 38337 38265 38319 38367 38450 38501 38392 38063 37975 38127 38344 38820 39313 39557 39747 39751 39492 38991 38670 38391 38220 38336 38389 38405 38410 38334 37949 37536 37516 37725 37926 38327 38754 38908 39001 38879 38375 37892 37574 37418 37444 37454 37518 37436 37401 37115 36810 36653 36652 36679 36645 36711 36681 36651 36653 36341 36118 35895 35701 35646 35680 35793 35766 35668 35538 35322 35228 35199 35316 35460 35622 35880 36020 35958 35660 35490 35423 35363 35479 35655 35736 35751 35836 35791 35601 35594 35502 35668 36361 36688 37150 37299 37331 37168 36681 36498 36464 36460 36592 36753 36872 36811 36874 36943 37103 37289 37471 37865 38024 38360 38337 38275 38158 37764 37512 37466 37336 37443 37598 37772 37774 37685 37486 37349 37416 37489 37747 37988 38129 38183 38094 37864 37504 37268 37050 37162 37980 39117 39709 40015 40094 39900 39519 39363 39786 40428 40822 41124 41350 41485 41387 40998 40595 40370 40101 40079 40195 40255 40284 40215 40142 39872 39846 39943 40176 40301 40439 40675 40773 40795 40248 39504 39100 38751 38665 38545 38604 38545 38433 38271 37709 37638 37497 37743 38018 38431 38832 39075 39232 38845 38583 38316 38103 38276 38458 38691 38778 38797 38734 38188 37849 37648 37515 37419 37461 37528 37496 37566 37302 36932 36700 36701 36761 36919 37129 37243 37275 37284 36982 36671 36518 36450 36434 36532 36786 37059 37483 37622 37334 37383 37399 37534 37937 38272 38533 38734 38620 38279 37982 37922 37990 38040 38047 38057 37987 38044 37931 37631 37505 37752 38111 38332 38461 38464 38559 38526 38151 37815 37687 37633 37590 37597 37597 37660 37684 37437 36880 36562 36426 36193 36059 36199 36700 37011 37171 37032 36741 36590 36727 37202 37415 37405 37456 37432 36978 36788 36646 36648 36732 36941 37251 37530 37623 37513 37262 37046 36993 37040 37064 37135 37093 37078 37068 36755 36350 36211 36168 36198 36177 36386 36478 36594 36582 36387 36208 36330 36559 36685 36939 37085 37129 36991 36639 36637 36448 36390 36253 36211 36201 36186 36216 36075 35687 35255 34891 34928 34956 35176 35228 35347 35506 35578 35540 35542 35530 35405 35449 35679 36797 38237 39130 39718 40302 40638 40879 40876 40964 41069 41008 41088 40866 40598 40484 40500 40220 39916 39619 39470 39267 38961 38438 37972 37629 37450 37485 37435 37300 37360 37363 37054 36800 36565 36506 36445 36442 36441 36469 36594 36456 36302 36239 36304 36365 36455 36533 36607 36714 36781 36567 36370 36268 36162 36256 36323 36441 36573 36720 36673 36584 36749 36826 36952 37052 37161 37258 37373 37494 37503 37368 37372 37681 37984 38341 39140 39895 40442 40524 40675 40816 41125 41561 41167 40749 40349 39893 39382 38714 37988 37365 36779 36368 36024 35923 35881 35766 35466 35003 34704 34560 34481 34539 34519 34532 34807 35086 34953 34804 34807 34932 35120 35064 35222 35501 35467 35483 35183 34942 35069 35030 35085 35176 35208 35291 35409 35393 35274 35305 35511 35676 35959 36126 36230 36250 36191 35840 35458 35318 35227 35199 35289 35333 35459 35525 35475 35161 35123 35134 35225 35478 35713 35794 35996 36146 36138 35811 35807 35859 35782 35853 35920 35853 35881 36088 35978 35849 35879 36019 36118 36304 36577 36664 36721 36512 36282 36054 35971 36035 36166 36186 36214 36302 36245 36300 36153 36185 36414 36650 36810 37002 37119 37127 37074 36826 36661 36627 36711 36682 36692 36816 36807 36738 36709 36500 36236 36143 36354 36450 36358 36530 36454 36455 36421 36277 36163 36197 36206 36276 36299 36389 36687 36789 36711 36507 36392 36441 36471 36586 36575 36630 36607 36567 36262 36002 35884 35902 36057 36103 36229 36204 36260 36411 36207 36055 35937 35911 35899 35975 35960 36069 36201 36353 36263 36185 36128 36083 36110 36208 36201 36217 36251 36033 35842 35653 35604 35617 35584 35700 35728 35724 35741 35715 35599 35521 35530 35544 35801 36140 36349 36485 36640 36755 36387 36173 36151 36123 36133 36079 36126 36260 36359 36384 36083 35841 35840 35961 36201 36395 36513 36566 36617 36556 36340 36171 36141 36173 36308 36350 36381 36341 36319 36101 35862 35782 35785 35834 35912 35979 36035 36060 36137 36064 35781 35698 35739 35793 36151 36366 36490 36537 36594 36400 36320 36239 36266 36339 36421 36442 36490 36484 36431 36256 36007 35902 35902 36039 36299 36343 36584 36760 36866 36678 36817 36838 36826 36888 36935 36951 36986 36957 36807 36547 36375 36256 36302 36289 36367 36314 36252 36227 36216 36052 35964 36014 36043 36189 36391 36668 36708 36798 36832 36542 36336 36239 36337 36391 36479 36659 36866 36935 36977 37221 37565 37370 37708 37974 38073 37983 38312 38541 38671 38203 37820 37810 37688 37669 37734 37776 37784 37673 37342 37037 36945 36991 37024 37009 37002 36986 36982 36890 36632 36345 36250 36241 36308 36388 36443 36486 36530 36550 36484 36366 36319 36305 36393 36581 37360 38496 39121 39318 39537 39608 39581 39638 40091 40471 40992 41350 41686 41727 41029 40286 39663 39250 39146 39275 39852 40513 41233 41579 41576 41280 41243 41199 41102 41047 41100 41013 41075 40976 40617 39939 39390 39014 38796 38573 38413 38285 38160 38006 37727 37307 37018 36844 36799 36851 36921 36890 36813 36792 36710 36404 36213 36118 36023 35935 35976 36064 36295 36551 36810 37379 38883 39921 40907 41135 40722 40287 39842 39382 39024 38309 37802 37319 37004 36830 36709 36614 36477 36341 36131 35837 35677 35868 36296 36681 36824 36887 36782 36821 36864 36549 36153 35808 35681 35561 35466 35410 35339 35371 35490 35495 35275 35190 35132 35127 35208 35290 35366 35270 35307 35152 35100 35016 35025 35182 35438 35482 35733 35773 35954 35756 35608 35554 35422 35368 35338 35354 35552 35592 35642 35675 35406 35137 35069 35298 35230 35321 35514 35985 36164 36225 35912 35861 35940 36043 36088 36076 36058 36028 35992 35825 35497 35279 35205 35185 35287 35359 35437 35432 35347 35296 34976 34875 34856 34842 34995 35151 35041 35137 35286 35477 35698 35824 36167 36178 36119 35962 35725 35585 35543 35616 35500 35395 35312 35272 35363 35393 35385 35409 35491 35585 35449 35377 35264 35449 35441 35644 35790 35967 36054 36095 35882 35717 35521 35454 35444 35529 35624 35648 35741 35639 35449 35283 35188 35214 35371 35445 35673 35669 35978 36058 36220 35956 35882 35850 35902 36058 36164 36215 36301 36347 36297 36080 35903 35847 35750 35897 36018 36175 36334 36591 36784 36598 36400 36389 36506 36682 36798 37139 37585 37876 37758 37636 37289 36989 36799 36643 36598 36562 36719 36746 36653 36408 36117 35941 35879 35944 35973 36122 36184 36363 36306 36488 36346 36247 36093 35972 35878 35904 36063 36101 36083 36181 35989 35871 35665 35692 35610 35712 35758 35795 35854 36029 36069 35754 35482 35575 35694 35700 35731 35857 35830 36018 35997 35816 35707 35567 35527 35666 35798 35847 35754 35910 35965 36033 35647 35403 35364 35377 35458 35736 35809 35943 36002 36099 35902 35592 35481 35547 35592 35712 35771 35971 35991 36085 35919 35778 35636 35625 35817 36032 36118 36275 36699 37354 37819 37703 37070 36571 36154 35917 35683 35605 35608 35649 35656 35647 35554 35631 35561 35686 35716 35741 35800 35852 35928 35863 35746 35779 35937 36106 36251 36248 36346 36218 36127 36127 36014 35878 35848 35822 36050 36174 36430 36422 36571 36589 36586 36135 36067 36019 36004 36183 36384 36608 36695 36622 36653 36474 36701 37367 38119 38636 38774 38946 38840 39148 39235 39262 38965 38863 38848 38854 38982 39297 39783 40193 40732 40815 40457 39761 39032 38669 38345 38129 37813 37460 37262 37119 36683 36500 36851 37057 37100 36955 36813 36629 36494 36491 36352 36091 36022 35958 36082 36073 36100 36130 36399 36726 36819 36638 36440 36284 36523 36871 37451 38147 39025 40014 40881 41421 41322 40772 40005 39458 39197 39254 39305 39322 39237 39080 38639 38167 37784 37508 37340 37241 37079 36955 36856 36738 36581 36292 36094 36050 36082 36247 36432 36552 36819 36875 36950 36676 36512 36505 36564 36672 36808 36857 36917 36920 36981 36702 36453 36449 36515 36647 36855 37229 38086 39259 39968 40651 40809 40383 39790 39639 39205 38914 38644 38468 38301 38117 37737 37300 37018 36885 36738 37002 37091 37040 36961 36894 36459 36275 36058 36100 36171 36343 36935 37588 38149 38486 38379 38002 37774 37749 37877 38172 38476 38677 38689 38500 38344 38052 37758 37989 38403 38891 39285 39612 39864 40016 40251 40404 39975 39643 39349 39268 39196 39268 39122 38941 38450 37856 37184 36732 36554 36633 36834 37040 37080 37126 37087 37094 36968 36793 36749 36711 36922 37107 37178 37275 37554 37749 37572 37341 36992 37225 37273 37415 37591 37696 37762 37864 37750 37427 37267 37052 36892 36940 36950 37013 37090 37221 37259 36867 36511 36321 36225 36302 36243 36230 36270 36307 36460 36395 36203 35997 35760 35706 35812 35784 35853 35796 35831 35696 35516 35461 35487 35471 35668 35682 35675 35842 35919 35989 35763 35511 35549 35692 35876 36075 36207 36310 36472 36555 36432 36264 36178 36338 36395 36320 36057 35923 35856 35846 35841 35703 35589 35522 35485 35519 35731 35886 36012 36229 36352 36242 36051 35813 35761 35836 35933 36020 36038 36234 36284 36316 36078 35890 35862 35898 36049 36243 36597 36691 36763 36711 36424 36355 36256 36237 36372 36428 36467 36376 36468 36493 36363 36402 36391 36456 36526 36547 36639 36942 37722 38552 39571 39740 39817 39973 39933 40302 40228 40342 40522 40841 41019 41019 40734 40461 40285 40012 39907 39887 39856 39859 39750 39541 39152 38892 38695 38616 38567 38488 38401 38352 38252 38118 37692 37383 37245 37244 37352 37398 37436 37376 37344 37514 37406 37218 37012 36891 36889 36986 37025 36976 36992 37183 37211 36920 36642 36450 36632 36710 36838 36885 37073 37281 37348 37248 36963 36700 36698 36823 37037 37178 37182 37169 37089 37088 36758 36549 36456 36479 36797 37063 37989 39197 40148 40649 41115 41288 40208 39501 38985 38820 38674 38634 38504 38415 38421 38076 37757 37310 37053 36997 36659 37090 37106 37354 37625 37637 37240 37039 36907 36974 36946 36944 37138 37285 37316 37366 37019 37087 36760 37114 37127 37154 37251 37339 37474 37574 37371 37043 36833 36651 36506 36452 36701 36619 36814 36881 36941 36767 36558 36411 36370 36479 36549 36537 36636 36603 36676 36643 36351 36160 36210 36162 36243 36215 36265 36298 36481 36434 36615 36463 36353 36383 36473 36600 36728 36783 36733 36648 36583 36443 36310 36160 36273 36342 36367 36430 36475 36521 36655 36526 36376 36133 36126 36137 36212 36582 36683 36862 36880 36933 36734 36527 36412 36420 36366 36367 36540 36596 36594 36732 36754 36678 36488 36763 36777 36830 36977 37119 37079 37162 37296 37069 36818 36728 36731 36790 36920 37002 37094 37170 37230 36963 36571 36331 36255 36296 36348 36405 36532 36608 36716 36749 36434 36288 36158 36421 36395 36523 36544 36615 36590 36859 36819 36420 36660 36229 36755 36824 36994 37266 37586 37549 37377 37272 36946 36939 36878 37016 37004 37304 37355 37395 37465 37267 37093 37028 37000 37049 37070 37131 37279 37318 37435 37418 37115 36948 36841 36853 36995 37142 37204 37190 37252 37352 37319 37002 36856 36936 36966 37058 37132 37398 37567 37717 37939 37663 37537 37513 37628 37573 37562 37507 37490 37478 37510 37328 36860 36925 36778 36788 36866 36957 37019 37049 36807 37028 36731 36603 36342 36441 36618 36637 36755 36903 37193 37350 37393 37084 36895 36853 36928 36968 37087 37273 37345 37441 37508 37530 37265 37131 37182 37258 37270 37242 37328 37336 37397 37404 37189 36963 36887 36825 36937 37097 37323 37470 37670 37727 37674 37452 37240 37151 37133 37180 37256 37334 37389 37423 37665 37569 37350 37199 37206 37282 37379 37547 37665 37863 37996 38026 37790 37544 37419 37407 37438 37558 37593 37561 37647 37761 37671 37210 37038 36971 37041 37112 37230 37379 37421 37485 37498 37152 36811 36639 36591 36601 36808 37010 36970 37058 37094 36997 36698 36599 36599 36648 36860 36965 37060 37127 37026 37019 36778 36448 36290 36220 36331 36440 36547 36672 36643 36754 36746 36465 36206 36165 36188 36272 36449 36405 36356 36390 36622 36483 36234 36119 36012 36095 36396 36526 36633 36652 36757 36792 36594 36400 36363 36392 36729 36988 37177 37220 37158 37398 37347 37164 36860 37114 37115 37460 37281 37414 37515 37427 37322 37146 37026 36875 37011 36945 36931 36926 36968 37053 37231 37139 36987 36609 36506 36497 36716 36795 36919 36888 36967 37030 37118 37652 37980 38249 38319 38392 38353 38451 38368 38247 38107 37870 37774 37865 37617 37633 37563 37471 37383 37339 37439 37340 37102 36810 36783 36756 36820 36909 37070 37193 37203 37213 36940 36703 36483 36519 36623 36914 37232 37361 37365 37448 37371 37030 37118 37047 36913 37068 37252 37189 37270 37404 37453 37463 37038 36791 36613 36594 36617 36823 36942 37042 37210 37278 37165 37159 37142 37539 37699 37845 38073 38098 37987 37797 37584 37131 36651 36317 36232 36296 36561 36644 36646 36567 36714 36526 36170 35982 35879 35959 36071 36124 36288 36380 36477 36580 36442 36200 36241 36111 36257 36345 36527 36479 36343 36251 36194 36181 36040 35954 35933 35991 36086 36069 36123 36257 36381 36363 36183 35999 35961 36021 36044 36071 36170 36189 36364 36341 36079 35973 35978 35938 35915 36000 36152 36350 36704 37301 37405 37526 37329 36879 36529 36293 36290 36174 36151 36241 36258 35994 35762 35665 35654 35832 35906 35935 36090 36268 36369 36352 36052 35814 35769 35917 36021 36179 36383 36512 36564 36605 36524 36265 36249 36321 36560 36583 36741 36764 36603 36625 36383 36184 36032 35977 36081 36325 36381 36605 36842 36771 36837 36760 36583 36545 36555 36582 36656 36781 36802 36913 37069 36994 36742 36655 36449 36467 36621 36907 36970 37106 37194 37325 37539 37497 37426 37679 37655 37740 37807 38217 38275 38303 38107 37965 37788 37677 37763 37949 38240 38535 38693 38792 38854 38672 38347 38107 38053 38099 38263 38504 38563 38609 38692 38703 38283 38072 37907 37934 38035 38094 38018 37960 37982 37978 37652 37449 37374 37213 37097 37158 37120 37233 37328 37437 37217 36987 36877 36712 36811 36796 36857 37050 37176 37160 37263 36917 36650 36461 36443 36529 36592 36693 36813 36834 36863 36832 36708 36473 36420 36459 36571 36708 36791 36818 36881 36948 36841 36641 36558 36512 36445 36529 36611 36747 36792 36879 36792 36496 36377 36117 36118 36105 36237 36457 36439 36511 36610 36447 36172 35968 35974 36091 36179 36255 36248 36363 36422 36336 36085 36043 36084 36085 36170 36189 36384 36573 36884 37041 37014 36731 36671 36741 36608 36687 36716 36818 36729 36792 36766 36605 36408 36340 36358 36447 36578 36781 36985 37062 36962 36769 36737 36623 36710 36699 36817 36831 36970 37022 37004 36761 36525 36485 36591 36679 36740 36764 36886 36865 36913 36853 36685 36528 36585 36607 36691 36797 36867 36892 37043 37065 36880 37355 37304 38447 39108 39892 40296 40764 41102 41295 40996 40166 39998 39741 39859 39703 39449 39317 39127 39119 38759 38230 37932 37537 37421 37414 37427 37483 37499 37679 37583 37186 37218 38300 39622 40652 41152 41383 40754 40153 39889 38874 38165 37631 37270 36935 36611 36521 36434 36774 36932 36636 36341 36271 36236 36335 36331 36332 36225 36328 36309 36179 35905 35793 35736 35788 35828 35909 35988 36107 36116 35902 35438 35331 35297 35283 35364 35377 35469 35526 35678 35740 35513 35417 35450 35378 35592 35635 35645 35746 35772 36008 35766 35502 35366 35312 35226 35352 35496 35728 35908 36086 36048 35948 35788 35668 35992 36139 36346 36393 36526 36538 36467 36147 36057 35952 36028 36257 36396 36431 36476 36506 36510 36390 36196 36158 36175 36256 36330 36366 36476 36427 36559 36525 36366 36277 36331 36336 36536 36874 36997 37125 37500 37353 37372 37257 37157 37193 37205 37194 37286 37347 37440 37530 37387 37059 36887 36949 37037 37200 37261 37302 37190 37420 37322 37073 37088 37091 37364 37510 37476 37643 37626 37608 37532 37160 37076 37123 37150 37288 37225 37332 37371 37378 37334 37249 36863 36817 36810 37136 37405 37643 37688 37702 37757 37755 37553 37331 37185 37268 37411 37499 37550 37534 37525 37457 37269 37203 37118 37068 37211 37352 37506 37649 37596 37656 37497 37120 37020 36935 36961 37086 37109 37124 37075 37058 37360 37309 36983 36928 36931 36953 37005 37075 36995 36988 37027 36955 36785 36602 36552 36648 36780 36936 36901 36933 37017 37058 36833 36483 36400 36397 36548 36634 36709 36850 36885 36871 36824 36566 36519 36451 36403 36542 36651 36687 36758 36768 36515 36351 36252 36152 36183 36291 36412 36460 36585 36661 36759 36694 36856 36858 37291 37161 37846 38001 38179 38517 38717 39014 38124 37905 37776 37932 37913 37966 37908 38036 38111 38091 37817 37581 37553 37572 37637 37691 37733 37847 37916 37960 37738 37469 37407 37416 37369 37480 37533 37655 37694 37773 37691 37390 37189 37081 36909 36857 37196 37496 37734 37550 37832 37506 37461 37446 38243 39008 39684 40684 40960 40938 40554 40635 39781 39039 38797 38855 38881 38970 38761 38628 38569 38659 39493 40039 40469 40884 41070 41149 41339 41663 42050 42557 42750 42004 41486 40928 40487 40130 39706 39299 39001 38824 38710 38240 37708 37201 36831 36521 36265 36014 36025 35978 36202 36094 35872 35642 35468 35427 35380 35376 35384 35276 35417 35492 35582 35393 35334 35259 35314 35403 35370 35491 35469 35523 35608 35496 35324 35298 35442 35537 35558 35525 35527 35632 35643 35611 35335 35138 35126 35219 35309 35381 35536 35688 35815 35956 35848 35758 35682 35798 35843 35909 35961 35968 36059 36098 36013 35797 35591 35545 35546 35585 35584 35584 35404 35306 35291 35072 34857 34755 34680 34887 35100 35422 35823 36155 37408 38269 38517 38772 39247 39613 39819 39970 40276 40518 40765 40946 40826 40399 40098 40203 40221 40346 40232 40031 39800 39835 39979 39791 39427 38844 38454 38214 38191 38129 38319 38407 38351 38353 37917 37673 37422 37338 37289 37262 37353 37611 37773 37759 37749 37557 37295 37186 37127 37257 37549 38039 38613 38978 39254 39471 39483 39382 39417 39576 39739 39671 39469 39356 39331 39521 39722 39642 39496 39563 39511 39552 39597 39766 39981 39984 39746 39234 38629 38188 37988 37846 37771 37731 37955 38001 37950 37889 37711 37321 37003 36868 36692 36562 36467 36363 36248 36118 35944 35530 35138 34835 34714 34724 34689 34684 34681 34622 34553 34494 34227 34058 34059 34054 34158 34251 34357 34442 34436 34419 34300 34134 33970 33934 33854 33790 33902 33979 34198 34260 34298 34166 33833 33614 33579 33670 33750 33785 33782 33815 33844 33885 33741 33516 33394 33412 33487 33606 33693 33751 33827 33902 33916 33775 33564 33432 33459 33547 33704 33803 33835 33853 33858 33886 33713 33558 33560 33590 33657 33729 33782 33894 33956 34095 34159 33975 33888 33855 33921 34106 34230 34406 34651 34688 34619 34512 34270 34138 34199 34263 34423 34503 34700 34758 34815 34876 34783 34569 34523 34549 34669 34828 34987 35132 35436 35780 37385 39213 40078 40566 40008 39133 38305 37726 37277 36711 36151 35604 35004 34256 34088 33895 34597 34933 35194 35499 35808 36045 36051 35899 35349 35665 35895 35851 36135 36547 36583 36454 36324 36301 36073 35888 35885 35879 35925 36230 36501 36614 36857 37007 37090 36932 36874 36712 36713 36812 37042 37153 37305 37236 37242 37540 37373 37060 37186 37318 37443 37437 37400 37370 37267 37183 37144 36755 36500 36470 36428 36442 36521 36568 36597 36678 36730 36661 36374 36425 36813 37302 37864 38552 38904 38920 38604 38269 37719 37180 36999 36802 36804 36949 37161 37448 37648 37831 38841 38805 39002 39096 38928 38726 38625 38399 38361 38301 38349 38133 37735 37458 37197 36909 37136 37238 37322 37344 37351 37307 37018 36758 36926 36833 36826 36835 36917 36943 37030 37302 37345 37246 37095 36896 36912 37108 37294 37438 37553 37543 37829 37924 37756 37437 37412 37395 37543 37751 37765 37735 37830 37904 37901 37518 37347 37233 37195 37116 37430 37499 37432 37652 37736 37659 37251 36908 36832 36826 36848 37181 37761 38080 38775 39316 39250 38999 39383 39526 39359 40539 40773 40585 40938 40934 40800 40512 39850 39432 39117 38932 38735 38668 38789 38702 38867 38795 38586 38191 37886 37858 37700 37730 37592 37657 37690 37841 38237 38251 38274 37668 38221 38597 38176 38615 38495 38404 39020 39043 38777 38596 38176 38072 38072 38019 38181 38773 38646 38673 39165 38608 38633 38483 38060 37974 37895 37836 38232 38223 38571 38582 39116 38876 39216 38823 38927 39312 39621 39401 39569 39533 39623 39653 39361 38744 38393 38272 38264 38194 38136 38253 38269 38145 38109 38069 37826 37787 37884 37838 38018 38145 38138 38508 38924 38752 38946 38792 38305 38111 38050 37980 38000 38104 38100 38028 38171 38097 37762 37622 37642 37598 37745 37683 37869 37921 37884 37910 37874 38033 37708 37460 37645 37783 37741 37934 38111 38084 38223 38366 38324 37686 37818 37587 37494 37836 38116 38134 38485 38546 38543 38700 38551 38396 38023 38229 38520 38485 38428 38605 38593 38825 38848 38955 38645 38424 38370 38228 38340 38443 38607 38614 38835 38729 38979 38643 38419 38321 38190 38286 38292 38309 38313 38412 38420 38503 38322 37969 37996 38136 38126 38162 38230 38160 38619 38821 38838 38782 38502 38397 38309 38448 38570 38856 38950 38901 39416 40009 40522 40825 41152 41292 41603 41816 41866 41641 41821 41580 41402 41197 40468 39936 40306 40415 40363 40456 40335 40356 40118 40081 39950 39865 39487 39419 39316 39617 39447 39729 39669 39833 39798 39633 39628 39365 39117 38802 38930 38775 39037 39098 39188 38913 38952 38744 38387 38033 37842 37706 37662 37723 37810 37827 37950 37846 37945 37690 37437 37392 37425 37499 37650 37664 37891 38225 38559 38631 38685 38610 38460 38458 38379 38306 38231 38382 38307 38227 37936 37764 37376 37088 36740 37081 37168 37385 37515 37548 37553 37429 37170 36934 36693 36549 36649 36527 36452 36560 36588 36597 36555 36247 36104 35895 35971 36091 36175 36290 36351 36391 36461 36474 36270 36026 35837 35846 35918 36057 36311 36433 36603 36623 36561 36533 36224 36184 35842 35817 36296 36441 36463 36526 36588 36780 36618 36428 36310 36481 36576 36702 36797 36801 36968 37006 37029 36869 36645 36524 36463 36475 36447 36509 36643 36772 36669 36625 36601 36494 36548 36516 36345 36561 36771 36971 36999 36945 36871 36673 36433 36308 36323 36353 36518 36527 36547 36559 36505 36494 36212 36067 35956 35884 35962 35931 35931 36042 36047 36091 36108 35841 35628 35475 35401 35502 35486 35633 35652 35692 35583 35680 35537 35371 35273 35322 35346 35454 35506 35575 35768 35967 36384 36520 36397 36240 36104 36061 36032 36047 36090 36117 36146 36163 36078 35813 35633 35605 35618 35755 35804 35883 35957 35999 35981 35876 35813 35819 35750 35763 35807 35896 35976 36108 36289 36458 36377 36282 36282 36380 36505 36532 36548 36591 36636 36705 36764 36597 36412 36325 36333 36391 36451 36443 36396 36376 36367 36372 36239 36059 35819 35723 35701 35752 35863 36032 36250 36432 36451 36262 36119 36097 36120 36228 36291 36297 36331 36405 36459 36454 36196 35922 35816 35799 36015 36223 36446 36641 36573 36500 36560 36425 36261 36167 36197 36271 36313 36271 36290 36316 36262 36236 36062 35856 35848 35958 36108 36299 36603 37114 37684 37996 38472 39108 39723 40320 40614 40832 40873 40745 41166 41207 40828 39926 39132 38478 37991 37557 37248 37058 36845 36597 36413 36193 36012 35769 35467 35167 34941 34802 34711 34835 35040 35277 35496 35636 35548 35358 35242 35212 35262 35344 35393 35520 35775 35901 35982 35921 35847 35906 36116 36471 37032 37678 38125 38358 38503 38688 38828 39104 39607 40186 40724 41201 41556 41862 42140 42357 42561 42672 42681 42754 42879 43028 43135 43219 43330 43437 43342 42956 42623 42152 41799 41922 42282 42361 42095 41475 40881 40624 40316 39844 39334 39068 38953 38911 38804 38599 38362 38086 37802 37665 37538 37328 37163 37169 37106 37042 36919 36792 36711 36628 36529 36292 35986 35808 35757 35751 35712 35599 35541 35455 35488 35515 35226 35172 35057 35170 35331 35477 35500 35516 35709 35819 35835 35651 35510 35530 35636 35910 36209 36317 36219 36169 36179 35851 35389 35077 34920 34874 34856 34830 34768 34730 34687 34672 34547 34240 34063 33992 34027 34082 34161 34228 34304 34514 34731 34743 34504 34373 34431 34656 34914 35160 35497 36026 36544 36832 36655 36538 36715 37059 37527 37900 38018 38356 38473 38589 38396 38099 38019 37863 37709 37922 38276 38516 38724 38920 39096 39068 38830 38717 38691 38757 38778 38712 38536 38279 38012 37825 37599 37227 36887 36598 36404 36277 36226 36205 36185 36216 36291 36227 36122 36119 36230 36350 36437 36571 36661 36753 36881 37030 36947 36731 36519 36428 36398 36385 36285 36201 36158 36129 36062 35834 35573 35471 35481 35539 35608 35669 35730 35771 35830 35811 35620 35474 35417 35443 35477 35500 35501 35487 35468 35463 35395 35237 35184 35355 35568 35784 36094 36316 36484 36621 36796 37052 37163 37492 38032 38605 39002 39418 39826 40161 40450 40713 40814 40602 40508 40459 40458 40473 40461 40477 40582 40630 40650 40385 39740 39184 38689 38297 38064 38064 38208 38191 38156 38047 37726 37442 37198 37255 37396 37750 38180 38687 39143 39507 39852 39923 39836 39881 40002 40082 40186 40270 40459 40733 40975 41098 40951 40502 40214 39918 39839 39728 39503 39421 39171 39020 38999 38959 38709 38526 38151 37752 37425 37073 36821 36589 36558 36562 36477 36159 36056 35984 35917 35871 35831 35779 35614 35598 35693 35672 35642 35661 36007 36395 36701 36535 36219 35895 35693 35606 35407 35120 34952 34895 34906 34980 35088 35235 35381 35524 35690 35695 35565 35513 35485 35787 35710 35771 35783 35879 35848 35805 35737 35461 35175 35109 35202 35559 36269 36814 37251 37862 38463 39101 39455 39487 39476 39304 39310 39477 39578 39656 39740 39700 39827 39546 39204 38890 38595 38451 38416 38677 38912 39081 39169 39291 39246 38944 38592 38387 38191 38072 37962 38021 38024 38108 38205 38425 38369 38355 38218 38288 38376 38349 38238 38217 38169 38398 38521 38666 38644 38665 38641 38640 38630 38560 38665 38916 39160 39314 39336 38984 38518 38133 37842 37717 37828 37955 38048 38033 38053 38122 37883 37463 37037 36676 36406 36452 36465 36525 36609 36942 37237 37977 38730 39063 39608 39687 39851 39986 39798 39534 39340 39266 39147 39122 38532 37963 37469 37200 37291 37228 37249 37142 37176 37235 37472 37685 37715 37739 38005 38257 38299 38508 38685 38928 39144 39355 39440 39147 38801 38556 38461 38527 38620 38642 38703 38815 38864 38858 38561 38177 37779 37479 37309 37280 37306 37334 37250 37539 37447 37423 37098 36797 36641 36481 36433 36424 36371 36414 36415 36515 36693 36832 36726 37010 37657 38289 38987 39580 39908 39747 39298 38805 38282 37597 36937 36442 36063 35870 35788 35717 35660 35610 35562 35525 35246 34789 34564 34547 34617 34758 34929 35249 35672 35907 35815 35563 35052 34600 34396 34210 34100 34032 34091 34061 34061 34121 34211 34140 33893 33823 33790 33852 33899 34007 34075 34253 34371 34488 34601 34487 34360 34430 34511 34607 34702 34876 34852 34856 34851 34879 34628 34295 34114 34266 34495 34732 34951 35095 35221 35436 35481 35390 35177 34990 34922 34881 34973 35084 35292 35457 35545 35542 35540 35348 35133 35009 34928 34922 35247 35422 35825 36081 36434 37635 38493 39048 39642 40077 40217 39907 39622 39251 38838 38695 38873 39384 39718 39641 39146 38810 38581 38384 38215 38048 37908 37654 37470 37230 36805 36299 35950 35703 35559 35500 35454 35435 35392 35379 35343 35271 35042 34935 34796 34729 34799 34943 35066 35252 35287 35450 35512 35497 35255 35132 35070 35108 35191 35326 35482 35751 35965 36058 36071 35917 35769 35650 35708 35931 36178 36511 36722 36783 36843 36849 36881 36721 36577 36487 36423 36450 36260 36204 36098 36127 36284 36533 36471 36317 36343 36416 36458 36622 36773 36915 36979 36989 36970 36846 36503 36499 36396 36336 36336 36345 36426 36457 36406 36321 36267 36083 35910 35866 35819 35822 35888 35927 35942 36020 36134 36237 36188 36064 36036 36169 36345 36521 36680 36771 36861 36868 36869 36782 36498 36309 36216 36173 36203 36305 36401 36434 36454 36418 36321 36030 35737 35654 35677 35827 36058 36258 36434 36484 36725 36860 36874 36702 36478 36276 36256 36353 36411 36454 36507 36553 36511 36459 36245 36099 36064 36102 36091 36128 36060 36143 36299 36581 36764 36589 36253 36065 36010 35993 36093 36128 36079 36117 36095 36216 36204 36088 36046 35985 36030 36062 36025 36092 36070 36101 36230 36274 36117 35936 35868 35954 36072 36221 36319 36420 36499 36484 36360 36331 36128 35961 35905 35927 35948 35978 35963 36048 36127 36119 36078 35896 35711 35619 35642 35742 35874 35947 36124 36175 36249 36276 36291 36199 36226 36338 36528 36648 36689 36708 36631 36529 36529 36514 36364 36298 36446 36565 36731 36782 36757 36642 36513 36543 36609 36567 36313 36076 36118 36204 36343 36504 36412 36523 36493 36522 36571 36490 36271 36125 36149 36191 36276 36336 36381 36512 36570 36644 36687 36506 36250 36136 36080 36179 36293 36356 36427 36611 36579 36652 36538 36166 35976 35767 35814 35985 36142 36323 36461 36523 36689 36782 36701 36394 36162 36089 36109 36045 36201 36241 36399 36394 36386 36301 35984 35855 35983 36205 36333 36530 36634 36739 36911 36940 36956 36800 36540 36282 36136 36068 36107 36201 36276 36271 36288 36261 36259 36098 35990 35908 35935 36096 36170 36259 36353 36496 36497 36540 36499 36394 36138 36144 36018 36140 36295 36305 36217 36184 36111 36216 36324 36350 36268 36416 36640 37271 37645 37583 37278 37093 37128 37047 36781 36553 36417 36385 36342 36304 36240 36200 36175 36177 36127 36015 35771 35670 35606 35545 35603 35648 35689 35734 35698 35709 35712 35796 35688 35555 35552 35605 35707 35904 36096 36224 36248 36345 36470 36469 36204 36014 35894 35934 35943 36029 36141 36318 36304 36395 36431 36279 36221 36644 37077 37663 38122 38340 38393 38068 37787 37588 37318 36808 36519 36186 36062 36033 36102 36183 36299 36311 36297 36264 36012 35901 35956 36038 36283 36383 36595 36725 36885 36937 37252 37266 37159 37099 37024 36984 36959 37003 37271 37781 38431 38928 39063 38907 38848 38790 39041 39020 38923 38979 38977 38910 39114 39238 39132 38742 38534 38402 38471 38753 39292 39824 40319 40645 40944 40728 40468 40167 40247 40350 40388 40495 40758 40803 40693 40664 40329 39771 39276 39108 39102 39069 39151 39050 38717 38403 38261 38137 37973 37565 37233 36964 36713 36439 36381 36541 36660 36896 37020 36954 36593 36160 35945 35810 35597 35800 35860 35872 36058 36216 36034 35502 35228 35048 35039 35161 35269 35382 35459 35593 35824 36203 36122 35723 35385 35425 35538 35900 36132 36108 36270 36564 36871 36854 36502 36186 35911 35646 35460 35313 35379 35388 35396 35360 34997 34829 34827 34893 34950 35010 35113 35242 35581 36104 36494 36559 36338 36219 36057 35913 35863 35872 35844 35904 35893 35922 35645 35569 