20788 20797 20817 20850 20869 20894 20935 20934 20896 20918 20935 20938 20979 21006 21032 21100 21117 22485 22551 22565 22558 22582 22614 22624 22628 22628 22639 22641 22651 22671 22688 22710 22686 22637 22591 22549 22461 22315 22207 22094 21967 21869 21766 21681 21569 21490 21400 21314 21250 21201 21147 21101 21048 21004 20963 20916 20869 20809 20695 20575 20461 20369 20283 20195 20135 20048 19984 19926 19857 19806 19755 19721 19687 19656 19644 19610 19585 19526 19423 19327 19221 19154 19075 19024 18962 18913 18868 18813 18777 18737 18709 18673 18664 18644 18637 18626 18632 18613 18582 18500 18429 18364 18320 18265 18234 18218 18201 18176 18165 18162 18143 18149 18151 18141 18172 18170 18171 18191 18211 18217 18223 18186 18144 18117 18083 18054 18049 18053 18047 18048 18051 18058 18070 18083 18092 18110 18132 18162 18173 18207 18233 18252 18272 18296 18287 18283 18268 18254 18249 18269 18265 18293 18307 18306 18331 18341 18358 18379 18398 18417 18437 18470 18480 18503 18522 18539 18531 18526 18539 18539 18544 18568 18573 18599 18612 18635 18657 18680 18683 18724 18769 18808 18832 18861 18872 18894 18909 18923 18920 18922 18942 18963 18964 18992 19003 19031 19047 19069 19091 19109 19139 19163 19189 19212 19251 19282 19288 19306 19307 19297 19297 19290 19293 19285 19278 19266 19274 19281 19287 19301 19312 19337 19346 19355 19357 19365 19360 19342 19337 19322 19304 19309 19297 19298 19305 19301 19293 19287 19281 19298 19303 19297 19310 19305 19319 19321 19296 19268 19246 19228 19223 19217 19219 19204 19188 19196 19192 19189 19186 19186 19191 19213 19217 19237 19251 19234 19213 19195 19179 19171 19162 19165 19174 19166 19161 19173 19181 19173 19198 19197 19238 19244 19258 19269 19278 19250 19212 19176 19160 19123 19116 19095 19076 19060 19038 19014 18995 18975 18970 18963 18950 18946 18946 18944 18938 18900 18854 18812 18786 18767 18755 18757 18744 18737 18730 18733 18731 18736 18742 18761 18756 18755 18772 18793 18768 18739 18712 18698 18676 18675 18671 18668 18676 18670 18654 18645 18662 18660 18680 18684 18692 18702 18715 18720 18717 18684 18654 18647 18629 18628 18625 18631 18635 18642 18643 18649 18656 18658 18676 18697 18709 18721 18740 18754 18760 18738 18733 18705 18696 18684 18694 18702 18711 18720 18724 18723 18735 18744 18764 18771 18794 18828 18839 18862 18889 18872 18883 18871 18869 18879 18880 18904 18906 18908 18964 19006 19054 19094 19145 19183 19231 19279 19310 19346 19359 19355 19351 19352 19336 19341 19349 19341 19346 19345 19366 19347 19343 19352 19322 19320 19318 19342 19360 19368 19373 19377 19360 19364 19354 19346 19414 19438 19439 19450 19460 19471 19470 19476 19483 19495 19543 19576 19619 19671 19699 19712 19730 19742 19772 19802 19807 19824 19855 19900 19922 19949 19990 20036 20071 20110 20144 20192 20221 20269 20286 20291 20289 20298 20292 20299 20301 20288 20275 20284 20288 20274 20293 20291 20307 20307 20311 20328 20345 20341 20334 20317 20313 20293 20292 20292 20299 20286 20290 20300 20296 20295 20307 20302 20322 20333 20354 20362 20369 20359 20347 20325 20314 20298 20295 20307 20307 20311 20305 20308 20308 20319 20317 20324 20313 20326 20326 20338 20332 20304 20270 20229 20205 20181 20163 20151 20143 20118 20117 20101 20101 20099 20106 20095 20113 20109 20099 20120 20125 20109 20069 20042 20019 19987 19968 19967 19958 19954 19963 19946 19944 19967 19961 19950 19965 19977 19990 19996 20010 20013 20032 20030 19987 19951 19932 19912 19898 19885 19888 19884 19874 19876 19878 19872 19875 19888 19889 19895 19907 19919 19934 19942 19963 19978 19982 19969 19945 19921 19909 19888 19878 19871 19879 19879 19882 19878 19891 19900 19903 19919 19929 19942 19962 19957 19966 19987 19994 20015 20007 19981 19959 19955 19940 19920 19926 19926 19926 19922 19920 19925 19942 19939 19955 19961 19961 19974 19990 19997 20020 20034 20059 20042 20019 19999 19989 19987 19983 19999 20002 20005 20019 20018 20026 20036 20043 20062 20079 20088 20108 20114 20137 20133 20145 20138 20109 20098 20083 20073 20071 20076 20082 20079 20090 20088 20098 20108 20111 20114 20141 20140 20151 20171 20180 20189 20187 20163 20140 20121 20122 20115 20100 20099 20109 20101 20087 20097 20090 20107 20105 20118 20125 20129 20130 20165 20166 20177 20178 20138 20111 20096 20071 20064 20053 20060 20055 20047 20048 20054 20061 20063 20057 20079 20097 20107 20117 20139 20141 20164 20139 20120 20096 20085 20070 20070 20065 20068 20064 20072 20073 20076 20091 20093 20094 20108 20119 20142 20156 20169 20176 20202 20187 20175 20146 20141 20124 20132 20129 20135 20135 20155 20154 20164 20177 20185 20201 20209 20223 20244 20263 20285 20303 20333 20348 20372 20368 20359 20330 20327 20324 20326 20335 20332 20328 20336 20352 20356 20356 20367 20383 20387 20401 20400 20424 20419 20449 20460 20468 20485 20502 20479 20447 20417 20398 20383 20388 20367 20379 20381 20376 20376 20363 20369 20371 20381 20382 20396 20404 20419 20437 20449 20460 20471 20454 20440 20408 20392 20377 20367 20361 20373 20371 20363 20376 20363 20375 20390 20386 20413 20414 20429 20434 20443 20456 20472 20489 20484 20465 20433 20419 20392 20390 20375 20378 20377 20361 20364 20360 20366 20371 20375 20385 20401 20405 20411 20436 20430 20458 20458 20462 20430 20390 20365 20347 20337 20333 20311 20310 20306 20305 20298 20296 20296 20285 20305 20312 20315 20321 20331 20338 20338 20356 20349 20304 20275 20242 20232 20208 20187 20174 20175 20171 20169 20171 20165 20162 20173 20182 20193 20202 20226 20233 20250 20264 20243 20213 20172 20150 20129 20102 20110 20103 20091 20092 20089 20094 20095 20102 20109 20121 20123 20141 20137 20170 20171 20185 20216 20186 20167 20127 20093 20082 20066 20060 20044 20039 20039 20032 20040 20028 20037 20049 20052 20061 20083 20088 20104 20114 20123 20139 20114 20078 20047 20024 19998 19978 19971 19968 19970 19953 19959 19959 19959 19964 19970 19978 19997 20001 20007 20034 20048 20062 20048 20001 19977 19954 19948 19930 19935 19936 19927 19938 19932 19938 19948 19946 19962 19980 19985 20000 20027 20039 20048 19954 19946 19940 19935 19929 19942 19943 19943 19958 19956 19976 19987 19987 20002 19994 20028 20036 20065 20067 20078 20066 20067 20051 20030 20030 20057 20069 20087 20087 20103 20108 20115 20125 20127 20139 20148 20167 20167 20176 20189 20182 20145 20098 20071 20070 20054 20043 20044 20037 20027 20028 20029 20031 20047 20044 20068 20067 20084 20092 20102 20116 20124 20119 20079 20054 20033 20003 19989 19985 19972 19963 19960 19955 19954 19965 19970 19970 19972 20000 19995 20017 20037 20067 20085 20104 20107 20075 20051 20049 20037 20042 20051 20047 20059 20066 20060 20084 20087 20101 20120 20131 20131 20143 20155 20185 20195 20218 20216 20176 20140 20119 20088 20051 20041 20030 20023 20005 20003 19992 19988 19984 19968 19987 19974 19989 19988 20008 19988 20010 20019 19983 19949 19918 19893 19879 19866 19869 19871 19862 19867 19876 19866 19874 19882 19906 19915 19926 19947 19976 19979 19996 20007 20004 19968 19948 19921 19900 19881 19869 19864 19865 19850 19859 19857 19862 19861 19871 19871 19899 19900 19904 19933 19942 19946 19968 19928 19885 19843 19813 19790 19770 19759 19753 19747 19736 19729 19723 19720 19726 19722 19712 19737 19726 19747 19760 19756 19759 19710 19677 19643 19622 19596 19587 19581 19578 19576 19567 19578 19586 19593 19594 19606 19624 19638 19648 19671 19678 19676 19636 19589 19575 19552 19540 19524 19524 19534 19528 19526 19539 19548 19553 19555 19581 19586 19606 19617 19639 19645 19663 19667 19620 19592 19566 19548 19535 19524 19530 19526 19523 19539 19534 19530 19544 19540 19560 19559 19578 19581 19597 19598 19613 19580 19545 19507 19473 19450 19444 19443 19426 19417 19413 19410 19410 19398 19405 19403 19411 19422 19426 19430 19448 19466 19467 19418 19394 19362 19338 19324 19328 19325 19326 19334 19326 19349 19347 19363 19370 19392 19400 19418 19432 19455 19471 19490 19510 19481 19453 19412 19391 19387 19370 19377 19376 19370 19393 19398 19396 19399 19414 19422 19444 19451 19465 19487 19499 19521 19528 19550 19516 19488 19451 19439 19430 19408 19413 19415 19419 19401 19404 19408 19416 19416 19435 19446 19452 19457 19474 19485 19499 19507 19509 19483 19456 19426 19406 19375 19359 19369 19361 19360 19363 19366 19361 19366 19382 19379 19390 19410 19428 19444 19453 19490 19468 19442 19416 19394 19389 19387 19395 19382 19393 19408 19415 19432 19431 19439 19460 19491 19503 19511 19535 19553 19577 19593 19588 19561 19539 19523 19512 19500 19510 19510 19515 19517 19529 19538 19547 19568 19581 19587 19607 19617 19629 19656 19666 19692 19697 19671 19652 19624 19606 19605 19588 19604 19612 19620 19611 19615 19625 19626 19646 19630 19658 19657 19669 19684 19702 19699 19736 19732 19700 19655 19640 19620 19617 19595 19612 19602 19593 19600 19594 19590 19598 19599 19623 19630 19643 19656 19668 19693 19688 19660 19626 19590 19590 19584 19576 19580 19588 19587 19585 19596 19605 19614 19627 19634 19659 19678 19700 19718 19720 19744 19737 19707 19672 19661 19643 19633 19626 19630 19618 19631 19634 19636 19645 19655 19665 19679 19682 19694 19721 19731 19740 19752 19744 19706 19684 19667 19640 19628 19618 19625 19620 19623 19634 19639 19640 19668 19687 19698 19711 19729 19744 19765 19777 19775 19766 19749 19728 19713 19697 19702 19710 19704 19717 19723 19713 19726 19734 19738 19753 19772 19781 19797 19808 19832 19841 19829 19789 19791 19759 19754 19740 19748 19756 19746 19759 19771 19771 19785 19796 19800 19820 19836 19856 19876 19882 19889 19913 19917 19891 19862 19835 19817 19804 19794 19802 19804 19805 19792 19783 19785 19786 19797 19801 19803 19819 19826 19831 19844 19869 19880 19861 19823 19798 19773 19745 19731 19726 19711 19711 19701 19700 19699 19692 19702 19711 19706 19718 19724 19740 19734 19749 19754 19726 19686 19659 19643 19637 19619 19629 19641 19622 19623 19627 19640 19650 19667 19681 19699 19690 19719 19740 19749 19773 19759 19738 19695 19697 19666 19658 19654 19662 19658 19668 19649 19660 19675 19678 19690 19709 19716 19731 19750 19762 19767 19800 19801 19761 19727 19709 19677 19674 19663 19660 19663 19669 19668 19658 19672 19680 19680 19680 19705 19709 19718 19737 19739 19752 19745 19721 19699 19670 19630 19627 19625 19608 19588 19583 19596 19591 19599 19597 19606 19609 19628 19638 19654 19670 19687 19691 19688 19650 19629 19606 19604 19582 19587 19612 19605 19612 19607 19629 19637 19641 19654 19674 19687 19702 19727 19743 19761 19773 19753 19724 19703 19687 19677 19662 19658 19660 19683 19663 19672 19666 19687 19692 19700 19720 19737 19751 19762 19786 19781 19807 19810 19789 19761 19739 19721 19714 19713 19709 19709 19710 19701 19712 19715 19720 19727 19726 19734 19746 19757 19765 19777 19792 19806 19784 19748 19695 19668 19631 19620 19596 19594 19601 19595 19581 19596 19595 19594 19590 19620 19627 19643 19638 19652 19669 19660 19639 19601 19552 19537 19529 19512 19513 19520 19527 19538 19551 19571 19603 19603 19620 19643 19656 19671 19683 19713 19700 19672 19648 19626 19614 19598 19600 19610 19614 19604 19615 19621 19625 19643 19651 19656 19667 19688 19702 19709 19718 19684 19651 19628 19589 19574 19556 19569 19561 19560 19558 19552 19548 19553 19533 19565 19570 19574 19581 19594 19608 19583 19553 19524 19510 19486 19468 19468 19472 19471 19480 19472 19486 19504 19514 19533 19543 19560 19576 19601 19606 19607 19586 19548 19525 19518 19506 19497 19507 19496 19509 19521 19516 19528 19544 19553 19572 19590 19588 19612 19628 19642 19666 19673 19622 19608 19573 19567 19556 19553 19550 19559 19560 19565 19566 19566 19579 19578 19609 19623 19623 19634 19643 19665 19668 19669 19657 19630 19594 19576 19570 19552 19545 19535 19544 19543 19541 19539 19546 19540 19568 19559 19583 19582 19606 19626 19647 19650 19619 19592 19579 19567 19555 19561 19572 19570 19585 19584 19595 19603 19609 19641 19659 19671 19691 19707 19722 19745 19775 19788 19770 19735 19739 19712 19707 19693 19702 19703 19713 19704 19727 19737 19727 19749 19771 19775 19787 19817 19820 19835 19867 19868 19886 19872 19848 19829 19814 19803 19797 19796 19806 19801 19802 19801 19800 19815 19828 19826 19832 19835 19859 19858 19886 19886 19908 19909 19875 19847 19836 19810 19789 19792 19792 19785 19781 19786 19787 19785 19793 19795 19805 19824 19830 19856 19859 19881 19893 19860 19828 19812 19771 19778 19764 19752 19773 19784 19775 19787 19787 19797 19792 19804 19832 19842 19874 19871 19887 19908 19910 19892 19860 19849 19816 19808 19790 19790 19802 19775 19788 19786 19801 19808 19802 19805 19823 19837 19845 19848 19874 19875 19871 19834 19807 19791 19766 19743 19727 19717 19718 19714 19720 19707 19708 19709 19705 19720 19730 19728 19749 19746 19757 19774 19779 19743 19712 19697 19656 19635 19632 19608 19606 19603 19591 19586 19587 19585 19586 19598 19604 19611 19624 19629 19636 19669 19667 19662 19628 19614 19583 19568 19565 19562 19569 19552 19548 19535 19521 19519 19528 19534 19542 19535 19550 19551 19573 19584 19604 19618 19578 19557 19504 19497 19484 19448 19449 19456 19440 19442 19434 19412 19416 19410 19411 19423 19411 19431 19434 19452 19476 19470 19455 19441 19437 19439 19422 19421 19414 19433 19442 19439 19443 19442 19452 19469 19504 19524 19536 19535 19549 19565 19561 19565 19549 19553 19549 19551 19539 19536 19541 19543 19544 19556 19574 19595 19618 19630 19650 19665 19673 19677 19663 19630 19577 19499 19446 19381 19345 19347 19331 19325 19340 19348 19352 19366 19359 19385 19562 19616 19652 19710 19745 19767 19805 19833 19870 19901 19938 19967 19986 19985 19986 19984 19988 19994 20012 20026 20040 20057 20079 20084 20109 20103 20127 20128 20152 20165 20179 20163 20143 20127 20112 20112 20099 20090 20091 20082 20088 20093 20100 20102 20093 20086 20101 20108 20094 20065 20044 20024 20008 19984 19980 19976 19981 19984 19979 19992 19987 19999 20009 19999 20023 20015 19991 19971 19952 19933 19926 19913 19921 19934 19931 19940 19939 19957 19963 19970 19990 20000 19992 19969 19923 19853 19809 19777 19777 19766 19784 19804 19819 19845 19861 19889 19924 19933 19947 19935 19910 19912 19911 19912 19919 19945 19948 19974 19980 19999 20012 20028 20065 20086 20099 20101 20083 20075 20068 20070 20083 20094 20110 20123 20128 20139 20145 20161 20188 20195 20199 20190 20148 20126 20108 20110 20101 20092 20084 20090 20087 20105 20083 20094 20104 20111 20107 20113 20090 20042 20034 19999 19984 19975 19983 19991 19992 19983 19995 19992 20018 20021 20039 20036 20034 20001 19964 19955 19937 19944 19944 19954 19960 19976 19979 19992 20002 20019 20033 20057 20063 20042 20018 19999 19978 19965 19955 19975 19975 19983 19990 19995 19991 20013 20025 20037 20050 20059 20061 20031 19999 19970 19967 19950 19948 19945 19969 19964 19969 19970 19979 19992 20003 20006 20005 20031 20027 19988 19959 19936 19899 19896 19885 19895 19895 19883 19866 19874 19867 19877 19880 19880 19894 19894 19900 19867 19822 19798 19779 19765 19753 19752 19747 19744 19740 19742 19753 19754 19770 19779 19791 19784 19802 19778 19736 19713 19705 19682 19689 19692 19698 19700 19696 19711 19714 19723 19739 19755 19762 19789 19799 19793 19756 19734 19702 19698 19682 19677 19681 19690 19694 19696 19703 19721 19708 19732 19737 19751 19767 19787 19796 19774 19733 19710 19697 19680 19686 19670 19668 19682 19673 19682 19683 19696 19697 19712 19713 19707 19736 19737 19745 19733 19695 19658 19630 19615 19597 19601 19587 19579 19583 19582 19578 19579 19587 19592 19598 19608 19617 19617 19632 19641 19605 19573 19553 19528 19526 19511 19519 19529 19527 19531 19542 19545 19561 19576 19586 19606 19618 19637 19657 19668 19661 19637 19607 19586 19580 19571 19569 19564 19582 19569 19589 19583 19595 19599 19612 19629 19638 19662 19676 19694 19708 19714 19729 19699 19669 19647 19636 19626 19621 19625 19628 19630 19627 19638 19621 19633 19646 19656 19664 19660 19674 19688 19697 19703 19721 19721 19690 19665 19623 19617 19607 19593 19603 19596 19584 19593 19584 19580 19591 19607 19617 19625 19639 19655 19665 19672 19680 19682 19660 19631 19617 19607 19606 19606 19618 19621 19627 19640 19641 19648 19659 19680 19683 19694 19724 19728 19746 19761 19760 19743 19710 19692 19669 19662 19665 19667 19669 19661 19677 19665 19682 19693 19693 19719 19721 19733 19737 19758 19773 19765 19733 19708 19681 19668 19643 19641 19639 19631 19622 19617 19610 19619 19613 19621 19619 19621 19630 19640 19651 19655 19656 19624 19582 19547 19514 19508 19489 19496 19481 19475 19473 19461 19463 19480 19465 19490 19505 19503 19521 19542 19551 19547 19525 19493 19464 19444 19432 19440 19439 19428 19431 19436 19443 19448 19462 19466 19480 19489 19506 19517 19526 19552 19564 19574 19569 19526 19508 19485 19458 19466 19445 19455 19449 19446 19436 19438 19466 19468 19462 19482 19490 19511 19521 19524 19532 19559 19565 19557 19518 19487 19468 19436 19429 19434 19432 19408 19416 19415 19405 19417 19403 19416 19415 19423 19428 19432 19439 19459 19458 19455 19432 19418 19384 19368 19365 19358 19357 19360 19362 19359 19353 19376 19380 19396 19395 19427 19439 19449 19472 19490 19505 19521 19497 19472 19450 19457 19439 19423 19434 19447 19442 19449 19451 19464 19470 19481 19494 19514 19522 19533 19561 19575 19575 19597 19607 19590 19564 19533 19534 19522 19514 19505 19511 19518 19515 19514 19516 19524 19526 19522 19542 19557 19566 19570 19575 19588 19593 19584 19560 19539 19523 19515 19501 19504 19493 19493 19499 19502 19494 19502 19508 19514 19540 19555 19553 19568 19585 19610 19629 19604 19573 19562 19546 19542 19534 19539 19546 19555 19545 19554 19561 19580 19593 19603 19636 19642 19663 19667 19678 19702 19696 19664 19649 19623 19609 19601 19592 19616 19613 19607 19605 19609 19617 19627 19633 19636 19643 19665 19668 19683 19694 19697 19682 19641 19606 19565 19536 19515 19493 19486 19476 19476 19469 19456 19447 19445 19418 19406 19398 19384 19381 19389 19400 19404 19381 19352 19320 19295 19290 19282 19268 19271 19289 19275 19273 19295 19300 19298 19313 19323 19334 19360 19385 19392 19412 19392 19357 19354 19333 19327 19322 19327 19326 19331 19337 19337 19345 19354 19372 19375 19376 19398 19414 19438 19453 19461 19442 19416 19376 19356 19338 19344 19348 19357 19357 19367 19372 19378 19393 19405 19410 19407 19430 19448 19467 19476 19491 19478 19453 19421 19412 19398 19385 19393 19381 19378 19376 19380 19385 19392 19387 19396 19407 19420 19435 19460 19476 19482 19483 19457 19433 19449 19436 19434 19441 19456 19457 19465 19467 19491 19490 19504 19521 19550 19555 19587 19612 19632 19641 19650 19628 19613 19601 19576 19585 19569 19585 19591 19593 19594 19607 19616 19629 19661 19665 19691 19712 19728 19751 19760 19768 19760 19733 19702 19687 19663 19648 19643 19646 19633 19632 19627 19633 19635 19641 19657 19657 19665 19682 19690 19691 19712 19715 19705 19675 19657 19625 19614 19605 19600 19606 19606 19605 19609 19607 19606 19626 19634 19643 19651 19661 19685 19688 19705 19698 19669 19661 19646 19647 19636 19646 19657 19643 19651 19659 19655 19686 19700 19711 19726 19736 19746 19766 19771 19792 19793 19784 19757 19747 19739 19727 19726 19735 19727 19746 19736 19749 19770 19763 19777 19783 19805 19810 19832 19832 19838 19859 19859 19831 19815 19802 19798 19781 19764 19773 19765 19770 19768 19762 19763 19769 19771 19769 19776 19788 19794 19793 19815 19822 19802 19788 19755 19745 19723 19724 19748 19737 19749 19762 19756 19771 19763 19782 19807 19808 19825 19820 19837 19845 19848 19819 19779 19744 19726 19708 19689 19678 19675 19680 19670 19660 19670 19677 19677 19689 19691 19700 19707 19727 19737 19737 19720 19698 19661 19658 19633 19627 19616 19618 19594 19598 19600 19584 19607 19596 19605 19618 19625 19636 19646 19644 19654 19664 19680 19640 19624 19593 19577 19572 19558 19545 19550 19549 19540 19548 19542 19552 19553 19558 19580 19584 19601 19621 19630 19656 19637 19621 19607 19570 19559 19563 19569 19565 19579 19581 19583 19584 19597 19608 19627 19633 19639 19660 19669 19685 19704 19719 19696 19688 19668 19649 19650 19639 19634 19636 19648 19631 19631 19634 19627 19636 19650 19651 19659 19670 19669 19678 19681 19679 19673 19626 19627 19617 19596 19594 19584 19599 19592 19604 19603 19605 19623 19625 19636 19637 19648 19659 19682 19675 19687 19677 19660 19645 19637 19633 19623 19635 19646 19650 19656 19660 19673 19674 19686 19700 19717 19734 19742 19749 19738 19728 19701 19666 19631 19596 19574 19577 19568 19567 19571 19572 19577 19582 19612 19636 19670 19713 19726 19762 19776 19800 19815 19819 19805 19794 19786 19783 19778 19777 19783 19781 19785 19797 19790 19800 19799 19816 19820 19829 19837 19842 19854 19855 19865 19863 19841 19816 19799 19788 19766 19766 19769 19753 19756 19754 19736 19743 19754 19753 19764 19771 19780 19793 19811 19816 19822 19816 19787 19762 19755 19755 19743 19742 19744 19745 19752 19757 19751 19756 19778 19784 19813 19810 19829 19750 19761 19775 19773 19778 19786 19812 19818 19832 19839 19824 19805 19786 19768 19773 19772 19778 19785 19785 19794 19797 19804 19818 19830 19845 19870 19877 19892 19907 19915 19937 19941 19936 19896 19883 19873 19870 19869 19872 19866 19869 19876 19880 19900 19898 19912 19920 19938 19931 19949 19964 19973 19974 19960 19924 19917 19889 19870 19865 19879 19868 19859 19855 19845 19846 19853 19855 19845 19871 19875 19871 19884 19880 19888 19850 19829 19807 19790 19775 19778 19786 19775 19762 19772 19782 19782 19784 19807 19813 19822 19828 19850 19861 19860 19849 19818 19802 19788 19771 19749 19764 19757 19779 19764 19776 19775 19776 19786 19806 19805 19819 19835 19840 19859 19869 19854 19827 19791 19776 19762 19740 19758 19749 19748 19756 19738 19762 19763 19772 19776 19777 19785 19816 19822 19829 19850 19853 19829 19801 19783 19767 19755 19750 19738 19731 19747 19739 19728 19748 19733 19752 19748 19777 19778 19778 19785 19800 19812 19800 19812 19771 19752 19722 19713 19689 19692 19692 19688 19687 19683 19690 19691 19697 19702 19708 19713 19714 19733 19750 19755 19771 19766 19746 19727 19705 19691 19703 19694 19702 19705 19687 19694 19701 19718 19716 19733 19753 19773 19788 19796 19818 19834 19849 19823 19803 19774 19742 19729 19712 19699 19687 19682 19675 19674 19673 19663 19670 19689 19683 19705 19721 19741 19750 19755 19753 19719 19705 19677 19657 19649 19648 19638 19621 19610 19616 19615 19620 19607 19611 19614 19618 19635 19656 19677 19683 19654 19648 19627 19608 19615 19624 19633 19642 19648 19674 19682 19695 19703 19722 19720 19741 19737 19755 19743 19726 19692 19681 19664 19667 19671 19676 19681 19681 19688 19691 19704 19720 19717 19747 19758 19763 19782 19774 19767 19743 19711 19690 19691 19689 19680 19689 19697 19708 19710 19708 19717 19720 19744 19743 19751 19766 19767 19747 19708 19696 19655 19651 19633 19638 19639 19638 19626 19636 19644 19638 19656 19663 19656 19683 19696 19716 19700 19674 19658 19633 19618 19616 19624 19612 19625 19652 19656 19663 19670 19685 19702 19723 19729 19755 19761 19790 19798 19801 19771 19751 19731 19727 19721 19719 19727 19740 19743 19746 19758 19762 19780 19797 19806 19819 19841 19844 19870 19877 19907 19879 19855 19849 19825 19815 19818 19818 19821 19835 19847 19848 19858 19859 19875 19890 19901 19914 19923 19932 19967 19972 19990 19987 19965 19939 19924 19918 19906 19907 19920 19917 19912 19919 19922 19916 19931 19932 19936 19955 19962 19983 20001 19990 20022 20008 19972 19951 19933 19920 19920 19920 19924 19935 19930 19951 19941 19954 19963 19979 19992 19993 20011 20032 20035 20050 20064 20032 20020 19999 20012 19994 20009 20022 20017 20022 20026 20035 20049 20061 20074 20096 20109 20124 20135 20150 20167 20146 20139 20108 20094 20082 20080 20074 20080 20086 20089 20110 20108 20110 20119 20122 20129 20151 20157 20158 20180 20208 20209 20205 20179 20153 20132 20120 20106 20100 20115 20115 20112 20109 20122 20124 20124 20130 20127 20152 20154 20171 20172 20192 20196 20187 20165 20140 20100 20086 20074 20072 20057 20051 20054 20054 20055 20044 20036 20053 20059 20053 20060 20075 20075 20090 20078 20052 20022 20008 19982 19992 19986 19987 19985 19976 19980 19981 19983 19998 20016 20012 20034 20043 20055 20074 20091 20094 20058 20034 20013 19994 19983 19978 19978 19973 19967 19974 19984 19991 19989 19998 20004 20011 20028 20040 20050 20062 20068 20061 20024 19994 19976 19961 19955 19945 19946 19939 19943 19938 19930 19930 19938 19944 19939 19948 19958 19972 19960 19983 19994 19994 19945 19928 19897 19884 19868 19850 19850 19848 19837 19834 19841 19835 19830 19837 19845 19861 19866 19866 19896 19898 19906 19929 19927 19885 19859 19836 19836 19827 19826 19824 19835 19832 19837 19842 19851 19857 19862 19870 19894 19905 19921 19921 19939 19952 19978 19977 19947 19923 19903 19884 19870 19872 19883 19878 19875 19889 19878 19879 19891 19900 19897 19918 19919 19935 19939 19947 19975 19978 19982 19956 19931 19897 19885 19876 19869 19882 19875 19871 19866 19864 19875 19879 19875 19879 19883 19901 19916 19930 19934 19933 19970 19956 19927 19907 19904 19892 19881 19890 19896 19894 19890 19907 19910 19919 19927 19944 19959 19974 19986 19999 20017 20040 20035 20031 20003 19982 19984 19963 19957 19962 19957 19956 19971 19972 19976 19990 19985 20007 20019 20018 20041 20049 20072 20074 20084 20111 20105 20073 20056 20041 20031 19999 20001 20009 20002 20002 20000 19999 20000 20010 20008 20002 20025 20038 20030 20046 20062 20064 20075 20075 20053 20028 19996 19984 19970 19951 19943 19948 19943 19941 19938 19954 19968 19966 19956 19977 19992 20003 20007 20025 20041 20035 20015 19972 19956 19947 19948 19940 19942 19961 19956 19949 19960 19976 19967 19987 19998 20014 20022 20028 20056 20065 20081 20079 20060 20029 20008 19995 19991 19984 19967 19984 19981 19976 19980 19982 19986 20005 20006 20033 20030 20053 20054 20078 20085 20088 20083 20055 20050 20015 20007 19991 19989 19998 19998 19991 19975 19976 19973 19973 19974 19985 19993 20006 20013 20027 20031 20045 20063 20052 20024 19991 19953 19946 19929 19929 19922 19913 19913 19907 19910 19916 19912 19928 19937 19933 19947 19948 19973 19989 20004 20001 19977 19963 19941 19950 19940 19938 19954 19945 19968 19959 19964 19986 19992 20002 20012 20024 20046 20057 20071 20089 20098 20117 20095 20078 20060 20050 20056 20041 20053 20054 20075 20077 20090 20102 20093 20112 20125 20116 20107 20113 20101 20105 20104 20106 20107 20089 20072 20072 20067 20070 20073 20077 20088 20093 20087 20087 20105 20102 20104 20107 20114 20149 20131 20147 20144 20171 20154 20131 20110 20095 20084 20069 20081 20072 20081 20079 20085 20095 20099 20107 20116 20131 20139 20156 20174 20184 20197 20201 20185 20155 20143 20118 20120 20118 20124 20122 20117 20124 20122 20142 20140 20157 20173 20171 20190 20206 20215 20225 20240 20230 20211 20194 20172 20154 20155 20150 20153 20147 20158 20155 20166 20167 20162 20173 20186 20184 20199 20196 20205 20234 20226 20230 20201 20185 20156 20126 20104 20092 20067 20070 20067 20046 20048 20035 20027 20034 20036 20031 20039 20046 20062 20050 20063 20066 20058 20022 19990 19957 19944 19945 19929 19933 19930 19916 19916 19928 19937 19933 19945 19946 19966 19993 19990 19998 20010 20024 20015 19984 19968 19942 19925 19932 19916 19932 19927 19920 19920 19934 19941 19940 19946 19954 19976 19987 19985 20002 20021 20033 20041 20015 19981 19963 19960 19939 19941 19940 19947 19948 19955 19943 19949 19953 19961 19976 19972 19989 20000 20018 20023 20033 20038 20051 20029 19987 19977 19958 19959 19947 19956 19949 19942 19940 19943 19939 19955 19946 19949 19959 19955 19975 19987 19994 20008 20012 19988 19970 19950 19940 19927 19923 19922 19921 19922 19928 19927 19941 19949 19958 19969 19982 19995 20005 20033 20043 20046 20068 20063 20044 20026 20010 20007 19983 19980 19985 19985 19982 20000 20004 19996 20006 20022 20037 20047 20051 20057 20070 20089 20097 20115 20103 20071 20055 20044 20047 20015 20009 20000 19997 19999 19992 20007 20004 20013 20034 20037 20037 20052 20060 20058 20066 20079 20080 20045 20019 19999 19984 19968 19954 19957 19955 19942 19954 19942 19945 19942 19948 19961 19958 19969 19985 19994 20005 20005 19983 19960 19996 19990 19983 20000 19999 19993 20008 20003 20017 20041 20044 20058 20019 20010 19970 19964 19936 19952 19940 19954 19951 19947 19956 19974 19977 20001 20000 20022 20031 20038 20051 20063 20037 20020 20016 19989 19992 19976 19977 19985 19981 19992 19989 19996 20012 20015 20029 20046 20052 20079 20078 20076 20062 20018 19998 19998 19969 19971 19971 19964 19963 19967 19964 19964 19971 19978 19980 19980 19988 19997 20000 19979 19938 19909 19897 19884 19864 19856 19871 19857 19860 19859 19849 19847 19868 19876 19889 19910 19918 19921 19922 19895 19860 19835 19835 19827 19827 19840 19853 19857 19866 19873 19888 19897 19915 19917 19940 19958 19973 19985 19986 19973 19942 19918 19910 19901 19903 19905 19923 19917 19927 19928 19946 19954 19963 19981 19996 19998 20030 20039 20052 20068 20068 20055 20023 19992 19991 19995 19991 19997 20002 19983 20004 20000 19996 20021 20021 20019 20051 20045 20059 20061 20083 20093 20101 20082 20066 20043 20041 20038 20032 20029 20028 20039 20033 20043 20042 20047 20054 20062 20074 20081 20102 20101 20132 20148 20146 20130 20114 20100 20099 20104 20101 20121 20130 20148 20141 20158 20156 20172 20202 20201 20218 20233 20249 20263 20282 20296 20288 20268 20255 20261 20239 20239 20254 20254 20262 20265 20273 20283 20275 20288 20312 20318 20320 20336 20335 20352 20359 20365 20337 20322 20300 20287 20296 20274 20280 20277 20269 20278 20289 20291 20292 20292 20308 20331 20355 20376 20422 20441 20469 20452 20456 20459 20468 20485 20483 20510 20518 20537 20558 20570 20588 20608 20633 20657 20685 20709 20726 20756 20764 20737 20721 20710 20691 20691 20699 20700 20695 20685 20674 20646 20675 20678 20689 20698 20717 20737 20743 20760 20777 20770 20741 20728 20716 20697 20697 20694 20696 20702 20702 20718 20712 20715 20721 20717 20736 20735 20738 20749 20750 20764 20765 20743 20711 20672 20659 20644 20632 20612 20620 20599 20586 20573 20573 20558 20556 20556 20560 20556 20556 20562 20563 20565 20553 20521 20489 20447 20426 20406 20388 20372 20346 20351 20336 20326 20327 20339 20332 20341 20354 20365 20382 20386 20421 20437 20457 20444 20433 20448 20464 20477 20495 20523 20533 20556 20585 20606 20609 20642 20661 20679 20708 20726 20754 20773 20785 20805 20812 20770 20742 20737 20708 20712 20703 20693 20692 20697 20701 20692 20705 20706 20704 20720 20727 20737 20763 20767 20794 20812 20825 20802 20791 20767 20756 20747 20752 20748 20749 20752 20756 20762 20755 20772 20779 20791 20805 20812 20825 20828 20861 20865 20867 20840 20822 20793 20786 20782 20771 20775 20776 20776 20771 20770 20779 20781 20799 20807 20823 20832 20845 20862 20880 20895 20890 20855 20834 20829 20805 20801 20801 20805 20800 20796 20802 20813 20824 20836 20843 20842 20868 20883 20885 20886 20912 20914 20926 20912 20882 20862 20844 20828 20828 20824 20821 20826 20833 20827 20850 20836 20842 20863 20868 20882 20896 20909 20927 20951 20950 20960 20929 20908 20882 20873 20841 20822 20815 20819 20803 20784 20784 20786 20780 20788 20783 20797 20786 20786 20806 20804 20809 20794 20752 20726 20717 20710 20691 20693 20691 20687 20685 20697 20693 20689 20691 20710 20722 20736 20739 20770 20776 20798 20791 20768 20720 20714 20693 20679 20684 20678 20673 20678 20680 20679 20679 20688 20701 20725 20724 20741 20740 20749 20773 20784 20783 20750 20730 20706 20689 20681 20665 20663 20652 20661 20646 20638 20647 20639 20655 20658 20662 20660 20679 20687 20686 20699 20677 20645 20603 20593 20562 20544 20537 20526 20520 20509 20502 20512 20502 20509 20509 20517 20523 20529 20548 20564 20557 20530 20492 20461 20453 20433 20430 20423 20418 20415 20419 20415 20432 20427 20420 20445 20453 20464 20481 20493 20513 20530 20528 20488 20467 20443 20423 20401 20407 20414 20404 20402 20400 20415 20422 20427 20425 20437 20443 20452 20455 20473 20492 20494 20508 20490 20456 20416 20396 20371 20347 20328 20331 20318 20302 20296 20286 20280 20274 20270 20291 20274 20299 20302 20310 20330 20352 20336 20315 20278 20257 20221 20216 20218 20210 20200 20202 20187 20194 20193 20195 20204 20226 20221 20248 20261 20289 20296 20321 20316 20296 20255 20240 20207 20205 20205 20209 20201 20194 20201 20206 20224 20219 20240 20258 20268 20274 20303 20316 20334 20346 20360 20309 20293 20272 20237 20246 20234 20226 20240 20226 20219 20228 20229 20253 20249 20251 20267 20280 20287 20306 20318 20324 20351 20323 20283 20255 20238 20205 20209 20197 20192 20188 20179 20189 20164 20183 20180 20189 20198 20199 20221 20232 20244 20263 20271 20258 20224 20188 20176 20168 20157 20158 20155 20164 20164 20170 20172 20190 20201 20210 20222 20228 20259 20273 20283 20308 20323 20309 20274 20261 20250 20235 20222 20233 20242 20240 20251 20250 20254 20266 20285 20294 20303 20320 20338 20353 20369 20383 20404 20380 20354 20318 20305 20302 20285 20290 20295 20299 20301 20303 20298 20322 20310 20327 20339 20349 20370 20381 20393 20397 20421 20415 20397 20359 20342 20328 20321 20298 20308 20306 20300 20281 20285 20297 20298 20303 20310 20309 20323 20336 20342 20373 20383 20410 20388 20353 20336 20322 20306 20298 20302 20299 20307 20293 20283 20308 20327 20325 20330 20336 20358 20371 20389 20414 20418 20440 20457 20430 20408 20375 20354 20353 20341 20330 20331 20329 20315 20328 20325 20322 20334 20323 20339 20351 20347 20367 20378 20387 20401 20418 20407 20375 20349 20321 20313 20309 20284 20287 20290 20268 20272 20264 20280 20262 20281 20282 20284 20285 20299 20309 20311 20335 20336 20324 20298 20281 20255 20235 20220 20221 20215 20221 20215 20205 20209 20209 20211 20229 20218 20237 20241 20246 20262 20275 20281 20278 20254 20229 20199 20193 20184 20172 20172 20183 20180 20184 20190 20186 20196 20210 20208 20223 20241 20250 20267 20278 20287 20301 20287 20261 20231 20220 20213 20206 20207 20208 20190 20203 20200 20203 20200 20214 20204 20217 20238 20247 20243 20270 20259 20273 20285 20280 20263 20219 20192 20182 20177 20151 20152 20134 20112 20082 20076 20041 20055 20040 20038 20053 20070 20086 20118 20140 20165 20186 20166 20185 20179 20165 20182 20201 20190 20180 20153 20138 20143 20142 20150 20147 20137 20142 20150 20174 20214 20293 20406 20460 20447 20450 20458 20487 20534 20537 20536 20537 20536 20519 20512 20548 20570 20579 20616 20631 20641 20650 20596 20536 20500 20480 20431 20400 20360 20334 20315 20292 20325 20372 20456 20464 20456 20446 20465 20474 20469 20449 20426 20420 20414 20383 20375 20399 20432 20477 20519 20563 20614 20657 20704 20711 20696 20655 20608 20580 20544 20536 20494 20474 20492 20520 20565 20624 20651 20696 20724 20737 20738 20724 20707 20705 20719 20770 20837 20899 20930 20972 21023 21032 21046 21053 21057 21063 21084 21104 21090 21085 21101 21129 21166 21204 21235 21273 21287 21312 21338 21351 21384 21411 21459 21458 21418 21396 21373 21370 21381 21385 21397 21397 21411 21428 21449 21467 21481 21492 21551 21614 21621 21606 21618 21618 21633 21628 21649 21655 21669 21677 21682 21693 21677 21691 21706 21695 21672 21649 21637 21622 21629 21618 21629 21621 21626 21647 21658 21680 21684 21691 21710 21708 21702 21693 21674 21657 21663 21665 21683 21700 21691 21722 21720 21736 21748 21759 21780 21795 21808 21778 21772 21770 21753 21777 21772 21796 21812 21821 21847 21869 21904 21922 21922 21943 21958 21951 21939 21942 21944 22251 22234 22233 22250 22256 22255 22278 22289 22298 22303 22317 22322 22346 22354 22338 22315 22269 22268 22238 22248 22244 22245 22254 22266 22267 22268 22274 22274 22270 22300 22301 22286 22236 22191 22174 22151 22130 22118 22102 22083 22077 22079 22059 22055 22067 22056 22062 22063 22024 21974 21929 21886 21869 21848 21845 21835 21829 21813 21809 21811 21798 21805 21793 21803 21810 21792 21741 21696 21633 21615 21596 21584 21581 21568 21570 21564 21567 21543 21551 21583 21573 21580 21612 21592 21557 21508 21472 21440 21438 21429 21429 21438 21440 21438 21439 21451 21444 21460 21460 21464 21474 21488 21452 21417 21383 21359 21356 21350 21337 21333 21321 21304 21309 21299 21301 21313 21331 21334 21342 21349 21359 21319 21281 21242 21205 21180 21162 21154 21144 21145 21149 21155 21147 21168 21168 21188 21189 21209 21224 21234 21254 21253 21193 21163 21127 21090 21085 21075 21088 21086 21077 21087 21083 21092 21093 21102 21106 21126 21143 21158 21163 21182 21184 21145 21113 21078 21055 21044 21037 21043 21033 21040 21048 21045 21049 21047 21056 21059 21081 21093 21097 21110 21106 21096 21048 20995 20976 20956 20944 20952 20934 20919 20922 20916 20914 20921 20929 20936 20952 20954 20976 20996 20996 21018 20993 20954 20923 20886 20869 20850 20842 20836 20825 20819 20812 20804 20819 20805 20810 20815 20826 20827 20841 20845 20866 20872 20847 20788 20751 20714 20702 20686 20689 20683 20695 20685 20691 20693 20717 20727 20743 20753 20774 20791 20803 20837 20863 20867 20841 20801 20771 20754 20727 20727 20738 20731 20732 20738 20737 20755 20766 20790 20816 20851 20869 20911 20930 20964 20938 20900 20876 20868 20864 20859 20880 20878 20898 20902 20910 20933 20960 20982 21007 21039 21085 21131 21173 21211 21236 21226 21218 21200 21205 21210 21226 21212 21221 21194 21180 21179 21176 21173 21182 21198 21216 21240 21257 21269 21281 21297 21240 21208 21163 21105 21074 21041 21038 21064 21085 21080 21070 21048 21034 21016 20996 20982 20957 20950 20925 20878 20820 20748 20665 20606 20554 20512 20471 20453 20425 20385 20366 20353 20335 20351 20348 20341 20337 20325 20243 20157 20066 19987 19909 19870 19834 19804 19780 19778 19771 19755 19759 19754 19769 19761 19769 19768 19718 19636 19559 19489 19449 19397 19356 19338 19310 19282 19267 19242 19225 19225 19221 19219 19217 19219 19217 19180 19120 19040 18979 18933 18892 18877 18856 18849 18840 18830 18824 18831 18846 18850 18873 18885 18891 18923 18949 18958 18986 18940 18892 18849 18804 18778 18775 18769 18768 18767 18762 18776 18779 18790 18797 18822 18838 18864 18891 18908 18920 18949 18943 18909 18874 18848 18839 18831 18836 18855 18866 18873 18883 18898 18906 18927 18952 18973 18996 19006 19024 19045 19072 19099 19115 19099 19080 19070 19075 19071 19074 19075 19082 19087 19104 19133 19147 19161 19182 19208 19232 19251 19282 19313 19317 19349 19372 19393 19407 19411 19399 19387 19397 19390 19422 19434 19452 19452 19454 19479 19492 19500 19514 19538 19551 19578 19588 19603 19625 19644 19666 19667 19657 19652 19648 19660 19653 19670 19676 19687 19702 19717 19723 19727 19748 19758 19769 19795 19791 19809 19832 19842 19874 19878 19872 19860 19858 19861 19855 19878 19871 19896 19886 19900 19892 19906 19921 19940 19947 19961 19969 19974 19983 20002 20015 20046 20020 20001 19987 19982 19966 19970 19966 19968 19978 19975 19979 19981 19983 20001 20002 20013 20027 20032 20046 20074 20075 20070 20043 20004 19979 19969 19971 19966 19965 19960 19951 19949 19949 19961 19951 19975 19971 19976 19989 20000 20011 20025 19991 19959 19925 19901 19895 19891 19885 19895 19882 19881 19882 19891 19888 19889 19898 19918 19925 19933 19948 19941 19907 19879 19841 19812 19804 19809 19801 19803 19805 19802 19794 19798 19809 19815 19829 19845 19847 19862 19870 19890 19876 19829 19797 19772 19760 19754 19738 19737 19732 19744 19730 19744 19747 19750 19770 19771 19790 19801 19806 19828 19836 19855 19827 19798 19775 19748 19734 19725 19712 19712 19721 19712 19711 19715 19718 19737 19738 19742 19758 19776 19786 19808 19814 19824 19839 19844 19799 19778 19762 19750 19738 19735 19750 19743 19733 19746 19746 19747 19750 19759 19773 19792 19803 19813 19844 19847 19856 19865 19844 19811 19789 19777 19777 19781 19773 19770 19787 19787 19783 19784 19786 19808 19816 19830 19836 19856 19858 19878 19892 19881 19867 19828 19803 19792 19778 19772 19758 19756 19744 19749 19748 19751 19749 19777 19782 19783 19791 19824 19820 19825 19843 19823 19798 19782 19782 19763 19765 19761 19754 19768 19767 19766 19778 19773 19773 19785 19807 19800 19814 19827 19838 19863 19856 19860 19826 19809 19803 19789 19804 19799 19809 19821 19816 19821 19837 19837 19846 19859 19883 19893 19910 19918 19911 19899 19881 19864 19854 19855 19850 19845 19867 19854 19869 19872 19873 19883 19890 19910 19914 19917 19936 19938 19928 19899 19874 19851 19848 19838 19849 19856 19858 19864 19870 19854 19864 19878 19888 19901 19926 19924 19942 19950 19945 19917 19900 19892 19868 19855 19855 19837 19853 19845 19854 19854 19860 19864 19876 19889 19908 19928 19923 19914 19881 19856 19848 19837 19823 19824 19833 19825 19830 19833 19860 19866 19883 19884 19897 19920 19920 19923 19901 19857 19843 19840 19827 19844 19846 19852 19860 19857 19861 19879 19892 19895 19912 19924 19936 19952 19925 19893 19871 19821 19794 19752 19730 19718 19694 19695 19693 19685 19693 19718 19702 19708 19719 19736 19742 19715 19691 19675 19675 19681 19692 19683 19703 19706 19710 19731 19752 19752 19789 19789 19806 19837 19853 19858 19828 19821 19797 19813 19825 19835 19850 19862 19869 19881 19913 19925 19929 19955 19969 19993 20011 20021 20004 19979 19969 19950 19956 19960 19971 19964 19976 19992 20007 20030 20044 20075 20097 20109 20133 20151 20141 20132 20094 20079 20075 20070 20076 20091 20086 20086 20089 20094 20098 20102 20116 20133 20137 20148 20164 20146 20118 20100 20076 20059 20062 20056 20061 20072 20072 20081 20080 20095 20110 20124 20133 20139 20157 20174 20186 20172 20152 20134 20113 20098 20091 20108 20105 20069 20057 20045 20044 20051 20066 20087 20119 20147 20166 20184 20197 20196 20175 20149 20139 20141 20155 20163 20179 20171 20177 20193 20199 20216 20228 20255 20242 20259 20288 20264 20250 20225 20201 20204 20202 20196 20206 20202 20210 20222 20220 20229 20249 20257 20277 20298 20298 20333 20325 20294 20258 20239 20224 20212 20210 20210 20229 20208 20235 20226 20235 20243 20266 20254 20267 20300 20297 20325 20302 20283 20242 20228 20212 20216 20205 20201 20203 20220 20211 20217 20226 20237 20260 20263 20274 20295 20310 20313 20331 20297 20263 20231 20230 20225 20219 20227 20227 20236 20237 20234 20246 20255 20261 20270 20273 20294 20294 20307 20321 20290 20244 20232 20204 20199 20192 20187 20196 20189 20186 20198 20192 20208 20216 20224 20237 20236 20271 20272 20288 20275 20247 20225 20192 20193 20172 20175 20177 20176 20171 20173 20177 20164 20162 20186 20183 20185 20202 20218 20235 20251 20246 20219 20184 20180 20165 20162 20147 20146 20149 20146 20156 20157 20176 20183 20193 20206 20214 20231 20237 20246 20218 20195 20172 20146 20141 20149 20139 20145 20150 20147 20145 20146 20160 20175 20179 20188 20215 20213 20235 20222 20204 20169 20148 20143 20121 20127 20131 20121 20132 20121 20132 20138 20149 20156 20168 20178 20210 20208 20226 20212 20195 20158 20141 20131 20114 20103 20102 20108 20116 20118 20112 20125 20201 20164 20148 20126 20120 20110 20106 20109 20107 20094 20100 20101 20120 20122 20137 20152 20145 20162 20171 20192 20200 20175 20149 20121 20102 20096 20098 20092 20100 20091 20095 20094 20098 20110 20121 20130 20143 20154 20164 20182 20195 20193 20152 20122 20102 20094 20098 20076 20087 20086 20091 20090 20098 20110 20114 20122 20129 20139 20156 20184 20194 20205 20192 20149 20136 20113 20096 20104 20106 20097 20091 20107 20109 20109 20116 20140 20146 20150 20180 20187 20210 20224 20238 20208 20192 20171 20155 20136 20130 20134 20143 20152 20144 20150 20158 20159 20178 20188 20198 20219 20221 20248 20248 20236 20198 20189 20174 20154 20159 20168 20174 20156 20165 20179 20187 20178 20197 20206 20221 20239 20254 20258 20275 20268 20251 20216 20189 20189 20180 20167 20175 20188 20184 20192 20197 20199 20211 20220 20232 20257 20267 20271 20305 20292 20285 20257 20229 20217 20205 20209 20211 20211 20210 20210 20218 20219 20239 20246 20252 20281 20277 20300 20304 20329 20337 20309 20285 20271 20263 20241 20242 20240 20247 20235 20243 20249 20249 20259 20259 20275 20288 20305 20317 20317 20335 20336 20304 20280 20252 20254 20227 20241 20231 20239 20237 20229 20234 20235 20256 20266 20275 20281 20313 20305 20332 20318 20294 20268 20244 20234 20214 20212 20213 20204 20215 20200 20213 20232 20245 20239 20245 20263 20277 20286 20308 20322 20317 20299 20264 20243 20226 20228 20220 20210 20220 20211 20213 20216 20240 20239 20253 20262 20276 20295 20302 20316 20341 20330 20308 20270 20245 20244 20235 20243 20252 20251 20238 20240 20242 20248 20259 20269 20295 20298 20307 20324 20336 20338 20300 20275 20244 20261 20229 20239 20232 20233 20241 20235 20245 20248 20263 20282 20292 20294 20311 20312 20336 20334 20307 20282 20276 20254 20246 20230 20241 20238 20236 20231 20247 20247 20250 20263 20273 20278 20305 20313 20329 20335 20345 20309 20283 20260 20253 20236 20237 20248 20250 20242 20251 20250 20247 20267 20273 20292 20295 20301 20329 20339 20358 20363 20350 20303 20291 20283 20267 20255 20279 20273 20271 20267 20285 20290 20294 20307 20321 20330 20340 20348 20364 20368 20380 20352 20318 20301 20275 20281 20273 20277 20283 20278 20288 20277 20296 20312 20314 20323 20336 20349 20366 20388 20381 20384 20359 20319 20300 20300 20287 20289 20287 20274 20282 20284 20287 20298 20302 20315 20321 20339 20355 20361 20378 20392 20384 20347 20339 20314 20300 20278 20279 20276 20289 20285 20290 20291 20301 20304 20316 20315 20337 20353 20359 20369 20403 20403 20394 20378 20340 20328 20315 20310 20309 20323 20314 20317 20327 20335 20339 20344 20353 20361 20365 20384 20394 20403 20413 20374 20343 20314 20288 20293 20295 20289 20285 20299 20289 20300 20302 20303 20306 20313 20320 20334 20336 20344 20346 20325 20272 20242 20211 20184 20162 20162 20132 20127 20118 20111 20113 20121 20110 20147 20159 20175 20215 20225 20243 20256 20228 20194 20188 20156 20157 20151 20144 20137 20126 20116 20111 20104 20084 20080 20069 20066 20078 20069 20078 20047 20046 20007 19991 19967 19957 19948 19939 19936 19932 19934 19912 19918 19914 19917 19912 19909 19923 19909 19900 19867 19832 19804 19792 19801 19797 19784 19790 19780 19789 19788 19801 19809 19818 19832 19849 19872 19845 19822 19804 19772 19758 19743 19731 19737 19731 19751 19740 19738 19755 19764 19770 19781 19807 19806 19818 19790 19750 19727 19695 19694 19683 19674 19681 19673 19675 19685 19685 19691 19698 19713 19727 19717 19732 19742 19752 19711 19690 19659 19649 19631 19621 19615 19625 19606 19620 19611 19615 19627 19631 19638 19660 19660 19677 19681 19710 19690 19653 19645 19631 19625 19620 19619 19626 19638 19651 19664 19675 19684 19699 19717 19741 19747 19768 19796 19820 19824 19804 19795 19778 19776 19775 19783 19800 19797 19808 19814 19836 19859 19860 19871 19888 19899 19921 19936 19949 19969 19975 19973 19961 19943 19935 19935 19943 19936 19959 19968 19963 19969 19980 19996 20014 20019 20038 20064 20069 20073 20084 20104 20099 20086 20079 20047 20051 20046 20044 20072 20069 20073 20078 20069 20075 20072 20107 20104 20116 20122 20112 20123 20121 20103 20087 20058 20068 20064 20060 20073 20081 20086 20097 20110 20117 20134 20142 20152 20163 20174 20201 20213 20240 20227 20214 20205 20184 20183 20191 20192 20207 20215 20216 20208 20226 20234 20247 20257 20266 20293 20304 20314 20327 20345 20319 20304 20301 20284 20269 20264 20260 20273 20268 20269 20274 20282 20274 20291 20294 20300 20305 20319 20332 20336 20354 20319 20293 20281 20243 20239 20245 20240 20232 20222 20237 20217 20209 20221 20230 20234 20253 20258 20276 20268 20284 20273 20255 20229 20216 20202 20196 20205 20222 20222 20215 20222 20235 20237 20261 20263 20272 20295 20303 20318 20332 20341 20319 20296 20284 20259 20253 20251 20238 20248 20246 20258 20245 20250 20260 20260 20274 20288 20301 20308 20311 20333 20339 20333 20309 20286 20250 20248 20240 20236 20241 20234 20236 20234 20234 20246 20236 20251 20257 20252 20268 20281 20291 20303 20293 20272 20245 20212 20194 20186 20182 20179 20176 20171 20176 20161 20164 20171 20183 20190 20196 20193 20209 20220 20238 20245 20233 20211 20188 20182 20167 20154 20160 20181 20176 20177 20178 20180 20198 20206 20217 20236 20254 20258 20280 20290 20301 20310 20312 20305 20268 20263 20242 20246 20242 20246 20260 20243 20247 20258 20266 20272 20273 20277 20278 20306 20309 20317 20317 20329 20331 20322 20290 20249 20245 20226 20222 20220 20216 20211 20204 20206 20202 20205 20200 20208 20205 20214 20200 20207 20202 20199 20200 20177 20125 20088 20035 20008 19991 19971 19972 19944 19938 19943 19943 19941 19943 19953 19975 19988 20009 20021 20045 20064 20044 20026 20013 19997 19983 20006 20043 20057 20092 20098 20119 20150 20177 20200 20218 20233 20260 20284 20285 20267 20248 20246 20229 20233 20233 20224 20235 20254 20259 20258 20272 20288 20311 20332 20338 20368 20383 20385 20376 20367 20364 20341 20336 20345 20345 20341 20334 20351 20346 20356 20352 20362 20364 20370 20375 20376 20390 20372 20344 20319 20304 20274 20266 20244 20243 20243 20223 20234 20237 20219 20232 20226 20227 20232 20244 20238 20241 20214 20183 20144 20130 20117 20112 20107 20099 20106 20100 20101 20098 20116 20123 20131 20143 20146 20159 20180 20179 20148 20116 20096 20076 20082 20075 20064 20070 20068 20071 20069 20068 20072 20079 20109 20103 20107 20118 20134 20145 20139 20104 20096 20064 20043 20048 20050 20043 20056 20041 20046 20047 20044 20061 20065 20069 20083 20089 20102 20101 20112 20118 20131 20104 20068 20045 20037 20016 20006 20007 19996 20000 19987 19977 19990 19985 19982 19992 19991 19996 20014 20004 20011 20026 20028 19999 19980 19965 19962 19967 19960 19969 19972 19991 20000 20005 20012 20028 20041 20051 20062 20080 20090 20116 20132 20141 20128 20115 20101 20086 20100 20088 20092 20113 20113 20125 20111 20133 20147 20148 20162 20167 20185 20204 20214 20227 20247 20237 20223 20204 20205 20184 20187 20179 20190 20199 20175 20191 20191 20192 20197 20195 20205 20212 20210 20222 20230 20246 20244 20229 20191 20176 20176 20139 20158 20133 20134 20133 20125 20128 20135 20129 20136 20134 20142 20148 20168 20164 20181 20190 20166 20147 20144 20129 20138 20140 20133 20148 20152 20147 20157 20174 20196 20182 20208 20222 20228 20259 20263 20280 20277 20247 20224 20218 20207 20191 20195 20200 20206 20207 20215 20205 20208 20221 20243 20236 20208 20185 20167 20149 20136 20135 20128 20118 20112 20109 20108 20107 20120 20117 20121 20135 20135 20152 20162 20167 20161 20141 20112 20108 20103 20104 20110 20105 20112 20118 20122 20128 20139 20144 20165 20172 20198 20206 20213 20234 20250 20260 20246 20234 20207 20203 20189 20182 20196 20191 20186 20194 20196 20197 20212 20226 20226 20224 20253 20254 20270 20294 20309 20324 20333 20324 20312 20303 20289 20278 20266 20258 20256 20261 20269 20248 20259 20253 20252 20260 20266 20264 20271 20276 20296 20295 20304 20317 20305 20282 20253 20238 20234 20227 20225 20227 20218 20213 20218 20228 20232 20233 20244 20254 20258 20281 20286 20315 20314 20324 20307 20280 20275 20268 20258 20241 20263 20262 20257 20252 20251 20266 20270 20276 20290 20309 20310 20313 20339 20368 20366 20379 20358 20338 20306 20298 20287 20283 20271 20283 20285 20285 20274 20275 20292 20284 20296 20317 20325 20334 20331 20344 20365 20355 20320 20286 20278 20275 20244 20232 20236 20218 20218 20208 20209 20196 20205 20206 20202 20212 20208 20210 20209 20219 20223 20207 20171 20142 20128 20105 20100 20078 20082 20071 20064 20053 20056 20047 20060 20078 20077 20077 20096 20118 20121 20135 20122 20092 20066 20051 20049 20037 20042 20046 20039 20034 20054 20058 20060 20074 20080 20101 20105 20128 20136 20140 20170 20166 20160 20125 20101 20085 20072 20063 20076 20086 20080 20074 20077 20067 20081 20096 20096 20113 20115 20137 20138 20152 20168 20172 20185 20187 20148 20126 20112 20098 20077 20077 20064 20077 20074 20075 20076 20062 20055 20068 20074 20084 20094 20085 20094 20123 20114 20112 20115 20098 20059 20038 20018 20015 20008 20004 19999 19994 20002 19981 19990 19982 19991 19994 20008 20007 20029 20058 20064 20070 20052 20034 20019 20020 20007 20010 20013 20004 20008 20029 20025 20031 20037 20049 20064 20085 20083 20100 20113 20135 20142 20164 20135 20112 20099 20081 20076 20072 20070 20073 20070 20075 20066 20078 20086 20083 20096 20098 20119 20138 20148 20149 20192 20182 20175 20148 20115 20111 20100 20083 20080 20089 20087 20071 20089 20076 20074 20082 20092 20093 20092 20110 20105 20113 20124 20122 20120 20086 20061 20032 20008 19998 19981 19974 19973 19957 19945 19949 19949 19940 19951 19942 19950 19959 19962 19962 19981 19975 19947 19910 19898 19873 19868 19861 19869 19882 19869 19876 19878 19882 19888 19902 19924 19929 19941 19954 19965 19995 19995 19966 19941 19919 19902 19897 19892 19886 19894 19889 19891 19893 19895 19910 19913 19940 19936 19948 19965 19982 19986 20017 20024 19988 19955 19942 19927 19920 19905 19908 19892 19911 19909 19917 19912 19938 19945 19959 19970 19988 20013 20023 20044 20070 20079 20062 20054 20013 19991 19977 19966 19960 19965 19960 19965 19959 19946 19947 19958 19950 19956 19968 19975 19965 19978 19987 19996 19972 19949 19909 19875 19870 19850 19856 19851 19841 19840 19837 19842 19839 19845 19864 19871 19885 19903 19914 19927 19946 19960 19933 19913 19890 19887 19868 19862 19873 19880 19881 19886 19897 19905 19908 19924 19937 19950 19963 19994 19998 20032 20025 20046 20034 20003 19977 19971 19960 19965 19969 19960 19970 19957 19966 19963 19991 19985 19989 19993 20005 20014 20016 20031 20042 20059 20055 20031 19992 19966 19949 19942 19945 19925 19941 19921 19919 19915 19917 19926 19921 19948 19937 19949 19941 19965 19976 19987 19978 19960 19922 19914 19913 19911 19906 19917 19917 19915 19920 19943 19947 19951 19969 19978 19991 20008 20033 20039 20063 20086 20050 20032 20021 20006 19998 19996 20001 19993 20006 20016 20018 20017 20025 20045 20050 20069 20078 20095 20113 20124 20135 20138 20136 20124 20075 20075 20061 20062 20050 20070 20067 20072 20065 20082 20079 20080 20092 20089 20108 20114 20107 20117 20136 20134 20124 20096 20077 20037 20045 20011 20009 19997 20009 19987 20001 19987 19983 19975 19986 19994 20002 20000 20015 20027 20037 20041 20005 19971 19954 19951 19941 19949 19940 19947 19960 19942 19952 19959 19994 20007 20028 20047 20069 20096 20123 20139 20149 20140 20137 20135 20146 20144 20155 20155 20179 20179 20184 20197 20208 20210 20216 20232 20238 20258 20270 20284 20290 20300 20289 20253 20231 20222 20212 20204 20195 20192 20185 20175 20178 20177 20177 20184 20171 20178 20183 20191 20190 20207 20208 20190 20154 20136 20100 20080 20070 20064 20066 20052 20044 20029 20023 20025 20024 20023 20028 20032 20036 20040 20049 20048 20035 19994 19974 19956 19945 19935 19931 19934 19926 19931 19928 19935 19944 19948 19955 19976 19970 19995 20003 20015 20006 19962 19954 19926 19920 19901 19903 19902 19895 19902 19903 19898 19915 19920 19923 19932 19946 19962 19979 19995 20000 20004 19982 19970 19940 19939 19929 19917 19924 19920 19921 19936 19926 19944 19951 19955 19977 19979 19983 19985 20003 20020 20034 20039 20034 20007 19987 19979 19968 19970 19961 19951 19950 19949 19965 19944 19945 19956 19966 19975 19977 19988 19994 20002 19999 20019 20031 20032 20003 19974 19968 19970 19946 19947 19949 19944 19963 19945 19962 19962 19969 19980 19978 20005 20025 20037 20064 20080 20105 20110 20103 20097 20101 20089 20107 20116 20104 20121 20125 20129 20128 20144 20134 20168 20171 20183 20195 20198 20218 20229 20243 20257 20232 20217 20202 20192 20180 20171 20173 20177 20183 20174 20172 20182 20184 20201 20198 20205 20225 20227 20240 20258 20259 20270 20291 20273 20259 20242 20234 20211 20213 20194 20200 20186 20188 20190 20189 20183 20186 20184 20183 20193 20194 20204 20213 20210 20220 20219 20188 20158 20145 20120 20125 20102 20105 20091 20085 20091 20088 20086 20096 20095 20096 20105 20102 20114 20133 20143 20135 20130 20096 20081 20079 20073 20076 20080 20073 20082 20086 20092 20091 20116 20117 20120 20137 20143 20154 20169 20185 20181 20163 20140 20113 20116 20096 20082 20086 20083 20081 20082 20087 20091 20083 20095 20104 20107 20113 20127 20146 20157 20155 20159 20131 20106 20085 20072 20065 20057 20050 20051 20053 20054 20041 20058 20061 20059 20071 20079 20089 20100 20117 20115 20140 20146 20129 20098 20082 20050 20046 20041 20028 20029 20019 20020 20007 20008 20026 20005 20016 20020 20016 20033 20039 20062 20060 20072 20074 20059 20041 20018 19990 19972 19964 19963 19954 19960 19961 19959 19954 19959 19967 19979 19986 20002 20010 20026 20036 20053 20066 20069 20066 20038 20014 20006 19991 19996 19996 20003 20012 20008 20012 20013 20023 20039 20033 20062 20062 20084 20091 20108 20106 20146 20138 20106 20098 20066 20052 20052 20024 20049 20037 20035 20037 20036 20051 20061 20062 20058 20061 20090 20099 20103 20108 20135 20142 20138 20127 20091 20072 20042 20020 20008 20000 20009 20001 19990 19993 19990 19983 19991 19994 20000 19997 20009 20015 20014 20031 20033 20008 19985 19952 19929 19909 19891 19900 19903 19893 19888 19898 19884 19890 19899 19899 19915 19925 19942 19951 19965 19970 19973 19939 19908 19900 19888 19873 19875 19890 19870 19878 19877 19878 19900 19900 19920 19928 19933 19940 19957 19976 19985 19974 19946 19925 19900 19886 19886 19878 19878 19865 19880 19870 19871 19872 19877 19895 19898 19907 19913 19926 19931 19934 19952 19912 19881 19860 19826 19811 19787 19802 19788 19780 19765 19760 19769 19764 19765 19765 19772 19772 19799 19790 19801 19809 19793 19762 19745 19708 19700 19680 19667 19687 19675 19678 19686 19688 19695 19690 19704 19721 19736 19759 19762 19777 19775 19771 19730 19722 19710 19702 19700 19883 19894 19881 19856 19832 19812 19799 19786 19791 19784 19779 19787 19771 19776 19767 19774 19783 19783 19797 19796 19806 19815 19824 19815 19790 19760 19742 19734 19734 19727 19747 19744 19744 19751 19745 19759 19770 19785 19800 19815 19825 19842 19872 19880 19844 19842 19819 19802 19798 19800 19801 19802 19815 19800 19817 19831 19836 19845 19856 19873 19891 19900 19905 19929 19938 19933 19909 19884 19874 19858 19843 19841 19840 19829 19833 19834 19846 19863 19849 19859 19861 19872 19882 19907 19910 19919 19932 19945 19932 19898 19890 19854 19853 19847 19836 19839 19822 19839 19845 19847 19839 19832 19843 19863 19860 19874 19895 19897 19905 19911 19915 19892 19861 19840 19839 19821 19814 19800 19808 19819 19815 19819 19817 19828 19837 19847 19866 19874 19897 19903 19929 19924 19911 19885 19881 19886 19866 19872 19881 19880 19886 19897 19899 19907 19920 19932 19935 19957 19973 19978 19996 20029 20023 20021 20001 19973 19968 19956 19954 19945 19945 19944 19960 19959 19968 19974 19978 19988 20006 20017 20024 20039 20044 20063 20082 20068 20056 20056 20056 20079 20145 20192 20236 20320 20446 20546 20623 20644 20664 20684 20702 20723 20721 20733 20741 20715 20683 20646 20629 20627 20617 20605 20592 20584 20580 20560 20561 20553 20548 20543 20542 20550 20538 20537 20548 20555 20528 20484 20441 20426 20412 20380 20381 20360 20355 20339 20337 20331 20322 20316 20321 20320 20313 20320 20323 20320 20307 20264 20222 20178 20150 20127 20104 20090 20081 20068 20053 20038 20031 20019 20027 20024 20028 20035 20037 20033 20042 20030 19990 19936 19900 19868 19839 19829 19807 19800 19791 19777 19770 19762 19751 19741 19749 19765 19754 19758 19755 19766 19773 19734 19682 19652 19624 19605 19593 19583 19581 19571 19562 19547 19549 19548 19554 19567 19559 19573 19574 19593 19608 19619 19586 19565 19542 19531 19515 19525 19520 19532 19531 19533 19551 19558 19562 19575 19579 19613 19608 19628 19649 19670 19679 19666 19648 19624 19618 19604 19599 19609 19618 19614 19615 19631 19632 19638 19646 19659 19675 19697 19719 19711 19725 19759 19768 19748 19737 19725 19714 19708 19698 19705 19696 19705 19705 19709 19702 19718 19725 19741 19744 19748 19758 19783 19777 19792 19815 19808 19793 19771 19748 19741 19726 19725 19727 19731 19726 19725 19731 19738 19755 19751 19760 19765 19782 19792 19811 19822 19823 19814 19796 19789 19779 19772 19783 19805 19810 19807 19809 19816 19841 19831 19847 19885 19892 19903 19910 19934 19956 19944 19930 19915 19888 19883 19893 19884 19894 19888 19908 19913 19908 19920 19938 19947 19963 19967 19989 20000 20013 20025 20012 19990 19979 19958 19952 19943 19951 19945 19941 19949 19951 19964 19952 19970 19971 19975 19981 19987 20001 20020 20027 20028 19985 19970 19946 19948 19933 19925 19924 19928 19921 19922 19920 19915 19923 19935 19935 19943 19940 19961 19974 19974 19949 19928 19911 19902 19899 19905 19904 19907 19923 19908 19914 19933 19941 19957 19955 19968 19992 20006 20008 20016 20003 19987 19959 19953 19948 19931 19937 19940 19926 19935 19936 19948 19955 19967 19975 20000 20001 20007 20027 20040 20025 20006 19975 19957 19944 19954 19957 19943 19951 19958 19970 19981 19986 20000 19994 20016 20030 20029 20047 20048 20068 20068 20035 20014 19981 19983 19965 19968 19962 19960 19958 19951 19937 19949 19950 19943 19944 19952 19971 19957 19976 19981 19943 19918 19887 19877 19868 19861 19857 19866 19857 19852 19871 19865 19884 19883 19896 19911 19908 19907 19926 19932 19914 19887 19872 19857 19855 19844 19852 19844 19849 19856 19852 19856 19871 19865 19889 19897 19918 19916 19927 19965 19940 19904 19892 19873 19856 19858 19843 19848 19854 19859 19853 19850 19864 19868 19876 19883 19890 19900 19910 19918 19905 19856 19837 19807 19788 19758 19752 19755 19737 19720 19709 19710 19707 19707 19728 19728 19745 19745 19761 19759 19739 19715 19699 19692 19692 19695 19695 19704 19716 19710 19710 19714 19722 19732 19725 19739 19750 19753 19719 19704 19689 19678 19664 19653 19663 19653 19650 19645 19649 19661 19664 19680 19675 19690 19688 19664 19642 19607 19593 19563 19536 19524 19513 19490 19488 19471 19455 19456 19464 19462 19482 19473 19439 19430 19421 19411 19423 19429 19443 19455 19473 19486 19516 19546 19608 19703 19805 19907 19953 19958 19984 20002 20002 20040 20060 20131 20207 20280 20276 20264 20268 20280 20367 20470 20533 20593 20616 20625 20637 20629 20636 20643 20641 20602 20507 20394 20347 20318 20339 20365 20397 20437 20482 20544 20599 20646 20703 20727 20763 20806 20859 20912 20958 20970 20995 21054 21093 21125 21144 21170 21146 21151 21148 21147 21167 21144 21179 21195 21212 21235 21275 21264 21245 21254 21242 21224 21207 21215 21240 21253 21279 21294 21313 21333 21355 21375 21377 21362 21344 21301 21280 21267 21276 21271 21287 21286 21310 21308 21313 21311 21302 21306 21261 21230 21203 21186 21183 21192 21194 21203 21204 21210 21226 21224 21216 21204 21201 21171 21150 21153 21163 21184 21230 21296 21393 21502 21581 21652 21726 21776 21835 21897 21954 21960 21986 22013 22023 22064 22078 22066 22073 22090 22087 22078 22058 22048 22042 22036 22024 22025 22033 22013 22038 22116 22168 22196 22236 22256 22276 22303 22340 22363 22346 22354 22372 22377 22397 22380 22367 22376 22407 22464 22513 22553 22595 22619 22666 22676 22695 22707 22714 22742 22743 22750 22752 22763 22772 22765 22771 22755 22706 22703 22700 22694 22694 22704 22701 22700 22708 22713 22707 22711 22694 22695 22668 22641 22628 22632 22634 22652 22640 22633 22644 22653 22646 22667 22659 22663 22652 22605 22588 22553 22539 22526 22517 22512 22490 22481 22492 22497 22494 22510 22508 22489 22474 22450 22451 22441 22430 22425 22431 22431 22427 22428 22419 22443 22422 22428 22399 22375 22344 22321 22298 22305 22296 22286 22291 22285 22275 22268 22288 22291 22284 22305 22286 22251 22218 22189 22185 22169 22169 22151 22146 22140 22137 22130 22121 22115 22115 22100 22083 22059 22032 22013 21992 21979 21969 21986 21970 21961 21965 21959 21970 21959 21958 21965 21945 21915 21872 21855 21845 21847 21842 21831 21829 21826 21818 21823 21818 21820 21826 21827 21819 21783 21753 21736 21705 21699 21696 21698 21685 21681 21679 21682 21671 21674 21677 21682 21675 21686 21676 21640 21619 21568 21549 21530 21532 21532 21512 21500 21499 21492 21491 21502 21492 21496 21509 21494 21509 21519 21506 21450 21422 21386 21360 21350 21347 21344 21322 21320 21306 21306 21299 21299 21299 21297 21305 21316 21313 21320 21313 21273 21234 21188 21159 21136 21126 21111 21107 21095 21088 21078 21087 21079 21074 21081 21086 21102 21101 21104 21113 21117 21111 21062 21009 20956 20944 20919 20910 20904 20898 20886 20883 20881 20871 20891 20892 20882 20889 20909 20910 20922 20938 20952 20956 20936 20881 20836 20787 20787 20769 20755 20760 20744 20742 20733 20746 20746 20750 20762 20773 20783 20799 20796 20810 20825 20837 20848 20832 20789 20732 20712 20699 20680 20686 20672 20671 20667 20657 20673 20671 20684 20690 20699 20708 20728 20739 20760 20774 20772 20714 20664 20626 20611 20590 20601 20578 20568 20571 20576 20576 20573 20590 20595 20611 20620 20638 20658 20674 20689 20704 20671 20612 20566 20537 20515 20505 20522 20555 20595 20666 20737 20825 20904 20998 21064 20536 20510 20494 20456 20434 20415 20398 20383 20375 20372 20361 20345 20342 20340 20335 20327 20323 20251 20177 20118 20067 20036 20002 19979 19951 19945 19928 19920 19892 19893 19899 19896 19896 19909 19921 19910 19935 19935 19949 19919 19848 19790 19748 19708 19678 19667 19654 19644 19639 19627 19640 19622 19642 19651 19658 19658 19685 19682 19693 19704 19712 19719 19714 19651 19587 19548 19526 19487 19492 19472 19469 19465 19451 19448 19459 19481 19512 19543 19558 19580 19613 19642 19677 19717 19761 19783 19759 19733 19730 19747 19745 19759 19786 19804 19839 19874 19934 19981 20039 20095 20140 20192 20252 20318 20374 20438 20498 20595 20674 20761 20793 20791 20800 20823 20826 20840 20865 20884 20871 20869 20856 20864 20880 20877 20898 20902 20908 20918 20938 20942 20949 20962 20980 20992 20998 20977 20915 20860 20836 20824 20806 20809 20806 20777 20772 20744 20745 20724 20725 20714 20718 20725 20717 20724 20714 20716 20711 20701 20642 20578 20536 20507 20482 20462 20448 20420 20408 20402 20373 20371 20366 20354 20354 20380 20376 20383 20389 20398 20407 20396 20331 20267 20218 20184 20151 20126 20126 20135 20137 20156 20167 20182 20204 20234 20249 20272 20294 20311 20338 20359 20376 20376 20321 20265 20207 20185 20167 20140 20128 20119 20109 20083 20086 20090 20082 20091 20081 20088 20102 20108 20125 20126 20151 20141 20080 20015 19986 19940 19941 19905 19912 19892 19885 19864 19868 19866 19874 19873 19881 19899 19905 19920 19937 19950 19960 19896 19842 19788 19758 19737 19714 19712 19707 19700 19700 19699 19706 19715 19724 19733 19760 19791 19815 19853 19900 19930 19955 19966 19923 19911 19900 19885 19898 19891 19893 19908 19906 19919 19934 19948 19973 19991 20018 20043 20067 20096 20117 20142 20171 20191 20202 20147 20106 20097 20088 20085 20090 20089 20094 20095 20110 20112 20140 20158 20185 20201 20219 20258 20286 20294 20326 20348 20363 20319 20278 20243 20224 20205 20194 20187 20193 20186 20170 20154 20166 20153 20153 20165 20189 20184 20189 20203 20223 20240 20257 20247 20212 20148 20111 20076 20071 20051 20049 20046 20043 20036 20034 20033 20047 20053 20056 20075 20092 20111 20130 20138 20165 20174 20175 20144 20079 20044 20033 20011 20003 20004 19994 19994 19996 19989 20006 20002 20018 20025 20043 20055 20076 20081 20116 20122 20159 20117 20078 20039 20007 19994 19981 19982 19978 19977 19972 19974 19986 19989 19975 19994 19998 20029 20036 20044 20064 20081 20086 20114 20129 20074 20028 19994 19970 19963 19948 19957 19963 19949 19946 19951 19955 19963 19977 19981 19995 20006 20029 20047 20078 20086 20121 20160 20178 20153 20111 20080 20059 20062 20060 20058 20064 20061 20075 20072 20084 20080 20101 20116 20134 20143 20163 20185 20199 20227 20239 20231 20199 20151 20107 20086 20071 20078 20082 20075 20075 20069 20073 20089 20086 20097 20106 20118 20148 20149 20149 20184 20160 20111 20060 20017 20017 20009 19998 20000 19994 20002 19993 19997 20008 20016 20025 20048 20081 20090 20108 20138 20157 20182 20142 20091 20040 20036 20022 20006 20012 20007 20016 20011 20015 20017 20037 20056 20075 20090 20095 20118 20149 20172 20193 20208 20173 20138 20113 20113 20106 20106 20111 20126 20139 20154 20156 20182 20203 20217 20246 20268 20288 20324 20336 20372 20379 20336 20280 20240 20232 20196 20188 20179 20166 20165 20147 20152 20137 20145 20149 20162 20181 20187 20201 20211 20240 20252 20266 20225 20155 20125 20111 20076 20062 20058 20051 20040 20044 20048 20030 20039 20046 20053 20071 20069 20077 20094 20109 20113 20121 20146 20131 20062 20025 20005 19988 19968 19970 19978 19962 19966 19960 19973 19973 19978 20006 20021 20048 20057 20075 20099 20118 20148 20167 20160 20107 20066 20046 20036 20054 20033 20051 20054 20054 20063 20075 20084 20114 20129 20130 20159 20176 20189 20224 20231 20261 20240 20200 20151 20135 20108 20108 20116 20108 20120 20106 20103 20126 20120 20140 20154 20171 20172 20200 20220 20233 20243 20283 20269 20208 20177 20125 20107 20105 20094 20105 20098 20104 20087 20105 20108 20115 20130 20142 20165 20174 20189 20206 20231 20243 20202 20168 20118 20101 20085 20072 20074 20084 20079 20072 20092 20081 20102 20114 20123 20141 20149 20182 20191 20197 20190 20137 20081 20049 20026 20021 20016 20020 20005 20018 20009 20026 20036 20037 20049 20072 20079 20094 20111 20136 20147 20144 20079 20029 19993 19973 19947 19927 19936 19922 19924 19925 19927 19920 19932 19940 19956 19958 19981 19985 20001 20009 20027 20032 19970 19909 19887 19852 19855 19846 19852 19856 19855 19858 19860 19868 19892 19894 19927 19938 19972 19981 20004 20022 20046 20064 20033 20003 19971 19979 19957 19958 19953 19959 19960 19967 19969 19977 19967 19989 20002 20012 20028 20028 20049 20066 20085 20051 20009 19966 19941 19918 19906 19904 19901 19908 19899 19906 19913 19920 19947 19962 19963 19973 19998 20022 20044 20064 20026 19976 19955 19933 19914 19904 19889 19903 19908 19900 19911 19922 19927 19941 19951 19976 19990 20018 20028 20046 20073 20065 20019 19980 19950 19942 19929 19922 19922 19913 19913 19913 19904 19920 19923 19939 19950 19955 19979 19999 19997 20016 19985 19934 19898 19886 19864 19852 19848 19861 19851 19847 19863 19855 19860 19868 19883 19882 19893 19904 19926 19936 19923 19871 19818 19792 19773 19761 19758 19739 19757 19755 19755 19758 19760 19781 19792 19802 19825 19837 19857 19877 19892 19913 19889 19846 19797 19772 19771 19766 19773 19757 19763 19770 19783 19785 19791 19802 19824 19833 19844 19871 19888 19909 19926 19958 19979 19990 19977 19936 19913 19878 19873 19872 19876 19870 19879 19892 19900 19905 19910 19933 19943 19970 19992 19994 20013 20034 20040 20062 20087 20101 20110 20080 20055 20042 20032 20023 20024 20036 20026 20043 20040 20036 20053 20068 20080 20074 20109 20107 20131 20139 20152 20180 20193 20218 20189 20150 20116 20108 20115 20096 20104 20117 20112 20112 20122 20130 20138 20148 20144 20153 20186 20199 20214 20228 20240 20259 20278 20275 20235 20212 20191 20169 20175 20167 20160 20172 20180 20181 20193 20189 20193 20209 20223 20227 20241 20269 20280 20301 20311 20321 20338 20338 20301 20285 20257 20253 20245 20245 20263 20251 20243 20256 20249 20247 20258 20276 20271 20297 20298 20316 20319 20339 20343 20330 20286 20240 20220 20198 20193 20172 20171 20167 20161 20164 20152 20156 20165 20173 20175 20175 20190 20208 20207 20225 20224 20175 20128 20094 20079 20055 20048 20054 20040 20040 20037 20036 20024 20045 20053 20059 20071 20081 20093 20108 20133 20144 20119 20080 20048 20017 20005 19985 19972 19968 19976 19979 19968 19980 19986 19994 20015 20017 20031 20057 20071 20081 20104 20122 20126 20090 20038 20006 19996 19993 19981 19983 19983 19979 19988 19980 19986 19984 20002 20016 20028 20052 20053 20056 20090 20089 20071 20025 19981 19976 19963 19948 19945 19942 19937 19944 19929 19935 19963 19958 19978 19996 20001 20013 20023 20038 20058 20069 20022 19991 19960 19946 19946 19927 19947 19935 19930 19941 19934 19936 19965 19964 19988 19995 20007 20031 20040 20060 20085 20064 20036 20007 19987 19982 19969 19961 19970 19974 19971 19977 19985 19998 20000 20024 20044 20043 20067 20088 20107 20137 20143 20173 20167 20133 20118 20110 20106 20106 20101 20120 20113 20118 20127 20316 20318 20314 20273 20256 20233 20228 20216 20209 20234 20227 20225 20228 20233 20251 20252 20275 20292 20295 20311 20337 20340 20354 20371 20379 20379 20341 20320 20297 20281 20278 20262 20284 20267 20282 20293 20281 20300 20302 20326 20339 20340 20361 20373 20380 20405 20409 20412 20369 20335 20315 20295 20279 20296 20282 20276 20281 20280 20279 20292 20297 20310 20327 20344 20358 20358 20381 20385 20402 20348 20313 20275 20259 20246 20240 20227 20232 20224 20218 20222 20221 20245 20243 20251 20273 20277 20289 20297 20317 20331 20327 20286 20236 20227 20209 20199 20181 20186 20185 20181 20185 20191 20195 20203 20212 20236 20243 20280 20295 20305 20312 20338 20339 20309 20261 20231 20215 20209 20210 20214 20205 20206 20197 20210 20209 20224 20227 20234 20251 20270 20274 20301 20320 20311 20289 20249 20219 20197 20194 20192 20181 20188 20182 20184 20185 20188 20196 20210 20220 20233 20239 20259 20280 20296 20306 20308 20264 20226 20198 20176 20179 20166 20174 20177 20175 20172 20179 20188 20201 20213 20234 20238 20253 20286 20288 20306 20327 20333 20286 20259 20238 20220 20206 20207 20216 20209 20212 20216 20220 20234 20232 20257 20266 20277 20300 20316 20353 20370 20405 20441 20434 20406 20378 20375 20373 20385 20381 20384 20382 20388 20393 20393 20404 20416 20426 20438 20454 20473 20480 20493 20511 20491 20446 20414 20421 20396 20383 20385 20389 20391 20400 20413 20411 20422 20418 20419 20435 20444 20459 20480 20484 20480 20462 20418 20379 20345 20333 20307 20304 20305 20310 20291 20284 20282 20280 20281 20298 20306 20317 20341 20366 20383 20393 20379 20331 20310 20281 20275 20252 20243 20251 20235 20235 20248 20238 20267 20264 20263 20283 20279 20292 20318 20265 20226 20178 20158 20134 20136 20127 20136 20139 20130 20137 20147 20158 20170 20173 20193 20210 20216 20194 20127 20081 20043 20023 19988 19991 19983 19979 19978 19980 19984 19983 19983 19980 19976 19976 19986 19982 19947 19873 19833 19810 19792 19798 19788 19809 19806 19815 19833 19842 19867 19887 19890 19893 19913 19931 19924 19874 19830 19819 19805 19810 19815 19833 19858 19867 19876 19896 19906 19933 19933 19967 19970 19999 19987 19950 19917 19895 19888 19883 19876 19878 19888 19887 19901 19903 19915 19943 19942 19963 19973 20001 19962 19935 19913 19884 19884 19899 19912 19915 19945 19941 19955 19967 19999 20003 20027 20048 20082 20096 20064 20050 20032 20017 20020 20025 20026 20055 20063 20077 20104 20118 20156 20156 20186 20202 20224 20245 20232 20214 20202 20184 20191 20185 20205 20225 20230 20255 20275 20289 20302 20334 20351 20361 20383 20412 20415 20388 20357 20356 20344 20356 20369 20384 20394 20389 20402 20410 20429 20447 20462 20459 20488 20505 20501 20461 20428 20414 20408 20413 20419 20431 20428 20444 20467 20470 20488 20499 20506 20531 20544 20541 20512 20457 20416 20385 20361 20378 20366 20370 20373 20369 20386 20388 20392 20407 20419 20442 20455 20430 20389 20366 20345 20335 20347 20348 20352 20376 20372 20380 20402 20410 20431 20440 20454 20476 20430 20390 20371 20355 20345 20344 20362 20381 20383 20397 20413 20431 20441 20457 20476 20499 20525 20491 20438 20413 20400 20398 20422 20414 20424 20433 20440 20442 20463 20467 20483 20497 20515 20532 20527 20472 20429 20406 20408 20398 20393 20397 20418 20405 20406 20412 20420 20430 20434 20448 20460 20477 20445 20381 20344 20331 20314 20298 20303 20309 20310 20301 20318 20332 20340 20352 20362 20385 20393 20417 20432 20386 20343 20308 20286 20289 20294 20284 20288 20297 20297 20307 20316 20339 20344 20359 20372 20403 20412 20429 20443 20420 20375 20340 20331 20323 20326 20339 20338 20342 20353 20350 20365 20392 20419 20429 20439 20450 20486 20510 20553 20588 20591 20586 20594 20590 20593 20602 20605 20606 20603 20607 20607 20629 20661 20698 20741 20779 20826 20866 20908 20952 20966 20928 20911 20886 20887 20896 20905 20905 20916 20915 20916 20917 20922 20925 20921 20944 20971 21002 21058 21094 21152 21149 21121 21110 21118 21123 21129 21137 21136 21146 21141 21121 21137 21139 21152 21142 21160 21166 21174 21179 21202 21181 21140 21080 21044 21032 21018 21011 20998 20995 20990 20979 20981 20987 20984 20996 21007 21025 21016 21041 21031 21022 20945 20890 20823 20809 20768 20759 20743 20731 20699 20686 20677 20674 20672 20680 20673 20681 20674 20688 20690 20692 20616 20549 20504 20465 20433 20414 20401 20402 20389 20392 20388 20376 20389 20399 20410 20427 20428 20438 20452 20473 20488 20473 20405 20351 20316 20284 20270 20243 20249 20254 20246 20241 20234 20250 20250 20277 20286 20301 20313 20333 20331 20355 20375 20399 20422 20385 20345 20307 20290 20274 20269 20255 20278 20268 20273 20285 20287 20307 20318 20335 20361 20367 20387 20410 20429 20450 20470 20501 20525 20531 20483 20449 20422 20414 20411 20410 20415 20410 20411 20418 20426 20441 20435 20440 20469 20483 20482 20493 20519 20536 20543 20562 20575 20574 20529 20483 20455 20450 20441 20449 20448 20441 20447 20462 20445 20462 20458 20470 20481 20495 20517 20527 20541 20559 20578 20605 20603 20618 20569 20543 20514 20497 20493 20487 20493 20501 20492 20497 20496 20508 20524 20533 20548 20565 20583 20592 20612 20627 20647 20658 20683 20695 20672 20607 20585 20562 20563 20561 20561 20552 20569 20572 20589 20569 20597 20588 20624 20630 20652 20671 20692 20704 20723 20749 20768 20764 20728 20683 20651 20645 20643 20634 20632 20632 20629 20640 20636 20633 20649 20659 20676 20688 20688 20713 20725 20748 20757 20755 20699 20641 20616 20585 20575 20562 20555 20542 20526 20533 20527 20527 20537 20529 20539 20555 20547 20561 20586 20599 20605 20569 20500 20455 20421 20405 20398 20395 20385 20368 20363 20358 20354 20350 20374 20378 20386 20390 20411 20424 20436 20444 20437 20378 20340 20315 20312 20300 20301 20310 20324 20318 20321 20319 20344 20347 20362 20370 20386 20411 20410 20439 20457 20488 20454 20403 20377 20346 20322 20324 20306 20305 20311 20298 20299 20311 20317 20318 20329 20334 20360 20360 20387 20393 20400 20388 20332 20291 20257 20229 20216 20202 20200 20195 20204 20189 20205 20207 20213 20215 20230 20251 20276 20280 20301 20316 20330 20358 20316 20283 20225 20209 20197 20173 20174 20174 20165 20176 20173 20179 20195 20204 20214 20243 20252 20271 20300 20312 20330 20372 20384 20367 20316 20283 20252 20255 20236 20240 20239 20233 20242 20230 20235 20253 20268 20288 20289 20309 20329 20334 20359 20365 20379 20321 20282 20241 20222 20210 20205 20198 20190 20196 20183 20185 20192 20197 20211 20239 20231 20253 20269 20280 20302 20315 20269 20212 20181 20164 20142 20140 20142 20125 20127 20141 20143 20135 20150 20162 20184 20194 20220 20231 20255 20278 20289 20317 20316 20264 20226 20208 20191 20182 20185 20181 20187 20195 20197 20209 20229 20245 20256 20269 20281 20315 20340 20357 20383 20402 20425 20420 20377 20345 20323 20310 20311 20300 20316 20312 20308 20300 20318 20339 20332 20358 20360 20382 20395 20393 20431 20439 20448 20402 20350 20315 20287 20270 20263 20262 20263 20255 20256 20255 20257 20269 20269 20291 20300 20311 20328 20341 20365 20384 20378 20332 20281 20254 20234 20218 20223 20215 20224 20221 20227 20229 20232 20248 20268 20283 20307 20316 20342 20354 20380 20400 20395 20347 20300 20270 20273 20262 20254 20255 20264 20259 20271 20277 20285 20305 20318 20331 20345 20367 20375 20394 20411 20398 20345 20296 20263 20247 20247 20235 20231 20233 20216 20231 20229 20231 20211 20190 20190 20183 20195 20184 20190 20198 20209 20209 20235 20253 20257 20280 20301 20315 20343 20360 20392 20380 20323 20291 20275 20263 20259 20252 20256 20262 20268 20288 20299 20303 20313 20334 20363 20377 20394 20411 20436 20469 20470 20503 20487 20455 20415 20394 20404 20405 20401 20408 20402 20421 20409 20425 20417 20442 20441 20474 20491 20508 20511 20521 20553 20534 20494 20449 20426 20418 20407 20400 20405 20405 20395 20402 20416 20410 20408 20426 20440 20454 20467 20491 20491 20527 20526 20485 20432 20407 20387 20366 20372 20356 20355 20357 20349 20357 20358 20368 20388 20404 20409 20426 20446 20450 20477 20489 20492 20439 20414 20364 20359 20345 20347 20338 20342 20345 20349 20357 20370 20382 20393 20401 20430 20444 20456 20474 20505 20519 20507 20450 20406 20394 20377 20367 20356 20336 20310 20302 20302 20326 20351 20380 20406 20422 20447 20458 20478 20477 20485 20447 20400 20370 20349 20342 20330 20343 20346 20340 20345 20353 20364 20380 20400 20410 20421 20442 20447 20467 20473 20464 20417 20364 20328 20295 20283 20246 20233 20235 20237 20229 20239 20236 20249 20262 20263 20268 20287 20298 20301 20316 20291 20226 20175 20139 20107 20088 20063 20045 20052 20031 20030 20023 20019 20022 20036 20039 20050 20080 20086 20086 20050 20001 19961 19934 19902 19892 19895 19880 19885 19882 19886 19883 19883 19902 19909 19915 19938 19934 19899 19842 19794 19773 19741 19722 19705 19679 19685 19688 19706 19755 19821 19873 19902 19925 19948 19956 19967 19922 19880 19843 19843 19851 19866 19855 19754 19751 19809 19947 20051 20130 20184 20231 20280 20332 20402 20477 20482 20494 20493 20476 20489 20480 20519 20563 20575 20594 20617 20639 20666 20700 20751 20777 20821 20869 20905 20917 20949 20894 20875 20882 20886 20895 20913 20939 20958 20974 20992 21008 21042 21064 21081 21105 21133 21144 21172 21185 21221 21239 21213 21199 21218 21254 21307 21343 21424 21472 21494 21515 21546 21565 21612 21641 21676 21701 21752 21791 21815 21851 21896 21911 21907 21870 21868 21890 21921 21966 21991 22028 22042 22065 22097 22120 22131 22161 22181 22192 22213 22222 22238 22259 22271 22225 22182 22189 22223 22237 22271 22279 22296 22310 22315 22329 22337 22351 22373 22388 22392 22411 22413 22422 22415 22426 22378 22365 22386 22412 22431 22439 22459 22479 22481 22493 22492 22491 22501 22508 22536 22523 22530 22535 22541 22475 22429 22424 22425 22426 22425 22444 22454 22449 22470 22466 22485 22481 22504 22518 22530 22542 22547 22492 22424 22397 22390 22424 22420 22435 22445 22430 22430 22442 22442 22443 22482 22487 22503 22519 22530 22452 22387 22378 22347 22345 22339 22342 22334 22339 22333 22329 22330 22346 22363 22377 22385 22407 22394 22292 22255 22216 22195 22173 22155 22161 22152 22144 22140 22150 22155 22173 22186 22190 22186 22204 22196 22099 22052 22009 21987 21981 21988 21990 22026 22037 22039 22046 22059 22077 22113 22136 22147 22181 22185 22219 22205 22105 22062 22054 22083 22119 22178 22224 22259 22285 22289 22300 22308 22316 22320 22342 22355 22368 22387 22403 22434 22433 22455 22420 22371 22354 22384 22396 22409 22433 22454 22477 22490 22509 22532 22545 22580 22600 22597 22617 22646 22652 22662 22671 22567 22524 22541 22535 22576 22605 22629 22650 22659 22669 22685 22697 22715 22741 22741 22744 22767 22770 22779 22797 22805 22709 22699 22689 22714 22738 22766 22808 22818 22824 22826 22845 22855 22862 22884 22880 22898 22888 22914 22902 22922 22931 22936 22885 22886 22895 22931 22918 22955 22958 22963 22965 22959 22973 22999 22999 23016 23024 23013 23019 23025 23020 23016 22978 22909 22897 22903 22901 22920 22917 22904 22890 22881 22877 22900 22893 22903 22915 22932 22951 22966 22961 22961 22900 22892 22915 22939 22951 22966 22989 22996 23000 23010 23011 22998 22993 22981 22991 22995 22998 22993 23011 23002 22966 22980 22986 23004 23010 23036 23037 23035 23050 23057 23061 23074 23080 23086 23088 23094 23094 23119 23100 23019 23011 23018 23011 23024 23043 23035 23031 23040 23038 23044 23059 23072 23067 23073 23080 23097 23088 22993 22977 22942 22952 22951 22972 22982 22987 22996 23001 23018 23026 23041 23049 23056 23061 23088 23082 22994 22944 22919 22947 22936 22945 22975 22995 22996 23014 23033 23030 23047 23059 23076 23082 23090 23085 23106 23052 22973 22966 22962 22970 22971 22993 23019 23025 23044 23038 23054 23059 23074 23074 23084 23090 23097 23101 23110 23111 23055 22987 22970 22970 22967 22989 23006 23032 23038 23044 23052 23070 23087 23088 23103 23108 23125 23127 23130 23138 23129 23141 23124 23037 23004 22992 22999 23016 23029 23043 23046 23061 23052 23061 23067 23081 23087 23099 23094 23109 23109 23109 23100 23106 23111 23024 22974 22928 22906 22901 22912 22939 22939 22960 23009 23027 23060 23065 23047 23035 23039 23027 23023 23013 23010 23011 22966 22863 22803 22779 22767 22776 22785 22773 22778 22761 22746 22733 22703 22664 22620 22591 22539 22509 22386 22183 21958 21796 21624 21488 21392 21296 21216 21183 21179 21208 21204 21195 21209 21196 21191 21172 21118 21017 20930 20863 20824 20803 20819 20823 20844 20855 20858 20856 20869 20875 20883 20908 20894 20900 20842 20753 20683 20621 20574 20540 20512 20497 20479 20476 20463 20436 20416 20423 20413 20402 20387 20306 20222 20139 20097 20029 20017 20019 20022 20042 20053 20064 20082 20091 20103 20117 20137 20076 19977 19905 19845 19792 19764 19775 19776 19773 19765 19777 19795 19801 19803 19827 19852 19870 19810 19746 19697 19640 19618 19597 19602 19599 19615 19624 19652 19665 19698 19689 19673 19656 19652 19643 19590 19494 19379 19287 19204 19159 19172 19196 19199 19203 19200 19205 19221 19236 19203 19164 19160 19138 19124 19098 19046 18999 18978 18964 18980 18982 18989 18987 18990 19009 19023 19015 19062 19086 19124 19137 19169 19178 19168 19174 19188 19215 19232 19274 19333 19368 19411 19449 19485 19529 19606 19650 19696 19743 19747 19722 19710 19709 19692 19668 19658 19662 19675 19711 19706 19684 19690 19692 19732 19753 19781 19787 19808 19847 19879 19929 19964 20006 20048 20063 20055 20049 20038 19993 19977 20001 20031 20093 20180 20271 20321 20441 20617 20844 20923 20941 20921 21020 21116 21241 21338 21297 21262 21252 21243 21141 21095 21081 21081 21079 21066 21063 21050 21008 21022 21030 21007 20955 20965 20933 20890 20902 20925 20972 20982 20981 20996 21011 21052 21101 21102 21120 21116 21121 21129 21136 21113 21102 21133 21218 21345 21419 21460 21538 21585 21588 21547 21515 21497 21462 21430 21411 21397 21375 21350 21347 21335 21343 21354 21555 21603 21653 21770 21795 21724 21684 21642 21605 21637 21758 21922 22096 22194 22262 22263 22213 22104 22002 21959 21904 21850 21797 21722 21664 21615 21573 21551 21537 21520 21511 21504 21498 21484 21485 21487 21493 21477 21445 21391 21366 21338 21333 21334 21340 21338 21335 21331 21330 21331 21321 21341 21313 21276 21241 21217 21199 21200 21190 21191 21180 21203 21202 21195 21200 21197 21171 21116 21067 21008 20950 20907 20946 21304 21776 21982 22090 22121 22101 22069 22050 22009 21918 21795 21766 21784 21749 21713 21694 21684 21664 21629 21638 21618 21609 21576 21517 21456 21388 21343 21304 21276 21250 21232 21200 21193 21184 21174 21147 21147 21098 21003 20921 20863 20823 20797 20778 20764 20753 20732 20713 20719 20710 20711 20686 20607 20534 20477 20425 20388 20361 20351 20341 20333 20315 20308 20316 20300 20314 20276 20215 20147 20097 20071 20056 20052 20056 20044 20051 20055 20056 20064 20071 20087 20045 20005 19961 19941 19943 19934 19955 19971 19976 19988 20179 20209 20204 20191 20196 20183 20189 20187 20210 20223 20239 20255 20265 20281 20281 20324 20343 20359 20384 20398 20395 20384 20373 20377 20374 20384 20395 20417 20429 20441 20454 20479 20487 20501 20522 20538 20552 20566 20597 20571 20556 20544 20546 20561 20564 20578 20592 20602 20599 20614 20620 20643 20655 20660 20667 20680 20701 20697 20673 20661 20648 20646 20644 20646 20649 20652 20663 20667 20663 20668 20677 20695 20697 20719 20717 20736 20745 20744 20729 20681 20664 20648 20629 20632 20634 20623 20635 20634 20628 20624 20640 20655 20656 20667 20668 20689 20695 20704 20717 20683 20642 20612 20567 20566 20547 20549 20544 20545 20532 20534 20545 20546 20553 20554 20553 20566 20588 20609 20602 20623 20628 20603 20556 20520 20487 20481 20463 20464 20464 20462 20450 20460 20452 20446 20479 20468 20476 20494 20500 20520 20528 20533 20522 20473 20433 20411 20387 20375 20375 20366 20367 20361 20362 20367 20372 20390 20398 20393 20423 20434 20432 20451 20474 20481 20433 20394 20377 20353 20348 20330 20337 20338 20352 20338 20348 20352 20360 20377 20379 20392 20406 20429 20439 20449 20467 20450 20431 20375 20367 20355 20346 20357 20359 20350 20348 20359 20363 20353 20374 20385 20392 20416 20418 20429 20439 20464 20476 20497 20482 20446 20428 20400 20381 20391 20386 20393 20384 20399 20400 20402 20416 20420 20427 20455 20455 20480 20488 20503 20519 20537 20552 20532 20499 20473 20453 20431 20424 20446 20434 20433 20433 20439 20438 20442 20443 20458 20473 20481 20497 20512 20513 20515 20536 20539 20522 20484 20451 20427 20411 20406 20400 20400 20385 20395 20384 20388 20400 20392 20412 20409 20424 20424 20442 20456 20470 20477 20495 20503 20497 20483 20432 20407 20385 20370 20361 20362 20345 20355 20356 20359 20338 20353 20347 20355 20370 20377 20391 20409 20414 20415 20446 20448 20469 20426 20390 20349 20331 20312 20302 20301 20292 20296 20282 20281 20282 20290 20302 20298 20301 20317 20328 20346 20346 20374 20383 20403 20417 20415 20366 20334 20307 20292 20268 20274 20260 20273 20262 20260 20262 20259 20276 20279 20294 20297 20304 20327 20348 20366 20366 20382 20387 20337 20302 20280 20273 20245 20256 20250 20243 20238 20237 20247 20241 20253 20254 20269 20286 20299 20312 20326 20336 20346 20326 20282 20263 20222 20215 20210 20203 20199 20195 20187 20193 20181 20205 20198 20218 20206 20229 20249 20242 20263 20273 20289 20316 20294 20257 20218 20202 20198 20166 20164 20176 20158 20163 20158 20170 20162 20179 20192 20198 20196 20216 20219 20237 20255 20267 20288 20291 20297 20253 20245 20206 20201 20191 20177 20178 20163 20166 20166 20183 20175 20176 20194 20201 20227 20232 20256 20273 20280 20303 20320 20327 20344 20352 20333 20301 20267 20271 20247 20254 20240 20259 20251 20249 20252 20245 20254 20261 20283 20283 20293 20303 20323 20339 20349 20365 20366 20385 20398 20369 20340 20329 20303 20299 20296 20272 20261 20241 20215 20204 20213 20218 20221 20229 20252 20265 20273 20275 20284 20310 20314 20331 20332 20308 20275 20258 20237 20235 20231 20232 20240 20230 20236 20245 20247 20247 20267 20271 20282 20304 20313 20311 20327 20337 20351 20377 20349 20331 20300 20283 20280 20266 20256 20269 20277 20269 20281 20291 20283 20292 20305 20313 20324 20332 20346 20359 20382 20388 20409 20396 20368 20349 20331 20315 20314 20312 20320 20333 20317 20329 20329 20331 20338 20344 20361 20372 20376 20382 20405 20421 20420 20385 20362 20340 20321 20306 20305 20308 20306 20307 20302 20306 20300 20314 20318 20323 20334 20348 20357 20365 20388 20398 20401 20404 20374 20332 20309 20307 20286 20283 20282 20270 20265 20271 20267 20277 20281 20274 20288 20305 20311 20328 20345 20358 20366 20386 20388 20360 20325 20291 20279 20258 20250 20252 20245 20250 20252 20262 20253 20258 20273 20276 20309 20311 20323 20323 20337 20359 20369 20371 20393 20363 20333 20311 20292 20271 20281 20275 20289 20269 20281 20283 20291 20306 20298 20317 20333 20341 20357 20359 20373 20388 20406 20403 20379 20349 20331 20320 20316 20308 20309 20322 20321 20305 20326 20327 20339 20342 20352 20372 20385 20389 20404 20423 20421 20451 20453 20454 20443 20411 20389 20379 20377 20365 20355 20366 20366 20367 20364 20374 20386 20397 20409 20414 20416 20434 20445 20470 20468 20474 20500 20505 20473 20459 20428 20426 20411 20415 20407 20413 20409 20401 20416 20423 20425 20422 20439 20453 20462 20482 20492 20495 20506 20520 20533 20536 20519 20483 20461 20463 20443 20437 20446 20438 20443 20439 20453 20445 20462 20457 20474 20477 20484 20503 20505 20516 20534 20541 20534 20503 20479 20451 20445 20430 20431 20425 20424 20418 20416 20420 20427 20431 20433 20448 20463 20453 20470 20475 20492 20503 20472 20444 20413 20379 20364 20347 20346 20339 20343 20332 20335 20340 20342 20341 20346 20364 20365 20383 20384 20407 20421 20426 20417 20389 20340 20309 20292 20275 20266 20268 20261 20268 20252 20272 20259 20278 20278 20294 20296 20309 20311 20322 20340 20354 20361 20349 20305 20280 20266 20239 20230 20225 20230 20228 20222 20228 20228 20242 20251 20260 20270 20278 20292 20305 20330 20336 20345 20328 20301 20275 20278 20239 20249 20250 20240 20250 20244 20246 20241 20254 20283 20279 20282 20304 20316 20332 20341 20356 20362 20336 20323 20291 20276 20254 20257 20251 20256 20259 20255 20258 20275 20280 20293 20310 20312 20341 20350 20366 20374 20391 20399 20420 20382 20356 20332 20324 20315 20324 20322 20309 20338 20341 20333 20335 20342 20367 20372 20390 20396 20422 20430 20431 20453 20468 20456 20435 20411 20391 20383 20384 20384 20380 20393 20392 20387 20396 20414 20418 20422 20438 20440 20459 20479 20489 20501 20515 20509 20476 20449 20442 20432 20429 20425 20424 20427 20440 20442 20449 20456 20459 20470 20487 20483 20510 20513 20518 20526 20531 20488 20476 20451 20443 20430 20437 20444 20431 20446 20450 20446 20448 20455 20473 20473 20488 20500 20504 20527 20531 20557 20540 20504 20484 20466 20443 20445 20441 20440 20431 20437 20435 20431 20448 20441 20452 20465 20468 20474 20495 20510 20518 20524 20533 20533 20493 20462 20445 20431 20426 20423 20427 20416 20412 20419 20430 20429 20431 20446 20460 20460 20479 20490 20501 20514 20523 20528 20516 20484 20456 20437 20425 20433 20431 20418 20423 20431 20430 20426 20440 20448 20451 20469 20463 20485 20497 20506 20515 20517 20479 20455 20430 20411 20405 20395 20399 20407 20393 20404 20419 20405 20409 20416 20431 20456 20460 20460 20487 20498 20509 20510 20479 20437 20426 20410 20395 20400 20392 20392 20384 20394 20397 20409 20404 20412 20432 20434 20444 20459 20475 20476 20501 20507 20495 20464 20434 20416 20393 20399 20398 20399 20401 20393 20388 20399 20404 20428 20420 20433 20446 20462 20475 20479 20496 20515 20521 20518 20485 20454 20441 20442 20422 20436 20422 20422 20429 20428 20427 20436 20440 20456 20464 20473 20490 20493 20515 20522 20547 20541 20552 20534 20507 20484 20465 20476 20457 20473 20471 20469 20476 20482 20468 20488 20499 20506 20506 20528 20523 20549 20563 20579 20580 20564 20534 20517 20502 20490 20485 20476 20489 20494 20491 20490 20495 20502 20502 20507 20527 20531 20545 20562 20549 20591 20574 20547 20517 20499 20469 20465 20452 20452 20456 20454 20454 20449 20452 20456 20460 20467 20415 20421 20422 20428 20426 20437 20441 20455 20464 20468 20494 20504 20518 20527 20529 20490 20469 20441 20445 20435 20436 20441 20425 20431 20437 20448 20459 20461 20470 20486 20496 20501 20509 20533 20537 20556 20579 20564 20514 20491 20476 20446 20439 20435 20453 20456 20475 20470 20469 20475 20477 20486 20500 20519 20531 20546 20551 20561 20583 20594 20595 20561 20535 20520 20496 20508 20499 20494 20501 20492 20498 20504 20506 20516 20521 20543 20544 20556 20580 20576 20591 20620 20621 20605 20581 20551 20545 20535 20531 20531 20535 20524 20526 20525 20530 20526 20544 20551 20576 20567 20581 20596 20602 20623 20639 20604 20574 20547 20527 20534 20518 20503 20511 20504 20525 20514 20514 20522 20533 20537 20556 20564 20578 20589 20593 20612 20616 20616 20565 20539 20511 20509 20498 20487 20497 20483 20483 20478 20488 20500 20486 20505 20508 20514 20528 20542 20554 20570 20573 20597 20553 20520 20489 20471 20468 20462 20451 20436 20453 20445 20441 20449 20445 20454 20462 20483 20487 20500 20510 20523 20537 20551 20570 20556 20515 20484 20464 20441 20440 20430 20444 20423 20425 20428 20437 20442 20439 20447 20461 20470 20473 20499 20509 20519 20529 20541 20517 20490 20447 20433 20420 20424 20423 20422 20430 20422 20435 20429 20433 20443 20442 20457 20467 20491 20500 20513 20529 20536 20510 20474 20441 20431 20435 20422 20404 20406 20401 20414 20406 20411 20416 20419 20449 20448 20466 20470 20482 20490 20515 20532 20531 20514 20476 20448 20436 20424 20421 20415 20410 20408 20416 20424 20425 20436 20433 20444 20468 20464 20481 20495 20519 20518 20543 20556 20541 20502 20480 20468 20459 20434 20450 20438 20437 20435 20438 20439 20458 20465 20482 20480 20496 20510 20525 20533 20546 20560 20566 20558 20543 20507 20504 20495 20480 20472 20481 20475 20474 20477 20463 20488 20477 20510 20513 20520 20528 20538 20549 20570 20584 20581 20554 20519 20500 20490 20471 20473 20467 20470 20484 20475 20475 20481 20493 20502 20515 20516 20521 20537 20549 20567 20577 20586 20597 20573 20535 20515 20504 20494 20488 20493 20493 20488 20479 20478 20490 20496 20505 20514 20526 20532 20547 20547 20568 20578 20592 20589 20578 20548 20525 20512 20494 20480 20479 20481 20482 20483 20482 20493 20486 20503 20506 20516 20535 20558 20553 20565 20583 20595 20605 20582 20545 20525 20503 20493 20489 20483 20487 20475 20483 20483 20492 20498 20488 20501 20508 20509 20523 20540 20564 20569 20566 20553 20515 20486 20481 20470 20469 20448 20465 20462 20454 20460 20460 20469 20473 20476 20490 20498 20513 20523 20528 20543 20514 20480 20449 20426 20420 20414 20404 20392 20394 20399 20388 20402 20399 20407 20418 20429 20441 20458 20456 20467 20488 20484 20446 20402 20380 20369 20342 20344 20328 20331 20323 20323 20326 20323 20342 20334 20345 20349 20376 20384 20397 20418 20425 20403 20369 20341 20317 20296 20279 20278 20273 20271 20274 20266 20269 20268 20288 20289 20293 20309 20320 20329 20354 20364 20363 20341 20304 20263 20260 20249 20228 20224 20231 20229 20236 20236 20244 20249 20261 20273 20276 20286 20300 20318 20337 20357 20363 20356 20330 20294 20267 20261 20255 20237 20240 20257 20248 20250 20254 20257 20286 20280 20289 20307 20326 20335 20353 20364 20374 20403 20408 20429 20413 20386 20359 20356 20334 20337 20333 20354 20365 20370 20354 20376 20395 20400 20406 20420 20445 20446 20470 20472 20495 20520 20534 20526 20522 20496 20483 20487 20487 20487 20484 20494 20490 20498 20511 20521 20511 20535 20540 20562 20581 20586 20590 20620 20638 20635 20647 20632 20601 20590 20583 20590 20574 20592 20596 20603 20601 20601 20626 20620 20625 20650 20667 20667 20673 20692 20707 20716 20739 20743 20752 20742 20705 20696 20687 20693 20678 20694 20685 20687 20695 20695 20692 20707 20716 20728 20734 20736 20761 20780 20783 20800 20801 20809 20830 20805 20782 20754 20743 20739 20744 20742 20727 20734 20733 20743 20739 20734 20746 20747 20762 20776 20775 20798 20800 20814 20812 20805 20784 20762 20734 20715 20700 20701 20694 20684 20679 20690 20689 20691 20683 20687 20707 20711 20721 20728 20750 20744 20764 20766 20774 20736 20693 20665 20659 20643 20629 20627 20621 20609 20619 20616 20613 20611 20619 20628 20633 20645 20660 20658 20678 20688 20703 20689 20667 20620 20606 20588 20572 20574 20562 20564 20568 20571 20559 20571 20568 20568 20584 20584 20620 20618 20628 20640 20656 20658 20633 20598 20572 20555 20535 20533 20528 20533 20526 20529 20524 20532 20536 20547 20569 20580 20587 20599 20610 20629 20636 20644 20595 20571 20547 20530 20527 20522 20518 20512 20506 20509 20513 20517 20531 20544 20556 20555 20590 20589 20607 20604 20628 20645 20612 20580 20560 20544 20518 20524 20531 20523 20529 20528 20531 20524 20542 20549 20558 20575 20591 20586 20612 20610 20622 20641 20644 20594 20578 20560 20550 20544 20541 20545 20540 20548 20546 20548 20545 20563 20574 20577 20596 20590 20611 20617 20639 20642 20635 20593 20572 20554 20536 20537 20536 20524 20551 20527 20529 20526 20551 20558 20554 20564 20573 20595 20600 20611 20632 20642 20655 20628 20599 20561 20555 20548 20529 20521 20515 20529 20528 20528 20521 20523 20531 20546 20552 20566 20579 20588 20593 20612 20633 20636 20634 20612 20578 20554 20535 20526 20513 20514 20515 20512 20515 20522 20530 20528 20542 20552 20562 20573 20590 20595 20609 20624 20646 20637 20609 20578 20553 20537 20540 20530 20536 20522 20537 20524 20533 20533 20538 20546 20557 20559 20575 20595 20598 20611 20626 20637 20607 20561 20544 20523 20505 20507 20513 20515 20510 20519 20509 20515 20510 20527 20542 20541 20554 20565 20568 20588 20606 20622 20631 20602 20562 20547 20529 20512 20509 20503 20507 20510 20503 20502 20514 20499 20529 20530 20545 20557 20562 20583 20598 20594 20621 20616 20600 20569 20541 20523 20506 20500 20498 20492 20493 20486 20500 20503 20500 20507 20517 20525 20536 20549 20573 20580 20581 20609 20616 20579 20545 20529 20501 20486 20490 20485 20479 20475 20482 20480 20480 20490 20484 20497 20510 20522 20536 20549 20560 20552 20575 20548 20505 20475 20468 20445 20440 20443 20448 20437 20432 20437 20440 20448 20458 20471 20474 20486 20506 20525 20519 20547 20567 20541 20500 20466 20449 20422 20417 20418 20413 20404 20411 20426 20417 20422 20430 20434 20452 20465 20474 20490 20507 20522 20535 20548 20531 20492 20468 20445 20445 20413 20419 20415 20421 20434 20426 20429 20439 20433 20452 20458 20479 20487 20503 20526 20535 20541 20564 20541 20513 20480 20451 20451 20447 20438 20433 20443 20446 20441 20451 20456 20479 20497 20494 20503 20520 20533 20534 20556 20577 20544 20511 20477 20472 20460 20448 20450 20457 20448 20454 20451 20454 20459 20476 20481 20488 20493 20513 20522 20528 20547 20531 20489 20475 20439 20411 20409 20401 20410 20411 20413 20416 20410 20421 20414 20433 20439 20457 20458 20484 20490 20510 20526 20516 20479 20440 20414 20399 20390 20384 20383 20381 20387 20380 20378 20393 20392 20406 20424 20432 20426 20450 20469 20476 20491 20511 20490 20461 20439 20403 20387 20381 20364 20374 20375 20379 20382 20381 20392 20388 20411 20407 20442 20439 20461 20463 20498 20501 20508 20522 20486 20465 20442 20439 20410 20407 20414 20416 20407 20410 20411 20421 20424 20433 20440 20460 20467 20479 20492 20510 20507 20523 20520 20499 20474 20457 20428 20423 20427 20426 20438 20436 20444 20434 20440 20463 20470 20482 20483 20509 20525 20508 20495 20497 20496 20496 20484 20490 20505 20501 20506 20511 20525 20524 20551 20546 20575 20580 20596 20610 20631 20635 20640 20608 20582 20568 20540 20554 20548 20553 20548 20543 20546 20547 20557 20570 20565 20585 20587 20611 20632 20640 20645 20667 20679 20686 20683 20640 20621 20603 20603 20581 20581 20595 20590 20588 20584 20593 20590 20594 20597 20615 20610 20630 20643 20638 20648 20664 20645 20616 20574 20555 20553 20544 20546 20543 20541 20542 20561 20553 20547 20562 20566 20563 20578 20588 20610 20624 20636 20642 20628 20602 20574 20555 20533 20528 20496 20514 20508 20500 20501 20500 20502 20519 20509 20521 20528 20534 20562 20563 20579 20581 20601 20584 20555 20522 20487 20478 20469 20467 20467 20464 20462 20452 20463 20466 20468 20477 20485 20501 20506 20527 20531 20540 20554 20573 20562 20526 20486 20474 20459 20466 20447 20445 20458 20435 20450 20441 20464 20465 20467 20477 20482 20499 20501 20524 20532 20547 20535 20502 20477 20456 20445 20422 20445 20418 20424 20428 20426 20431 20432 20439 20448 20461 20475 20497 20496 20512 20526 20527 20539 20518 20493 20479 20452 20441 20426 20434 20425 20430 20433 20441 20443 20452 20458 20468 20463 20480 20490 20511 20527 20543 20558 20560 20537 20509 20479 20473 20466 20462 20456 20450 20452 20461 20461 20455 20475 20480 20494 20508 20515 20532 20551 20564 20568 20578 20590 20556 20532 20507 20515 20502 20501 20502 20508 20514 20500 20514 20514 20531 20545 20548 20565 20568 20575 20594 20607 20615 20609 20591 20554 20544 20529 20515 20515 20512 20519 20524 20518 20522 20524 20542 20555 20565 20574 20571 20605 20599 20611 20634 20637 20632 20602 20576 20550 20537 20536 20523 20532 20533 20520 20528 20524 20544 20549 20550 20567 20585 20585 20595 20604 20619 20643 20646 20634 20600 20579 20571 20545 20541 20537 20547 20539 20545 20547 20540 20546 20560 20571 20587 20589 20610 20612 20623 20643 20659 20636 20606 20582 20559 20557 20549 20553 20548 20557 20557 20548 20551 20571 20557 20581 20584 20599 20608 20619 20622 20640 20636 20619 20581 20563 20549 20533 20526 20533 20524 20534 20533 20523 20528 20541 20545 20553 20559 20573 20574 20593 20610 20611 20626 20604 20565 20546 20523 20500 20493 20497 20482 20489 20485 20476 20492 20485 20497 20501 20510 20523 20539 20550 20554 20568 20579 20586 20565 20535 20499 20486 20473 20450 20453 20446 20436 20441 20446 20444 20434 20449 20459 20479 20478 20496 20504 20514 20532 20533 20525 20489 20455 20441 20416 20403 20403 20404 20410 20404 20402 20417 20405 20402 20428 20430 20441 20456 20457 20467 20483 20491 20460 20428 20397 20375 20365 20355 20348 20356 20352 20360 20357 20368 20381 20373 20386 20392 20406 20424 20442 20451 20464 20480 20490 20488 20450 20412 20394 20384 20371 20364 20375 20368 20380 20372 20380 20385 20397 20408 20412 20425 20443 20452 20464 20480 20489 20509 20520 20511 20473 20446 20439 20434 20427 20423 20427 20431 20441 20438 20445 20450 20461 20469 20488 20497 20509 20523 20545 20543 20566 20580 20580 20557 20535 20513 20509 20491 20497 20514 20508 20517 20519 20518 20523 20523 20536 20548 20566 20573 20587 20578 20600 20627 20635 20617 20583 20572 20547 20540 20532 20538 20536 20531 20521 20542 20548 20542 20557 20570 20586 20595 20589 20615 20625 20640 20644 20660 20645 20608 20602 20567 20560 20554 20551 20563 20549 20548 20558 20558 20566 20572 20582 20595 20599 20620 20622 20638 20646 20666 20676 20666 20624 20609 20594 20581 20567 20573 20561 20563 20565 20566 20563 20566 20575 20586 20596 20601 20613 20628 20646 20650 20669 20663 20643 20624 20581 20580 20557 20550 20559 20546 20549 20547 20550 20553 20542 20557 20559 20582 20585 20590 20595 20618 20634 20629 20623 20595 20560 20545 20526 20505 20503 20512 20504 20508 20501 20508 20504 20507 20528 20537 20533 20554 20559 20565 20593 20601 20612 20619 20590 20561 20533 20501 20507 20492 20485 20481 20476 20482 20493 20482 20493 20497 20516 20518 20521 20539 20551 20563 20573 20581 20606 20570 20539 20515 20500 20490 20475 20482 20479 20478 20485 20477 20483 20491 20497 20514 20507 20536 20528 20539 20568 20581 20577 20583 20542 20524 20501 20488 20479 20482 20490 20478 20488 20480 20491 20492 20505 20504 20520 20520 20544 20544 20557 20582 20573 20567 20523 20506 20492 20482 20478 20471 20463 20470 20475 20470 20475 20494 20491 20515 20520 20530 20539 20559 20566 20582 20586 20585 20578 20547 20520 20507 20494 20501 20499 20498 20496 20496 20504 20500 20519 20524 20546 20543 20562 20578 20592 20613 20606 20622 20615 20595 20567 20558 20532 20541 20547 20534 20539 20542 20541 20551 20558 20540 20570 20581 20598 20598 20613 20629 20639 20650 20642 20611 20587 20559 20569 20561 20574 20565 20562 20562 20567 20568 20577 20581 20588 20581 20613 20620 20628 20661 20656 20661 20630 20615 20580 20570 20571 20563 20554 20552 20557 20557 20575 20557 20578 20575 20592 20597 20610 20626 20644 20658 20654 20676 20672 20635 20616 20601 20582 20578 20563 20573 20573 20568 20573 20575 20587 20579 20598 20609 20622 20632 20662 20667 20676 20694 20702 20690 20661 20637 20633 20612 20616 20610 20605 20612 20618 20616 20623 20627 20636 20648 20649 20658 20674 20677 20696 20714 20719 20691 20664 20650 20633 20618 20623 20628 20619 20624 20612 20628 20626 20625 20630 20649 20645 20673 20668 20682 20707 20718 20721 20722 20691 20650 20636 20640 20611 20606 20604 20612 20609 20605 20611 20616 20633 20625 20640 20645 20659 20669 20674 20701 20720 20727 20717 20690 20664 20650 20618 20614 20603 20611 20600 20596 20593 20607 20612 20610 20597 20624 20634 20647 20664 20660 20681 20709 20701 20727 20722 20698 20662 20637 20625 20615 20622 20607 20613 20613 20604 20614 20602 20618 20623 20641 20638 20659 20651 20677 20686 20700 20718 20728 20721 20689 20661 20642 20634 20625 20623 20621 20615 20608 20610 20611 20626 20625 20622 20640 20648 20657 20660 20689 20698 20705 20722 20702 20668 20638 20614 20606 20594 20601 20591 20592 20595 20596 20596 20594 20611 20620 20636 20648 20654 20656 20672 20675 20692 20717 20700 20686 20645 20629 20595 20581 20594 20580 20580 20575 20589 20584 20578 20591 20590 20592 20611 20618 20620 20639 20661 20673 20680 20694 20707 20683 20630 20600 20582 20573 20572 20559 20565 20560 20549 20562 20549 20557 20554 20574 20572 20600 20606 20610 20631 20632 20659 20667 20671 20662 20619 20577 20564 20552 20540 20539 20538 20535 20537 20533 20540 20531 20547 20539 20554 20563 20579 20595 20600 20621 20627 20644 20639 20613 20578 20545 20541 20527 20520 20515 20540 20527 20532 20526 20518 20526 20539 20541 20566 20573 20581 20589 20599 20605 20629 20596 20551 20535 20520 20500 20477 20496 20489 20493 20488 20489 20496 20498 20515 20512 20529 20546 20553 20566 20586 20601 20611 20590 20569 20526 20507 20480 20470 20462 20467 20468 20468 20459 20476 20461 20468 20480 20493 20508 20505 20524 20531 20544 20557 20578 20547 20503 20485 20462 20439 20420 20411 20407 20412 20417 20416 20403 20411 20424 20428 20439 20449 20462 20467 20478 20491 20514 20520 20523 20468 20442 20430 20388 20380 20374 20368 20370 20362 20368 20366 20380 20375 20392 20390 20409 20415 20428 20441 20449 20468 20485 20447 20433 20389 20369 20351 20343 20335 20346 20350 20341 20349 20351 20355 20365 20369 20376 20390 20411 20415 20424 20448 20425 20388 20363 20345 20335 20309 20318 20312 20301 20299 20309 20309 20313 20327 20336 20346 20366 20383 20357 20322 20309 20276 20272 20254 20257 20254 20260 20257 20256 20261 20269 20273 20293 20301 20315 20340 20339 20356 20369 20387 20401 20398 20361 20344 20312 20300 20279 20286 20290 20282 20270 20290 20283 20277 20295 20312 20321 20328 20345 20368 20377 20383 20402 20417 20441 20428 20398 20374 20366 20345 20336 20333 20341 20339 20345 20351 20353 20342 20373 20371 20386 20410 20413 20420 20430 20452 20472 20477 20459 20413 20397 20400 20386 20390 20379 20374 20380 20392 20382 20394 20400 20406 20427 20427 20433 20457 20470 20483 20508 20516 20542 20547 20537 20512 20490 20478 20463 20464 20462 20462 20470 20474 20466 20479 20494 20490 20516 20523 20520 20543 20560 20576 20582 20599 20613 20633 20616 20603 20578 20563 20563 20566 20550 20569 20545 20562 20566 20582 20572 20593 20603 20620 20621 20643 20655 20657 20657 20695 20691 20715 20726 20707 20693 20692 20680 20660 20665 20672 20670 20670 20675 20693 20678 20691 20710 20714 20730 20730 20748 20762 20769 20782 20819 20806 20801 20784 20773 20762 20745 20746 20754 20738 20750 20740 20752 20748 20756 20765 20772 20770 20793 20795 20809 20820 20824 20846 20860 20849 20828 20806 20798 20788 20777 20776 20767 20764 20754 20777 20755 20759 20747 20759 20783 20773 20782 20798 20803 20812 20826 20835 20839 20837 20807 20789 20752 20751 20745 20733 20727 20733 20724 20726 20720 20722 20730 20733 20730 20755 20766 20771 20781 20790 20803 20807 20778 20752 20715 20701 20677 20670 20676 20660 20654 20649 20640 20642 20647 20645 20651 20653 20660 20676 20679 20683 20687 20714 20695 20648 20616 20585 20562 20547 20549 20536 20528 20522 20514 20524 20530 20523 20529 20538 20547 20555 20559 20577 20583 20594 20612 20620 20607 20574 20541 20505 20495 20482 20472 20475 20461 20461 20458 20445 20464 20466 20470 20479 20486 20506 20523 20523 20549 20556 20571 20594 20593 20579 20547 20529 20502 20495 20477 20466 20465 20471 20490 20477 20477 20492 20491 20513 20518 20531 20535 20546 20570 20581 20605 20615 20639 20617 20592 20572 20561 20552 20548 20539 20538 20548 20549 20544 20552 20557 20578 20569 20597 20601 20616 20629 20630 20646 20674 20685 20684 20661 20644 20619 20620 20609 20613 20616 20614 20606 20613 20627 20623 20625 20638 20652 20663 20667 20689 20693 20713 20712 20721 20732 20698 20680 20670 20647 20641 20634 20633 20643 20636 20640 20639 20649 20662 20655 20663 20685 20680 20708 20717 20727 20741 20768 20765 20747 20728 20703 20696 20669 20662 20655 20652 20646 20656 20657 20657 20660 20673 20680 20684 20703 20708 20718 20730 20742 20758 20763 20772 20745 20715 20703 20680 20676 20666 20657 20654 20665 20644 20655 20662 20658 20678 20676 20684 20694 20704 20721 20726 20738 20755 20762 20739 20713 20678 20666 20652 20646 20640 20646 20645 20639 20645 20653 20651 20671 20663 20670 20677 20687 20699 20712 20747 20722 20701 20670 20653 20628 20619 20599 20604 20599 20599 20592 20604 20598 20602 20617 20608 20626 20640 20644 20663 20673 20692 20692 20647 20620 20592 20560 20560 20542 20537 20541 20534 20531 20526 20540 20539 20549 20555 20564 20580 20589 20604 20611 20616 20615 20575 20563 20527 20502 20491 20473 20485 20475 20483 20475 20483 20487 20493 20492 20530 20523 20529 20553 20558 20552 20576 20563 20515 20487 20461 20443 20433 20435 20441 20442 20439 20434 20440 20433 20458 20453 20461 20466 20481 20497 20514 20524 20526 20487 20452 20420 20411 20396 20377 20369 20377 20385 20374 20379 20388 20382 20404 20411 20413 20432 20453 20457 20477 20496 20519 20483 20459 20416 20405 20375 20377 20365 20373 20377 20363 20368 20377 20375 20399 20397 20409 20431 20448 20448 20464 20489 20505 20517 20526 20503 20460 20438 20422 20411 20410 20409 20398 20409 20413 20413 20418 20423 20441 20445 20469 20474 20483 20499 20510 20536 20547 20570 20567 20552 20508 20492 20483 20472 20479 20477 20475 20474 20471 20481 20484 20503 20516 20527 20540 20553 20559 20557 20574 20580 20610 20634 20594 20568 20557 20546 20548 20547 20558 20543 20543 20531 20549 20556 20564 20564 20574 20593 20600 20617 20612 20637 20661 20657 20686 20692 20668 20636 20611 20603 20584 20586 20573 20584 20599 20587 20599 20606 20601 20617 20623 20645 20652 20662 20670 20687 20700 20713 20729 20749 20737 20693 20676 20647 20644 20637 20648 20652 20647 20646 20645 20657 20654 20661 20675 20683 20702 20713 20718 20733 20736 20760 20773 20754 20711 20699 20665 20663 20662 20666 20672 20656 20662 20671 20663 20670 20680 20707 20706 20705 20727 20730 20744 20761 20777 20776 20773 20733 20698 20687 20673 20663 20660 20658 20648 20654 20632 20650 20663 20658 20666 20680 20682 20691 20701 20728 20731 20747 20751 20760 20740 20701 20675 20647 20647 20629 20630 20628 20632 20630 20629 20616 20623 20626 20641 20646 20665 20668 20687 20693 20703 20718 20716 20728 20695 20659 20625 20608 20597 20594 20594 20583 20586 20581 20584 20586 20591 20592 20598 20607 20621 20631 20655 20663 20670 20684 20659 20629 20609 20569 20561 20553 20550 20551 20543 20542 20540 20546 20549 20556 20551 20580 20578 20588 20608 20616 20632 20639 20613 20576 20548 20515 20512 20501 20496 20492 20498 20493 20492 20502 20502 20513 20518 20532 20547 20560 20570 20579 20588 20603 20617 20574 20549 20529 20505 20489 20485 20490 20480 20484 20486 20475 20494 20487 20499 20508 20525 20531 20545 20565 20568 20586 20587 20609 20614 20572 20548 20524 20518 20507 20513 20496 20495 20500 20502 20505 20511 20521 20535 20539 20542 20556 20562 20580 20596 20608 20624 20635 20631 20601 20583 20551 20549 20539 20536 20550 20545 20536 20554 20551 20558 20558 20577 20584 20595 20599 20614 20614 20636 20651 20648 20627 20606 20573 20552 20551 20553 20551 20547 20546 20553 20558 20559 20562 20569 20591 20593 20617 20619 20626 20645 20662 20670 20641 20605 20582 20562 20555 20550 20544 20534 20534 20542 20548 20539 20552 20562 20571 20579 20577 20605 20613 20620 20629 20644 20647 20611 20588 20554 20536 20534 20514 20514 20508 20514 20520 20515 20521 20514 20531 20529 20555 20562 20572 20586 20603 20606 20643 20618 20610 20576 20553 20529 20521 20515 20509 20504 20506 20502 20510 20510 20523 20518 20532 20545 20548 20564 20568 20590 20593 20614 20591 20569 20534 20514 20493 20474 20477 20475 20478 20488 20467 20475 20474 20489 20496 20502 20510 20527 20530 20550 20564 20586 20589 20567 20550 20514 20503 20487 20477 20463 20455 20449 20456 20453 20461 20467 20482 20478 20487 20502 20509 20515 20541 20560 20562 20580 20599 20597 20559 20536 20518 20507 20501 20488 20481 20500 20483 20489 20496 20495 20515 20500 20536 20538 20551 20563 20579 20588 20606 20606 20632 20641 20616 20583 20573 20563 20558 20550 20556 20562 20551 20566 20567 20568 20573 20594 20593 20599 20611 20639 20640 20649 20676 20681 20700 20656 20643 20625 20622 20603 20596 20604 20612 20600 20604 20603 20623 20625 20635 20645 20655 20660 20687 20692 20704 20719 20734 20721 20703 20676 20659 20648 20643 20639 20642 20638 20641 20640 20640 20654 20655 20664 20677 20693 20697 20713 20727 20727 20746 20762 20771 20744 20727 20702 20680 20678 20673 20678 20669 20679 20677 20665 20677 20691 20693 20704 20712 20727 20738 20751 20753 20773 20784 20801 20809 20814 20777 20750 20732 20734 20719 20718 20716 20718 20712 20713 20726 20725 20720 20750 20744 20754 20774 20787 20793 20809 20810 20826 20825 20796 20770 20746 20735 20730 20726 20723 20728 20725 20734 20716 20732 20742 20750 20763 20771 20779 20795 20810 20816 20825 20844 20850 20841 20815 20782 20767 20758 20744 20736 20735 20748 20731 20740 20736 20740 20751 20755 20773 20774 20774 20801 20803 20820 20834 20831 20866 20866 20853 20822 20799 20780 20771 20758 20755 20760 20758 20753 20758 20754 20757 20758 20776 20782 20790 20794 20814 20811 20830 20842 20849 20877 20881 20872 20835 20819 20799 20781 20781 20776 20776 20781 20763 20762 20765 20775 20772 20781 20795 20796 20800 20821 20832 20837 20847 20853 20853 20824 20777 20770 20752 20744 20743 20739 20730 20730 20732 20739 20735 20744 20755 20768 20766 20784 20790 20804 20804 20820 20840 20828 20795 20765 20743 20716 20712 20702 20699 20692 20681 20691 20698 20693 20691 20698 20712 20721 20733 20753 20767 20792 20801 20834 20854 20842 20823 20789 20778 20792 20774 20781 20790 20787 20797 20795 20815 20807 20825 20838 20870 20872 20875 20881 20882 20894 20906 20911 20930 20928 20893 20860 20829 20809 20798 20798 20795 20798 20782 20784 20783 20771 20781 20791 20781 20800 20796 20810 20814 20838 20839 20845 20827 20784 20751 20732 20715 20707 20689 20691 20686 20682 20675 20684 20693 20687 20708 20721 20720 20737 20747 20752 20757 20784 20759 20726 20694 20661 20650 20633 20632 20618 20633 20618 20612 20618 20615 20614 20621 20638 20651 20653 20660 20681 20699 20716 20719 20706 20675 20645 20617 20597 20590 20586 20571 20574 20573 20578 20576 20577 20585 20599 20603 20611 20636 20632 20665 20671 20701 20699 20724 20696 20673 20639 20607 20593 20578 20572 20558 20558 20577 20573 20566 20591 20595 20603 20619 20634 20651 20653 20679 20703 20713 20728 20707 20671 20656 20623 20622 20618 20615 20614 20609 20612 20599 20609 20612 20631 20625 20645 20655 20665 20684 20696 20708 20738 20725 20695 20663 20635 20621 20622 20607 20612 20615 20617 20627 20612 20623 20635 20641 20658 20657 20663 20678 20687 20705 20715 20738 20717 20682 20661 20645 20612 20616 20596 20601 20605 20600 20597 20615 20615 20618 20621 20641 20643 20657 20681 20688 20704 20711 20720 20713 20685 20671 20664 20639 20631 20614 20627 20619 20633 20627 20625 20628 20624 20642 20667 20667 20668 20690 20710 20716 20732 20746 20735 20715 20693 20681 20670 20661 20655 20658 20656 20663 20661 20668 20670 20680 20683 20690 20705 20717 20726 20736 20759 20770 20782 20802 20782 20764 20745 20714 20701 20696 20691 20696 20695 20692 20699 20699 20708 20712 20713 20715 20734 20760 20763 20774 20781 20814 20810 20822 20818 20788 20767 20746 20750 20733 20731 20725 20730 20722 20726 20730 20737 20739 20752 20760 20771 20780 20789 20794 20812 20832 20850 20861 20872 20833 20811 20793 20776 20778 20771 20763 20777 20769 20764 20770 20781 20782 20784 20789 20808 20813 20833 20841 20849 20863 20878 20903 20907 20876 20863 20836 20820 20800 20812 20800 20805 20802 20822 20813 20797 20815 20829 20836 20848 20851 20870 20875 20891 20910 20920 20929 20936 20918 20885 20880 20855 20853 20853 20841 20843 20852 20844 20847 20850 20860 20858 20882 20873 20889 20896 20908 20914 20954 20938 20955 20984 20966 20942 20937 20929 20924 20919 20916 20905 20909 20915 20909 20912 20915 20922 20923 20926 20942 20955 20969 20978 20993 21015 21021 21029 21009 20978 20956 20948 20941 20935 20929 20916 20928 20910 20925 20922 20924 20932 20945 20945 20958 20950 20961 20977 20996 21005 20976 20962 20929 20905 20903 20895 20877 20875 20887 20867 20864 20884 20879 20901 20890 20901 20917 20914 20910 20938 20941 20941 20903 20875 20846 20837 20801 20803 20800 20790 20784 20773 20780 20774 20785 20791 20797 20803 20809 20805 20833 20846 20853 20863 20838 20798 20764 20749 20727 20717 20697 20693 20699 20691 20680 20686 20699 20701 20701 20706 20717 20733 20750 20758 20764 20771 20786 20765 20742 20711 20684 20672 20657 20649 20647 20644 20643 20633 20639 20636 20628 20646 20650 20660 20672 20686 20695 20715 20716 20731 20707 20672 20653 20630 20623 20614 20618 20611 20599 20617 20609 20612 20627 20618 20630 20643 20665 20674 20691 20689 20712 20725 20728 20699 20658 20643 20630 20608 20598 20600 20600 20605 20607 20605 20610 20618 20638 20631 20641 20661 20659 20681 20702 20724 20729 20750 20755 20771 20738 20705 20685 20670 20665 20661 20657 20652 20661 20664 20658 20673 20683 20685 20700 20714 20713 20730 20746 20768 20790 20797 20820 20816 20845 20828 20803 20778 20767 20775 20761 20733 20751 20744 20744 20749 20757 20775 20771 20784 20797 20812 20807 20834 20847 20847 20871 20878 20888 20883 20851 20824 20818 20789 20798 20793 20788 20774 20788 20796 20794 20800 20802 20811 20833 20831 20851 20853 20866 20882 20895 20913 20906 20873 20846 20824 20814 20811 20797 20801 20803 20793 20797 20800 20802 20804 20820 20829 20836 20844 20850 20862 20873 20886 20900 20893 20859 20823 20805 20785 20772 20769 20761 20761 20766 20753 20746 20759 20766 20768 20783 20785 20785 20807 20810 20829 20841 20840 20810 20784 20748 20743 20718 20705 20697 20689 20690 20688 20675 20670 20679 20677 20695 20700 20700 20718 20732 20742 20743 20746 20696 20659 20634 20620 20602 20591 20589 20591 20575 20577 20580 20577 20584 20585 20594 20598 20618 20619 20624 20655 20650 20659 20619 20583 20560 20531 20513 20498 20510 20505 20495 20500 20496 20499 20509 20517 20525 20536 20551 20564 20572 20587 20608 20617 20621 