39502 39552 39612 39656 39718 39770 39825 39849 39927 40012 39979 42997 43541 43635 43699 43722 43747 43764 43779 43801 43758 43710 43678 43652 43627 43626 43588 43578 43562 43538 43526 43515 43523 43514 43483 43444 43379 43338 43309 43285 43252 43216 43184 43159 43145 43128 43097 43107 43073 43045 42954 42870 42814 42776 42738 42722 42728 42780 42846 42573 42531 42408 42222 42105 41922 41719 41551 41439 41333 41218 41089 40984 40880 40817 40750 40652 40557 40498 40365 40192 40034 39919 39822 39730 39661 39595 39516 39452 39410 39379 39351 39351 39311 39190 39062 38961 38916 38863 38829 38783 38727 38690 38682 38669 38653 38660 38651 38636 38534 38427 38377 38345 38302 38280 38274 38240 38212 38200 38185 38175 38165 38151 38097 37986 37911 37882 37850 37839 37800 37779 37791 37783 37751 37761 37752 37758 37740 37673 37596 37562 37523 37520 37508 37491 37468 37469 37462 37458 37450 37445 37444 37431 37394 37357 37315 37296 37299 37298 37282 37288 37300 37294 37291 37286 37303 37314 37338 37326 37310 37308 37302 37306 37312 37303 37316 37316 37317 37308 37334 37336 37361 37360 37367 37347 37327 37324 37338 37333 37325 37330 37351 37366 37359 37365 37375 37377 37390 37391 37379 37371 37388 37375 37385 37388 37379 37402 37397 37419 37417 37420 37430 37436 37423 37401 37411 37408 37422 37433 37440 37446 37445 37444 37450 37474 37470 37481 37483 37473 37469 37475 37468 37458 37470 37461 37449 37447 37450 37445 37429 37437 37435 37437 37425 37397 37390 37391 37381 37373 37363 37371 37358 37350 37343 37353 37343 37338 37333 37314 37308 37289 37273 37278 37271 37268 37259 37253 37250 37249 37255 37259 37265 37251 37226 37199 37192 37173 37183 37183 37174 37166 37164 37165 37166 37173 37183 37163 37159 37125 37104 37088 37076 37090 37086 37079 37084 37092 37088 37111 37105 37113 37110 37101 37071 37045 37053 37049 37038 37039 37040 37043 37034 37047 37054 37028 37048 37041 37019 36992 36975 36974 36957 36969 36963 36967 36958 36969 36986 36976 37001 36993 37004 37013 36996 36972 36982 36972 36974 36991 36993 37011 37006 37018 37025 37043 37055 37076 37067 37055 37031 37038 37031 37042 37046 37067 37078 37074 37100 37100 37121 37137 37146 37161 37139 37145 37129 37142 37173 37235 37334 37470 37619 37751 37860 37942 38020 38032 38028 38044 38071 38158 38309 38454 38586 38710 38786 38886 38940 38993 39023 39086 39113 39143 39150 39168 39159 39161 39141 39087 39076 39033 39009 39012 39023 39035 39042 39012 38997 39015 39034 39087 39198 39353 39549 39727 39751 39914 40100 40289 40437 40523 40604 40694 40747 40832 40942 41061 41141 41233 41285 41305 41316 41350 41394 41423 41451 41510 41515 41490 41490 41503 41510 41555 41566 41647 41688 41741 41797 41872 41913 41892 41930 41978 42050 42073 42094 42140 42157 42122 42059 42091 42188 42239 42232 42251 42167 42068 42110 42066 42054 42016 41939 41911 41863 41776 41717 41708 41695 41700 41697 41699 41728 41773 41829 41888 41928 41954 42004 42041 42092 42136 42159 42195 42208 42233 42256 42256 42245 42255 42262 42209 42176 42129 42095 42077 42036 42020 41993 41969 41940 41919 41901 41878 41853 41843 41775 41730 41650 41586 41548 41512 41453 41402 41366 41337 41290 41261 41238 41206 41167 41102 41026 40940 40900 40855 40816 40757 40726 40688 40662 40638 40619 40596 40568 40537 40473 40401 40359 40315 40296 40272 40243 40223 40190 40167 40157 40148 40145 40134 40096 40038 39994 39964 39944 39921 39901 39873 39857 39852 39849 39824 39814 39804 39806 39754 39723 39686 39668 39652 39648 39635 39622 39613 39604 39602 39595 39601 39590 39552 39537 39513 39497 39485 39471 39470 39452 39435 39466 39451 39455 39452 39441 39428 39392 39386 39384 39367 39370 39374 39365 39365 39375 39366 39357 39362 39364 39339 39347 39329 39327 39327 39307 39310 39312 39292 39315 39302 39312 39302 39304 39294 39272 39277 39272 39264 39266 39263 39248 39257 39249 39250 39266 39264 39255 39235 39234 39224 39211 39228 39214 39209 39191 39189 39188 39188 39180 39173 39167 39158 39149 39149 39138 39152 39124 39137 39125 39108 39111 39115 39110 39094 39090 39069 39066 39046 39038 39041 39022 39026 39015 39004 39021 39002 39012 39007 38982 38967 38945 38926 38930 38930 38932 38923 38924 38924 38919 38921 38918 38905 38896 38865 38860 38852 38862 38863 38851 38838 38829 38834 38827 38834 38825 38798 38762 38740 38708 38705 38689 38668 38660 38649 38629 38624 38606 38610 38583 38561 38513 38494 38494 38494 38482 38479 38477 38504 38475 38490 38548 38577 38591 38563 38562 38545 38547 38541 38545 38576 38584 38626 38697 38780 38875 38983 39099 39196 39287 39373 39442 39518 39575 39610 39658 39681 39692 39712 39738 39750 39757 39749 39771 39777 39781 39780 39787 39789 39797 39789 39802 39812 39808 39808 39816 39820 39807 39805 39779 39775 39779 39773 39764 39763 39736 39732 39726 39712 39706 39696 39699 39684 39691 39664 39654 39618 39612 39597 39602 39614 39661 39717 39785 39873 39896 39943 39974 39981 39976 39979 39988 39993 39996 39975 39991 39992 39973 39962 39944 39938 39922 39921 39941 40083 40206 40243 40310 40397 40493 40571 40636 40673 40717 40797 40912 41054 41106 41214 41336 41451 41540 41614 41706 41771 41834 41889 41915 41954 41988 42016 42021 42028 42029 41985 41914 41860 41792 41724 41682 41611 41550 41503 41468 41440 41400 41389 41358 41285 41145 41060 40999 40931 40855 40759 40690 40650 40617 40556 40510 40488 40475 40419 40331 40229 40142 40070 40033 39981 39912 39853 39792 39769 39743 39713 39698 39690 39658 39610 39511 39416 39367 39319 39279 39226 39162 39163 39157 39132 39125 39102 39106 39077 39010 38926 38871 38833 38814 38778 38726 38699 38667 38648 38650 38651 38659 38681 38688 38673 38609 38563 38537 38508 38461 38435 38431 38417 38409 38408 38436 38419 38445 38432 38426 38403 38381 38358 38327 38303 38277 38273 38253 38230 38249 38260 38269 38268 38268 38278 38272 38230 38211 38177 38182 38203 38215 38241 38257 38253 38277 38275 38255 38247 38226 38212 38185 38145 38116 38084 38080 38079 38073 38077 38080 38087 38086 38057 38055 38028 37997 37996 38016 38037 38027 38008 38007 38028 38016 37976 37970 37941 37925 37915 37898 37861 37854 37853 37827 37818 37816 37808 37775 37791 37791 37769 37729 37707 37703 37707 37702 37713 37720 37716 37708 37682 37644 37630 37610 37561 37523 37513 37482 37474 37429 37410 37393 37382 37371 37368 37347 37334 37289 37243 37201 37199 37193 37203 37195 37188 37178 37175 37131 37122 37093 37055 36986 36918 36890 36853 36832 36813 36776 36769 36737 36703 36710 36705 36684 36641 36597 36561 36542 36526 36535 36562 36539 36519 36485 36449 36444 36424 36389 36363 36320 36302 36245 36212 36192 36185 36158 36126 36108 36138 36168 36141 36080 36054 36058 36084 36056 36051 36052 36044 36023 35995 35961 35965 35954 35942 35921 35931 35912 35903 35900 35884 35842 35820 35792 35811 35838 35836 35790 35783 35801 35823 35858 35886 35967 35987 35996 35966 35927 35923 35911 35895 35861 35873 35866 35857 35844 35831 35829 35840 35819 35803 35821 35806 35775 35758 35754 35780 35802 35857 35967 36004 36022 35990 35961 35967 35965 35980 35926 35943 35963 35958 35949 35946 35931 35933 35914 35921 35940 35933 35925 35890 35883 35903 35910 35930 35922 35918 35923 35905 35886 35882 35887 35867 35847 35834 35870 35891 35866 35859 35844 35838 35846 35823 35840 35835 35813 35794 35785 35794 35807 35820 35835 35838 35830 35799 35761 35768 35761 35774 35752 35746 35755 35774 35804 35844 35844 35854 35825 35808 35792 35777 35740 35716 35706 35701 35719 35723 35742 35713 35709 35675 35666 35652 35630 35600 35551 35512 35496 35475 35464 35468 35475 35459 35451 35445 35446 35447 35418 35381 35343 35318 35320 35343 35347 35357 35337 35313 35287 35273 35265 35253 35226 35204 35196 35185 35227 35275 35304 35303 35310 35310 35308 35312 35284 35263 35261 35265 35299 35324 35340 35313 35281 35266 35226 35212 35204 35194 35181 35217 35258 35291 35276 35272 35252 35255 35240 35206 35221 35231 35205 35173 35156 35167 35208 35225 35277 35296 35280 35263 35241 35235 35225 35198 35181 35178 35240 35294 35308 35326 35284 35297 35283 35246 35276 35293 35299 35263 35238 35225 35225 35238 35274 35344 35315 35308 35284 35272 35260 35259 35252 35247 35308 35295 35271 35257 35253 35239 35239 35240 35247 35268 35247 35221 35214 35212 35223 35250 35254 35263 35260 35223 35203 35179 35178 35159 35149 35157 35238 35328 35350 35343 35317 35300 35273 35239 35222 35239 35243 35212 35177 35166 35178 35209 35238 35340 35412 35416 35375 35342 35339 35419 35472 35476 35488 35526 35544 35521 35510 35484 35492 35455 35431 35439 35442 35414 35381 35369 35397 35422 35460 35567 35635 35657 35627 35597 35546 35547 35535 35506 35483 35548 35599 35611 35592 35580 35560 35545 35533 35528 35534 35511 35482 35451 35466 35483 35509 35546 35591 35577 35574 35539 35530 35596 35662 35679 35619 35600 35653 35669 35660 35639 35642 35639 35628 35610 35600 35594 35558 35509 35494 35505 35522 35544 35561 35565 35541 35522 35489 35536 35740 35783 35758 35733 35767 35773 35765 35749 35756 35755 35705 35706 35732 35733 35707 35673 35672 35687 35701 35729 35751 35744 35742 35737 35707 35703 35791 35813 35795 35763 35773 35774 35776 35801 35793 35790 35768 35783 35769 35776 35771 35731 35712 35695 35709 35740 35753 35743 35740 35724 35706 35680 35717 35726 35744 35784 35891 35900 35892 35877 35843 35848 35838 35815 35808 35827 35813 35764 35760 35759 35760 35771 35769 35761 35757 35772 35790 35762 35750 35774 35763 35752 35766 35805 35816 35809 35792 35757 35746 35732 35710 35697 35702 35666 35618 35615 35642 35660 35691 35754 35753 35727 35714 35665 35647 35672 35720 35779 35802 35841 35886 35864 35861 35828 35806 35809 35878 36027 36033 36025 35968 35948 35950 35953 35976 35998 36039 36016 35993 35972 35952 35934 35905 35892 35836 35831 35842 35853 35839 35816 35805 35812 35775 35768 35772 35740 35687 35648 35622 35623 35630 35657 35713 35696 35688 35654 35625 35617 35602 35567 35508 35499 35556 35591 35599 35582 35552 35527 35517 35507 35524 35492 35450 35420 35405 35411 35440 35503 35527 35528 35496 35464 35454 35519 35542 35524 35497 35522 35556 35581 35627 35669 35651 35644 35607 35600 35599 35597 35564 35524 35525 35528 35523 35548 35634 35599 35578 35551 35519 35523 35570 35561 35536 35539 35602 35664 35762 35811 35817 35801 35786 35766 35774 35746 35695 35683 35688 35735 35751 35825 35905 35911 35888 35873 35839 35837 35885 36000 36016 36049 36115 36141 36146 36162 36140 36125 36119 36087 36082 36069 36071 36004 36001 36019 36031 36036 36038 36031 36012 36014 35994 35983 35953 35921 35890 35889 35911 35938 35968 35982 35957 35958 35946 35933 35936 35958 35943 35920 35903 35884 35898 35927 35941 35950 35925 35901 35885 35889 35935 36004 36036 36076 36066 36048 36036 36071 36085 36110 36083 36074 36062 36041 36011 35992 35988 36002 36036 36109 36140 36132 36127 36097 36070 36071 36061 36052 36042 36081 36096 36086 36087 36154 36164 36164 36131 36150 36164 36125 36073 36050 36043 36040 36031 36043 36062 36050 36030 35992 35939 35903 35877 35836 35800 35784 35773 35776 35747 35741 35751 35745 35735 35735 35763 35747 35716 35654 35609 35595 35585 35591 35594 35575 35551 35518 35493 35477 35458 35481 35486 35520 35559 35564 35587 35604 35593 35573 35558 35531 35524 35521 35497 35452 35431 35403 35397 35389 35402 35361 35349 35320 35285 35301 35357 35365 35375 35436 35506 35516 35511 35518 35527 35490 35470 35454 35434 35396 35353 35331 35326 35335 35365 35406 35406 35392 35329 35299 35258 35292 35339 35362 35362 35389 35423 35430 35462 35501 35516 35489 35480 35445 35430 35405 35369 35334 35347 35342 35345 35366 35367 35381 35367 35357 35337 35318 35362 35381 35332 35311 35355 35456 35524 35549 35586 35569 35567 35548 35533 35522 35507 35483 35469 35487 35487 35510 35516 35513 35492 35495 35493 35497 35536 35544 35578 35605 35643 35661 35676 35741 35764 35757 35726 35726 35733 35720 35708 35697 35678 35686 35695 35690 35687 35715 35723 35705 35694 35669 35654 35670 35660 35672 35668 35641 35639 35657 35650 35613 35603 35592 35554 35520 35489 35473 35505 35617 35788 35878 35891 35928 35994 36037 36133 36352 36646 36975 37284 37596 37820 38059 38226 38355 38468 38553 38636 38680 38680 38661 38660 38676 38728 38780 38880 39006 39141 39250 39373 39470 39545 39629 39714 39765 39805 39771 39714 39738 39794 39841 39908 39967 40015 40045 40112 40210 40273 40328 40373 40384 40356 40334 40294 40282 40301 40306 40298 40311 40326 40318 40342 40342 40374 40393 40410 40437 40393 40366 40370 40428 40492 40527 40560 40610 40635 40675 40733 40728 40760 40779 40812 40804 40782 40696 40640 40647 40667 40681 40710 40737 40774 40809 40845 40868 40886 40927 40925 40885 40788 40738 40738 40735 40756 40790 40815 40853 40883 40886 40887 40877 40851 40806 40764 40685 40624 40647 40669 40682 40731 40785 40801 40767 40797 40751 40684 40634 40618 40577 40533 40492 40481 40527 40528 40567 40630 40683 40749 40743 40693 40642 40612 40571 40512 40381 40275 40230 40184 40178 40212 40247 40219 40197 40170 40106 40114 40168 40256 40225 40071 39962 39920 39924 39963 40086 40201 40188 40134 40139 40177 40240 40316 40371 40392 40376 40358 40422 40514 40589 40612 40627 40600 40539 40563 40614 40667 40703 40745 40762 40745 40719 40739 40755 40750 40700 40663 40648 40656 40704 40734 40731 40735 40696 40693 40655 40622 40572 40540 40498 40477 40465 40479 40472 40505 40519 40514 40513 40548 40579 40528 40440 40372 40317 40355 40321 40318 40314 40280 40293 40345 40355 40396 40409 40379 40344 40272 40196 40159 40165 40205 40208 40241 40274 40294 40326 40349 40318 40286 40282 40277 40213 40206 40213 40255 40299 40341 40357 40368 40379 40421 40361 40315 40333 40326 40334 40286 40246 40245 40289 40304 40337 40354 40353 40319 40306 40318 40308 40325 40363 40396 40366 40373 40387 40463 40574 40616 40621 40614 40591 40650 40683 40694 40741 40781 40827 40864 40863 40796 40781 40781 40774 40791 40806 40803 40822 40898 40929 40972 41013 41043 41045 40991 40920 40906 40974 41011 41032 41066 41103 41091 41154 41163 41191 41199 41178 41189 41161 41130 41140 41175 41183 41183 41177 41198 41212 41285 41292 41302 41327 41368 41410 41412 41355 41351 41422 41508 41525 41530 41563 41564 41615 41649 41674 41710 41771 41812 41813 41760 41728 41765 41839 41861 41874 41869 41888 41925 41930 41965 42011 42062 42083 42085 42023 42003 42026 42061 42068 42100 42093 42113 42121 42151 42206 42261 42316 42370 42374 42306 42236 42196 42224 42209 42188 42208 42219 42209 42268 42304 42338 42357 42357 42355 42331 42294 42268 42245 42255 42265 42274 42296 42286 42244 42260 42251 42284 42309 42339 42347 42328 42289 42270 42287 42317 42275 42272 42252 42195 42175 42183 42194 42206 42199 42210 42155 42123 42110 42100 42069 42028 41997 41967 41960 41995 42002 42012 42024 42035 42083 42030 41907 41838 41805 41791 41772 41750 41770 41738 41784 41803 41833 41837 41838 41819 41772 41683 41662 41678 41736 41731 41732 41751 41728 41771 41719 41676 41660 41652 41654 41624 41569 41567 41593 41584 41562 41581 41588 41604 41618 41691 41723 41761 41810 41838 41833 41783 41765 41765 41829 41839 41831 41832 41828 41844 41892 41871 41904 41944 41983 41998 41947 41866 41829 41834 41854 41848 41853 41882 41900 41911 41963 41984 41981 41982 41989 41922 41842 41823 41822 41859 41900 41905 41915 41877 41881 41890 41889 41897 41899 41889 41872 41868 41849 41842 41858 41906 41893 41853 41858 41863 41862 41868 41901 41938 41932 41964 41964 41951 41943 41865 41869 41846 41838 41836 41852 41851 41848 41867 41904 41937 41945 41954 41917 41840 41795 41779 41806 41824 41824 41833 41807 41837 41871 41882 41871 41840 41814 41784 41735 41714 41696 41709 41690 41706 41700 41715 41680 41663 41666 41682 41693 41714 41734 41715 41652 41599 41593 41604 41534 41513 41518 41533 41515 41541 41536 41545 41550 41547 41540 41495 41393 41291 41274 41273 41262 41299 41333 41338 41396 41428 41433 41444 41419 41403 41333 41268 41231 41228 41244 41229 41238 41279 41312 41334 41317 41244 41202 41180 41159 41154 41130 41080 41055 41076 41072 41016 40998 40969 40958 40956 40965 40970 40991 40984 40975 40948 40938 40869 40801 40773 40731 40722 40716 40759 40783 40807 40808 40824 40818 40815 40826 40796 40706 40662 40701 40729 40749 40806 40821 40861 40897 40871 40832 40831 40821 40806 40805 40750 40709 40722 40776 40838 40878 40870 40855 40763 40763 40718 40700 40763 40824 40816 40757 40696 40631 40644 40614 40648 40701 40754 40758 40811 40842 40865 40906 40921 40880 40816 40694 40631 40625 40719 40772 40786 40802 40766 40749 40700 40607 40590 40612 40622 40606 40573 40512 40506 40601 40705 40770 40753 40724 40677 40706 40753 40824 40847 40894 40939 40965 40892 40784 40722 40741 40773 40794 40826 40880 40893 40944 40965 40975 40947 40918 40930 40909 40829 40778 40792 40881 40920 40960 40950 40889 40831 40749 40719 40701 40749 40792 40813 40734 40683 40698 40728 40740 40736 40738 40754 40706 40741 40753 40762 40787 40834 40856 40735 40608 40531 40531 40624 40697 40759 40821 40818 40834 40842 40807 40759 40733 40747 40745 40678 40635 40639 40697 40766 40814 40837 40822 40758 40744 40749 40749 40790 40845 40861 40835 40801 40771 40764 40784 40782 40818 40840 40876 40921 40958 40956 40994 41018 41027 40976 40880 40784 40762 40799 40882 40917 40984 41033 41042 41097 41058 41029 41010 41014 41044 41031 40993 40980 41011 41104 41165 41182 41206 41178 41225 41236 41269 41313 41333 41386 41406 41410 41328 41300 41310 41373 41387 41448 41497 41524 41572 41593 41639 41666 41682 41690 41665 41609 41567 41564 41607 41619 41647 41706 41738 41758 41749 41738 41754 41784 41814 41806 41761 41731 41759 41805 41859 41882 41893 41908 41873 41892 41927 41945 41994 42029 42047 42008 41949 41926 41928 41945 41963 42020 42088 42061 42044 42074 42106 42155 42149 42116 42072 42032 41995 42002 42038 42060 42094 42137 42125 42104 42096 42077 42058 42070 42115 42109 42061 42013 41998 42008 42039 42018 41992 41978 41970 41997 41976 41992 41990 42007 42018 41988 41893 41809 41720 41722 41739 41773 41821 41846 41863 41875 41829 41798 41729 41680 41635 41610 41542 41480 41467 41493 41514 41530 41556 41530 41482 41442 41386 41370 41360 41368 41381 41342 41292 41222 41156 41148 41114 41148 41184 41208 41237 41279 41265 41254 41247 41218 41144 41041 40983 40943 40971 41037 41099 41150 41178 41203 41239 41201 41132 41090 41063 41089 41109 41063 41016 40956 40951 40983 41004 41005 41037 41033 41052 41103 41105 41102 41134 41148 41119 41032 40904 40813 40830 40916 40995 41046 41081 41113 41200 41215 41171 41129 41096 41093 41104 41038 40975 40962 41046 41114 41166 41197 41182 41133 41165 41126 41154 41170 41190 41226 41217 41156 41083 41014 41003 41058 41120 41168 41208 41249 41314 41342 41359 41340 41327 41309 41289 41243 41194 41113 41093 41126 41151 41165 41180 41205 41238 41264 41272 41308 41316 41310 41332 41360 41341 41298 41243 41215 41216 41286 41319 41386 41433 41468 41531 41539 41553 41527 41505 41501 41536 41562 41542 41431 41378 41321 41350 41404 41434 41379 41362 41395 41480 41486 41414 41433 41506 41626 41744 41858 41923 41915 41886 41884 41887 41904 41962 42066 42114 42161 42164 42183 42207 42227 42227 42267 42277 42304 42321 42322 42363 42338 42319 42301 42282 42279 42291 42342 42382 42413 42431 42445 42395 42339 42334 42364 42343 42374 42306 42328 42442 42543 42585 42633 42641 42623 42624 42636 42644 42642 42646 42651 42664 42682 42696 42642 42598 42538 42503 42476 42475 42460 42456 42444 42444 42427 42390 42313 42267 42251 42244 42242 42234 42215 42223 42212 42223 42188 42109 42033 41990 41967 41959 41961 41947 41928 41929 41919 41895 41826 41740 41682 41659 41649 41652 41635 41607 41608 41608 41587 41498 41441 41346 41326 41314 41307 41308 41307 41288 41272 41264 41218 41126 41050 40986 40953 40934 40912 40895 40869 40861 40853 40797 40713 40623 40575 40548 40536 40532 40509 40499 40482 40465 40440 40362 40286 40228 40213 40229 40223 40212 40184 40197 40190 40165 40134 40061 40029 40006 39996 40009 39990 40000 40006 39991 39985 39943 39898 39851 39822 39823 39815 39816 39798 39802 39806 39798 39761 39731 39676 39658 39658 39661 39656 39665 39643 39626 39630 39613 39571 39540 39537 39533 39531 39520 39516 39509 39502 39514 39502 39484 39453 39428 39436 39432 39431 39423 39425 39413 39412 39386 39376 39349 39325 39340 39334 39329 39332 39306 39313 39303 39292 39278 39237 39241 39228 39220 39252 39238 39243 39242 39242 39256 39249 39226 39227 39225 39221 39236 39245 39243 39260 39249 39252 39242 39224 39217 39213 39212 39242 39252 39247 39260 39244 39257 39247 39230 39218 39223 39233 39246 39254 39245 39266 39272 39299 39280 39264 39245 39249 39233 39249 39259 39256 39277 39258 39276 39273 39239 39215 39216 39208 39224 39253 39280 39321 39381 39458 39547 39589 39614 39660 39688 39751 39779 39815 39832 39837 39835 39849 39846 39793 39768 39778 39772 39775 39766 39758 39748 39765 39753 39751 39732 39716 39698 39673 39654 39636 39612 39606 39581 39565 39558 39536 39510 39493 39465 39456 39449 39435 39440 39417 39419 39394 39389 39360 39343 39324 39331 39321 39318 39303 39304 39306 39308 39310 39295 39271 39260 39265 39265 39281 39309 39342 39411 39477 39564 39610 39658 39688 39713 39730 39735 39740 39744 39750 39766 39768 39800 39812 39812 39799 39806 39810 39813 39790 39782 39778 39780 39770 39745 39711 39695 39677 39674 39672 39638 39648 39636 39614 39598 39555 39532 39495 39475 39458 39446 39430 39422 39407 39415 39477 39492 39539 39572 39618 39687 39773 39814 39873 39931 39986 40019 40057 40044 40024 40015 40024 40061 40112 40152 40186 40199 40207 40222 40185 40142 40112 40102 40091 40076 40064 40046 40030 40022 40017 39991 39948 39902 39887 39893 39926 39923 39933 39931 39935 39925 39902 39865 39812 39783 39782 39803 39825 39832 39848 39822 39832 39817 39784 39734 39716 39711 39754 39777 39776 39769 39768 39773 39774 39746 39686 39657 39655 39668 39691 39703 39722 39730 39726 39741 39730 39663 39605 39564 39564 39562 39571 39557 39553 39540 39544 39555 39513 39441 39399 39379 39372 39372 39364 39357 39339 39334 39330 39315 39292 39217 39198 39210 39245 39263 39285 39292 39314 39336 39341 39301 39251 39220 39226 39259 39287 39298 39313 39340 39335 39373 39345 39271 39240 39226 39242 39274 39294 39302 39298 39319 39344 39347 39306 39236 39222 39229 39251 39265 39265 39280 39268 39270 39295 39294 39239 39177 39169 39184 39230 39238 39251 39255 39249 39254 39267 39256 39190 39142 39141 39143 39177 39203 39235 39238 39260 39300 39344 39350 39314 39289 39309 39351 39407 39422 39449 39473 39494 39520 39536 39497 39451 39415 39424 39457 39501 39512 39517 39547 39586 39617 39633 39594 39527 39500 39502 39525 39541 39531 39521 39475 39456 39435 39402 39307 39210 39131 39095 39061 39026 38960 38899 38831 38782 38731 38684 38576 38473 38361 38312 38275 38239 38177 38122 38070 38014 37974 37908 37798 37681 37616 37554 37516 37480 37424 37366 37328 37292 37263 37194 37089 37005 36938 36904 36921 36903 36857 36834 36814 36797 36796 36733 36639 36580 36573 36582 36598 36583 36568 36561 36543 36541 36516 36437 36365 36323 36316 36312 36311 36303 36292 36263 36245 36254 36230 36164 36103 36077 36078 36087 36072 36077 36074 36062 36055 36053 36040 35975 35920 35897 35930 35944 35952 35958 35948 35964 35977 35980 35945 35890 35872 35877 35900 35939 35948 35950 35958 35974 35997 36016 35984 35938 35948 35963 36002 36015 36028 36014 36014 36002 35996 35975 35948 35906 35877 35885 35876 35895 35877 35879 35858 35842 35839 35827 35804 35753 35752 35749 35739 35742 35745 35725 35721 35710 35713 35710 35680 35652 35664 35669 35693 35699 35695 35699 35716 35714 35736 35717 35705 35715 35739 35766 35811 35819 35820 35819 35825 35830 35851 35832 35805 35805 35831 35845 35866 35860 35876 35868 35875 35889 35882 35871 35841 35815 35847 35836 35831 35809 35787 35798 35800 35780 35779 35727 35709 35685 35693 35691 35694 35671 35663 35660 35662 35665 35660 35627 35597 35601 35596 35614 35617 35636 35657 35663 35684 35686 35704 35671 35679 35697 35740 35766 35778 35781 35805 35807 35823 35809 35792 35753 35769 35797 35840 35851 35853 35870 35869 35888 35901 35912 35885 35873 35870 35898 35906 35923 35919 35915 35899 35897 35891 35896 35866 35840 35820 35834 35847 35835 35836 35823 35825 35812 35827 35816 35817 35793 35780 35802 35816 35846 35863 35867 35873 35848 35868 35849 35848 35810 35791 35801 35798 35808 35816 35799 35796 35805 35788 35806 35791 35766 35764 35764 35780 35809 35866 35899 35906 35948 35979 36008 36041 36034 36039 36054 36080 36120 36160 36167 36180 36174 36167 36150 36127 36092 36059 36033 36037 36057 36071 36075 36060 36052 36042 36029 36036 36004 35977 35939 35942 35946 35976 35972 35964 35968 35980 35988 35997 35973 35924 35898 35904 35924 35958 35964 35980 36002 36017 36057 36084 36095 36078 36046 36059 36089 36153 36179 36213 36207 36220 36240 36238 36248 36234 36193 36160 36155 36183 36200 36208 36217 36200 36208 36209 36182 36169 36116 36089 36041 36047 36056 36044 36039 36036 36041 36069 36091 36118 36156 36173 36156 36140 36116 36111 36090 36101 36102 36102 36081 36123 36239 36399 36604 36755 36879 36964 37035 37049 37092 37117 37145 37175 37192 37171 37153 37145 37138 37168 37202 37253 37344 37445 37526 37603 37734 37825 37852 37859 37838 37832 37800 37778 37800 37841 37853 37867 37841 37808 37795 37777 37769 37785 37784 37777 37793 37796 37818 37865 37897 37889 37900 37890 37896 37921 37950 37970 38001 38037 38043 38064 38086 38135 38177 38240 38357 38488 38652 38932 39339 39904 40467 40889 41270 41517 41408 41318 41257 41193 41037 41044 41098 41187 41340 41476 41616 41738 41771 41791 41778 41812 41821 41821 41780 41735 41708 41692 41670 41653 41634 41588 41509 41411 41312 41263 41211 41138 41031 40956 40887 40852 40801 40777 40663 40555 40432 40291 40213 40136 40075 39983 39882 39811 39762 39700 39638 39601 39463 39296 39195 39099 38995 38907 38828 38772 38727 38703 38693 38685 38647 38548 38468 38343 38224 38135 38072 37999 37919 37846 37786 37731 37670 37633 37625 37522 37380 37275 37202 37180 37175 37165 37140 37083 37010 36973 36946 36891 36790 36661 36539 36489 36446 36442 36403 36320 36232 36158 36131 36127 36162 36212 36303 36478 36500 36568 36656 36836 37011 37268 37555 37827 38057 38242 38342 38452 38514 38566 38585 38617 38616 38626 38662 38703 38741 38814 38971 39106 39231 39356 39443 39507 39566 39590 39590 39604 39584 39596 39645 39658 39721 39834 39984 40121 40278 40421 40513 40588 40627 40664 40634 40654 40677 40755 40809 40843 40890 40966 41037 41179 41260 41330 41410 41472 41500 41489 41505 41510 41588 41602 41634 41673 41735 41762 41862 41904 41962 42022 42063 42081 42076 42060 42059 42108 42108 42129 42181 42180 42233 42267 42301 42328 42368 42383 42386 42341 42303 42294 42328 42311 42338 42382 42391 42433 42433 42444 42434 42431 42444 42402 42368 42317 42337 42305 42291 42296 42314 42359 42361 42332 42301 42277 42254 42234 42189 42104 42063 42030 41981 41970 42024 42045 42135 42176 42161 42092 42030 41982 41926 41857 41816 41755 41734 41743 41756 41778 41855 41905 41920 41913 41871 41806 41720 41654 41575 41519 41464 41486 41543 41577 41592 41659 41673 41682 41684 41697 41652 41567 41472 41419 41339 41342 41404 41440 41454 41497 41544 41530 41555 41562 41570 41552 41447 41420 41426 41432 41451 41509 41502 41535 41578 41634 41682 41714 41727 41619 41525 41470 41473 41452 41482 41530 41520 41611 41672 41725 41787 41804 41777 41679 41656 41595 41543 41479 41508 41526 41594 41665 41815 41914 42022 42114 42202 42223 42169 42115 42122 42132 42128 42112 42122 42128 42200 42252 42328 42382 42439 42440 42411 42350 42363 42336 42317 42317 42347 42330 42379 42437 42501 42580 42630 42635 42574 42536 42538 42502 42481 42484 42523 42467 42537 42592 42674 42744 42778 42811 42778 42733 42712 42692 42666 42678 42697 42677 42694 42758 42837 42892 42898 42916 42898 42862 42814 42785 42772 42752 42768 42770 42810 42866 42895 42876 42858 42840 42796 42751 42710 42714 42689 42645 42640 42626 42582 42534 42500 42461 42439 42383 42279 42224 42195 42173 42146 42158 42164 42195 42257 42294 42305 42300 42322 42284 42188 42161 42140 42148 42056 42030 42097 42162 42197 42275 42305 42286 42278 42321 42315 42291 42244 42253 42238 42209 42181 42171 42180 42187 42230 42272 42319 42366 42361 42330 42276 42254 42246 42226 42216 42175 42148 42191 42232 42282 42337 42366 42376 42347 42302 42284 42244 42195 42165 42145 42122 42180 42248 42290 42330 42382 42410 42410 42341 42287 42238 42165 42150 42177 42188 42274 42347 42407 42464 42515 42508 42434 42379 42349 42310 42269 42269 42295 42289 42321 42398 42484 42539 42596 42591 42507 42449 42451 42452 42409 42386 42401 42425 42459 42548 42585 42614 42659 42654 42571 42556 42550 42533 42514 42503 42527 42525 42592 42646 42656 42683 42752 42817 42833 42864 42864 42846 42808 42768 42796 42817 42825 42904 42946 42994 43044 43090 43095 43071 43051 43049 43000 43002 43011 43035 43039 43092 43155 43208 43273 43311 43354 43342 43310 43278 43260 43192 43166 43162 43146 43194 43223 43252 43294 43324 43360 43313 43237 43175 43126 43077 43056 43065 43044 43057 43091 43124 43151 43129 43094 43043 42962 42901 42861 42810 42782 42783 42808 42827 42834 42856 42829 42830 42831 42814 42752 42708 42670 42603 42594 42637 42636 42574 42582 42573 42577 42594 42632 42655 42624 42592 42564 42528 42481 42412 42390 42347 42383 42423 42425 42450 42469 42500 42479 42398 42289 42227 42173 42138 42147 42145 42199 42274 42322 42369 42383 42365 42303 42200 42093 42039 42019 42022 42043 42072 42115 42180 42172 42113 42048 42030 42018 41988 41936 41888 41869 41843 41854 41864 41853 41837 41812 41804 41814 41860 41891 41865 41832 41804 41821 41818 41789 41735 41711 41735 41728 41742 41796 41836 41865 41837 41765 41642 41541 41483 41487 41512 41503 41564 41572 41599 41623 41655 41621 41474 41347 41293 41285 41310 41341 41368 41382 41462 41469 41449 41409 41417 41422 41360 41265 41229 41213 41210 41213 41250 41213 41198 41109 41042 41029 41061 41097 40992 40961 40955 40959 40931 40909 40903 40895 40954 40976 40966 40936 41006 41027 40947 40878 40775 40715 40673 40654 40690 40764 40921 40976 41053 41130 41169 41160 41019 40959 40906 40919 40958 40994 41071 41158 41288 41255 41255 41256 41292 41328 41282 41260 41229 41254 41298 41331 41293 41294 41324 41307 41328 41356 41404 41431 41393 41353 41322 41297 41267 41264 41278 41286 41396 41414 41451 41505 41570 41572 41401 41304 41222 41236 41259 41320 41403 41447 41558 41617 41593 41559 41549 41549 41484 41443 41429 41522 41567 41640 41694 41649 41691 41662 41648 41696 41745 41759 41689 41653 41583 41538 41489 41475 41500 41522 41602 41636 41664 41721 41784 41774 41610 41511 41425 41472 41519 41558 41620 41683 41798 41840 41815 41819 41810 41823 41754 41704 41652 41681 41671 41723 41734 41674 41685 41662 41704 41744 41820 41844 41821 41822 41850 41846 41819 41808 41849 41865 41951 42002 42057 42100 42157 42130 42044 41967 41933 41962 41989 42025 42070 42104 42188 42179 42164 42159 42185 42196 42145 42123 42089 42104 42125 42163 42135 42085 42134 42133 42203 42283 42340 42406 42335 42304 42245 42238 42216 42250 42285 42303 42384 42426 42495 42568 42561 42523 42414 42333 42318 42350 42382 42426 42461 42525 42553 42523 42555 42590 42637 42661 42627 42586 42615 42645 42655 42664 42647 42658 42685 42726 42772 42801 42796 42753 42676 42614 42605 42589 42604 42634 42652 42710 42762 42792 42838 42840 42836 42724 42669 42641 42650 42671 42725 42755 42766 42789 42763 42719 42764 42782 42747 42640 42601 42581 42570 42511 42439 42387 42403 42532 42580 42600 42631 42633 42622 42504 42399 42358 42379 42403 42437 42471 42510 42593 42610 42558 42506 42497 42439 42364 42305 42321 42342 42371 42422 42431 42435 42408 42356 42340 42378 42423 42433 42376 42361 42325 42297 42296 42314 42342 42385 42443 42453 42476 42476 42409 42260 42172 42107 42112 42144 42215 42260 42307 42390 42315 42221 42144 42128 42152 42104 42082 42029 42040 42034 41984 41916 41870 41937 42008 42008 42018 42028 42038 41953 41873 41764 41694 41674 41733 41765 41786 41918 42005 42006 41946 41934 41899 41810 41806 41806 41805 41804 41846 41865 41857 41906 41942 41955 42020 42135 42258 42346 42362 42319 42252 42180 42181 42190 42196 42299 42365 42413 42475 42475 42440 42314 42247 42199 42166 42168 42197 42249 42302 42379 42385 42371 42376 42439 42444 42355 42335 42341 42322 42298 42277 42289 42340 42442 42492 42499 42537 42552 42491 42384 42296 42249 42241 42231 42254 42279 42344 42473 42500 42494 42445 42428 42384 42293 42289 42307 42316 42318 42299 42323 42356 42469 42470 42472 42478 42570 42600 42600 42596 42588 42576 42527 42551 42579 42672 42745 42832 42925 42999 43029 42992 42891 42880 42908 42893 42862 42908 42928 42974 42992 43010 43001 42934 42911 42813 42794 42812 42850 42841 42797 42774 42802 42875 42926 42882 42866 42910 42846 42775 42692 42675 42654 42653 42627 42636 42636 42678 42695 42665 42581 42537 42440 42407 42394 42426 42415 42391 42383 42389 42386 42388 42361 42341 42326 42311 42256 42230 42227 42265 42200 42154 42172 42243 42334 42402 42420 42396 42335 42277 42152 42114 42110 42185 42168 42132 42167 42219 42242 42243 42184 42144 42143 42129 42119 42132 42210 42261 42277 42252 42265 42325 42405 42456 42533 42545 42562 42546 42477 42354 42296 42353 42302 42283 42356 42445 42565 42556 42542 42452 42381 42340 42336 42330 42378 42348 42339 42378 42411 42465 42459 42471 42468 42485 42504 42483 42450 42377 42340 42264 42249 42280 42370 42426 42452 42433 42383 42327 42282 42168 42109 42129 42148 42176 42220 42284 42300 42293 42229 42232 42204 42213 42200 42124 42105 42121 42136 42078 42083 42125 42207 42292 42333 42389 42434 42440 42399 42307 42289 42300 42325 42334 42375 42450 42547 42597 42567 42556 42586 42610 42631 42633 42614 42627 42661 42640 42613 42642 42676 42786 42828 42902 42966 43017 43007 42915 42881 42857 42803 42800 42855 42913 42989 43053 43056 43064 43042 43062 43080 43055 43054 43057 43068 43025 43019 43013 43041 43131 43160 43241 43280 43303 43359 43306 43241 43206 43229 43182 43178 43234 43277 43360 43397 43389 43386 43359 43374 43351 43296 43304 43295 43313 43275 43252 43275 43313 43353 43365 43412 43466 43512 43513 43426 43327 43320 43272 43300 43317 43360 43411 43452 43458 43434 43404 43407 43396 43337 43299 43287 43317 43299 43263 43259 43244 43286 43303 43315 43324 43311 43322 43237 43139 43024 43010 42993 42959 42993 43041 43114 43180 43128 43066 42993 42946 42909 42873 42825 42765 42758 42735 42690 42619 42586 42598 42623 42694 42689 42712 42720 42659 42581 42503 42468 42429 42418 42416 42473 42480 42501 42486 42476 42473 42439 42454 42474 42476 42472 42466 42435 42286 42156 42098 42107 42182 42194 42218 42290 42334 42286 42223 42156 42130 42129 42137 42143 42154 42155 42088 42001 41946 41942 41940 41961 42012 42115 42173 42214 42172 42120 42073 42044 42039 42016 42031 42056 42083 42104 42073 42040 42025 42009 42050 42039 42027 42012 42071 42066 42104 42280 42243 42292 42340 42353 42384 42425 42453 42470 42493 42483 42481 42541 42573 42610 42748 42787 42819 42824 42819 42850 42889 42918 42955 42985 43048 43110 43192 43279 43322 43338 43385 43361 43368 43436 43466 43511 43528 43549 43561 43591 43577 43605 43582 43565 43571 43578 43576 43597 43637 43651 43689 43671 43705 43752 43774 43805 43850 43974 44107 44312 44456 44539 44620 44617 44543 44454 44355 44286 44267 44275 44273 44237 44157 44068 43964 43864 43763 43790 43855 43998 44113 44133 44188 44128 44062 44048 44091 44135 44160 44179 44181 44183 44175 44133 44178 44162 44124 44109 44137 44193 44284 44334 44255 44136 44039 43974 43947 43914 43902 43919 43916 43878 43794 43718 42362 42354 42378 42385 42375 42295 42240 42232 42239 42279 42284 42313 42323 42336 42303 42232 42197 42207 42218 42254 42258 42256 42282 42293 42230 42162 42141 42149 42161 42194 42198 42210 42231 42220 42151 42105 42080 42088 42119 42138 42146 42152 42176 42141 42076 42050 42055 42065 42093 42108 42128 42153 42163 42103 42046 42028 42026 42058 42100 42096 42114 42151 42163 42105 42054 42047 42053 42084 42117 42126 42150 42162 42153 42116 42066 42057 42069 42089 42126 42121 42157 42185 42143 42073 42020 42020 42055 42078 42094 42101 42111 42141 42087 42039 41994 42016 42027 42047 42077 42105 42114 42131 42073 42025 42015 42042 42067 42093 42111 42138 42153 42163 42109 42066 42077 42100 42104 42123 42172 42189 42204 42216 42174 42139 42136 42173 42174 42202 42209 42236 42251 42261 42191 42140 42149 42170 42228 42252 42289 42325 42358 42371 42329 42284 42280 42297 42319 42336 42350 42349 42342 42330 42249 42203 42180 42172 42200 42199 42198 42193 42181 42166 42089 42012 41977 41958 41963 41957 41957 41940 41934 41931 41856 41789 41777 41748 41776 41774 41778 41774 41801 41804 41722 41662 41622 41636 41654 41671 41688 41712 41762 41797 41750 41728 41729 41772 41850 41917 41956 42017 42043 42083 42060 42072 42107 42134 42191 42265 42303 42355 42393 42448 42429 42431 42408 42438 42469 42515 42547 42569 42612 42645 42645 42599 42594 42596 42615 42667 42686 42715 42731 42768 42758 42716 42693 42670 42688 42694 42695 42713 42708 42711 42700 42641 42615 42597 42634 42643 42668 42676 42693 42710 42713 42667 42641 42631 42642 42656 42679 42708 42716 42734 42749 42702 42644 42636 42626 42651 42709 42755 42785 42826 42870 42802 42784 42775 42765 42787 42788 42803 42832 42836 42857 42831 42816 42801 42812 42831 42859 42873 42894 42923 42949 42930 42921 42901 42904 42931 42950 42977 43009 43027 43043 43023 42983 42989 43009 43031 43074 43105 43113 43145 43175 43157 43112 43096 43102 43123 43149 43178 43196 43202 43247 43224 43203 43177 43200 43205 43244 43251 43280 43293 43318 43318 43259 43226 43215 43222 43221 43221 43241 43239 43241 43223 43158 43118 43089 43095 43094 43111 43124 43136 43137 43148 43077 43045 43059 43057 43068 43068 43069 43072 43071 43061 43010 42953 42961 42966 42974 42968 42968 42956 42974 42976 42917 42885 42867 42880 42901 42924 42930 42959 42981 43002 42940 42896 42900 42918 42942 42959 42958 42968 42975 42964 42905 42824 42789 42774 42794 42793 42797 42798 42810 42789 42748 42687 42665 42661 42684 42697 42711 42712 42742 42735 42682 42624 42590 42603 42627 42642 42627 42637 42629 42644 42603 42527 42471 42460 42449 42435 42437 42413 42411 42389 42366 42314 42267 42287 42310 42405 42477 42556 42615 42669 42715 42704 42703 42726 42749 42785 42807 42840 42880 42902 42926 42907 42874 42903 42968 43005 43066 43153 43226 43418 43490 43422 43313 43246 43260 43269 43314 43313 43300 43277 43244 43236 43246 43247 43271 43294 43323 43351 43383 43431 43431 43449 43452 43436 43445 43381 43387 43438 43504 43597 43606 43616 43621 43617 43632 43639 43677 43698 43728 43767 43792 43807 43860 43848 43867 43879 43905 43929 43949 43971 44002 44050 44053 44061 44062 44065 44091 44121 44133 44196 44237 44291 44337 44395 44441 44481 44529 44660 44797 44854 44675 44435 44209 44144 44048 44006 43950 43889 43829 43746 43759 43767 43739 43684 43624 43503 43389 43304 43292 43325 43325 43278 43139 43075 43029 42922 42778 42660 42602 42562 42534 42511 42459 42437 42425 42378 42285 42171 42133 42108 42110 42115 42109 42088 42085 42080 42040 41941 41836 41756 41724 41690 41646 41590 41544 41491 41450 41316 41167 41059 41004 40962 40917 40865 40800 40758 40712 40633 40496 40368 40293 40236 40217 40193 40171 40140 40127 40130 40077 39988 39862 39828 39808 39795 39791 39747 39738 39720 39722 39674 39607 39539 39493 39466 39501 39653 39852 40077 40232 40310 40242 40222 40227 40246 40373 40486
32 32 32 32 32 32 32 32 32 32 32 32 32 32 32 32 32 32 32 32 31 32 33 32 32 31 31 32 31 31 31 32 32 32 32 32 32 31 31 31 31 32 32 32 32 32 32 32 31 31 32 32 32 32 30 30 31 32 28 26 26 32 40 38 36 38 37 35 33 31 33 33 30 29 29 30 31 36 37 32 31 31 31 33 33 32 32 32 33 31 31 32 31 32 32 32 32 32 32 32 32 32 32 32 32 32 32 32 32 32 32 32 31 32 32 32 31 31 31 31 32 31 32 31 31 32 32 32 32 32 32 32 31 32 32 32 32 32 32 32 32 32 32 32 32 32 32 32 32 32 32 32 32 32 32 32 32 32 32 32 32 32 32 32 32 32 32 32 32 32 32 32 32 32 32 32 32 32 32 32 32 32 32 32 32 32 32 32 32 32 32 32 32 32 32 32 32 32 32 32 32 32 32 32 32 32 31 31 31 32 32 32 32 32 32 32 32 32 32 32 32 32 32 31 32 32 32 31 32 31 32 32 32 31 31 31 32 32 31 31 32 31 32 31 32 32 32 32 31 31 31 32 32 32 32 31 31 32 32 32 32 32 32 32 32 31 32 31 31 32 31 31 31 32 31 32 32 32 31 31 32 32 32 31 32 31 31 31 32 32 31 32 32 31 31 32 31 31 32 31 31 32 32 32 32 32 31 32 32 32 31 31 32 32 32 32 31 31 32 31 32 32 32 32 32 32 32 32 32 32 32 31 32 32 32 32 32 32 31 32 32 32 31 32 32 32 32 32 32 32 32 32 31 31 31 31 32 31 31 31 31 31 32 32 32 31 31 31 31 31 31 32 31 32 31 32 32 32 33 33 33 35 33 31 31 31 30 31 32 32 32 33 34 34 33 32 33 33 33 32 32 32 31 32 34 34 33 32 32 31 31 31 30 32 32 32 31 31 31 31 32 31 31 34 32 32 32 31 32 32 31 32 32 33 35 31 31 31 31 32 32 32 32 32 32 33 33 32 32 32 31 31 30 31 32 32 32 31 32 32 32 34 36 35 34 26 29 29 31 33 31 33 34 33 31 31 31 30 34 34 34 33 32 32 32 32 32 33 33 32 32 31 31 31 31 31 31 32 31 31 31 32 32 31 31 32 32 32 32 31 32 32 31 31 32 31 31 31 32 32 32 32 32 32 31 31 31 31 31 33 32 32 32 32 32 31 32 31 31 31 31 31 31 31 31 32 31 31 32 31 32 31 31 32 33 32 33 33 32 31 32 32 31 33 33 32 32 32 31 32 31 31 32 31 31 31 32 33 32 31 31 33 31 32 31 31 33 32 32 31 32 33 32 32 31 31 32 32 32 31 32 32 31 31 31 31 31 32 31 32 31 32 32 32 32 32 32 33 32 32 32 32 32 32 32 32 32 31 32 32 32 32 32 31 31 31 32 31 32 32 33 32 32 32 32 32 31 32 31 31 32 31 31 31 31 32 32 32 32 32 31 31 31 31 31 32 31 32 31 32 31 31 32 33 31 31 32 31 32 32 32 32 32 32 32 32 32 32 32 32 32 32 32 32 32 32 32 32 31 32 32 32 32 32 32 32 32 32 32 32 32 32 32 32 32 32 32 32 32 32 32 32 32 32 32 32 32 32 32 32 32 32 32 32 32 32 32 32 32 32 32 32 31 32 31 31 32 32 31 31 32 32 32 32 31 32 32 32 32 32 32 32 31 32 32 32 32 32 32 32 32 32 32 31 32 32 32 32 32 32 32 32 32 32 32 32 31 32 32 32 32 32 32 32 32 32 32 32 32 32 32 32 32 32 32 31 31 31 32 32 31 31 32 32 31 31 31 32 33 31 29 32 32 32 33 32 32 32 31 31 33 35 37 31 31 31 28 27 25 26 27 28 26 27 38 38 38 38 36 35 34 33 31 32 34 34 33 30 32 31 30 31 31 31 31 31 32 33 33 32 32 32 33 37 34 32 34 38 40 37 33 31 31 30 29 27 27 27 31 34 38 33 31 35 38 38 35 33 31 30 29 30 30 44 40 39 40 43 40 34 29 28 28 28 29 29 29 33 36 35 36 38 40 42 41 38 35 33 31 29 30 31 39 39 38 38 41 40 36 33 32 30 28 28 29 30 32 35 32 31 35 38 38 36 35 38 36 31 30 31 34 37 38 42 45 43 39 35 31 28 26 25 24 26 30 32 33 39 41 41 40 39 38 36 34 33 33 36 39 37 36 46 47 41 36 32 31 28 26 24 25 31 34 33 36 40 41 41 40 38 35 32 29 31 36 42 38 36 40 46 46 34 33 31 27 26 25 27 30 29 31 37 42 41 37 38 39 37 34 34 34 37 38 35 35 41 46 44 37 32 28 26 26 27 31 32 31 33 38 40 38 35 35 35 34 34 35 38 39 35 34 39 45 41 35 32 32 30 26 25 32 34 30 32 37 41 40 35 34 34 34 32 36 42 42 34 28 34 45 47 40 34 30 28 26 24 25 28 33 33 33 36 37 36 35 34 35 34 34 37 43 42 35 32 38 45 45 38 31 28 25 23 23 25 30 38 38 36 39 36 34 34 33 31 33 38 43 40 34 37 43 46 41 34 30 28 25 22 25 30 34 35 34 36 40 42 38 35 33 31 32 36 40 41 36 32 37 44 45 40 33 30 29 28 28 30 30 30 30 30 35 39 41 39 36 36 35 33 41 38 35 38 44 46 41 35 31 30 26 24 26 30 35 34 33 36 40 43 40 36 35 33 31 33 37 40 39 35 40 45 43 38 32 28 25 25 29 34 38 40 37 33 37 43 45 40 35 34 35 33 35 40 43 40 38 39 44 41 33 28 26 29 31 33 35 34 32 33 37 41 42 38 40 41 39 41 43 44 40 38 42 47 46 38 30 26 27 27 30 31 34 36 33 34 40 44 42 36 35 35 33 34 38 42 39 34 34 43 49 46 38 31 28 26 25 28 33 32 32 37 42 44 39 35 34 33 33 38 43 45 40 31 32 40 46 43 37 32 29 27 25 27 30 36 36 35 39 42 40 37 36 36 35 37 41 44 38 33 36 44 49 46 38 32 29 25 24 27 29 32 34 32 35 42 46 40 36 34 33 32 34 39 44 42 37 36 40 46 43 36 30 26 23 21 23 27 34 39 38 38 41 43 40 34 31 32 37 41 43 38 35 39 46 46 39 31 26 24 21 24 29 32 36 36 36 39 44 44 37 32 31 31 31 34 41 43 39 35 39 43 43 37 31 28 25 25 27 29 33 35 32 29 34 43 48 41 35 33 33 32 36 41 43 38 42 49 45 37 32 28 26 25 28 30 33 34 32 31 36 47 47 39 34 35 32 29 33 42 45 39 37 42 47 39 33 30 26 26 29 30 33 36 34 33 38 43 43 39 36 36 34 34 37 41 41 37 35 39 46 46 39 33 30 26 29 30 35 36 33 35 40 46 43 37 36 35 32 32 35 39 41 39 37 39 44 45 39 31 28 25 24 25 34 38 37 36 38 42 43 40 35 33 32 31 33 37 41 42 37 39 43 47 44 35 29 26 24 23 25 28 32 36 40 43 43 39 34 33 33 33 37 41 43 36 31 36 43 45 39 34 30 26 25 25 29 33 36 36 34 37 41 42 37 35 33 31 33 38 41 42 38 32 35 42 45 42 35 31 27 24 25 28 31 36 38 36 38 41 43 40 36 33 35 40 42 37 36 40 46 45 39 33 29 25 24 27 30 33 37 36 35 38 44 44 40 37 35 33 31 33 43 44 38 36 42 49 47 40 34 29 24 23 26 30 36 39 38 37 40 44 44 40 37 35 32 33 37 43 45 42 53 48 38 28 25 24 21 22 24 30 37 40 45 48 51 46 40 35 33 32 30 33 37 43 43 39 42 50 53 41 33 30 27 22 23 26 33 35 36 39 46 49 48 41 35 33 31 32 35 42 44 39 35 40 46 48 41 34 28 23 28 33 38 37 36 39 42 41 38 33 33 39 40 39 43 47 45 44 49 52 46 37 28 23 19 20 24 29 42 41 41 43 46 43 37 34 35 36 37 39 41 40 35 36 45 53 50 42 35 31 27 24 25 26 31 39 42 37 37 41 41 37 34 35 34 35 37 40 41 34 31 38 52 53 43 34 31 29 29 32 34 37 39 35 33 34 36 35 35 34 34 37 41 43 38 35 40 46 45 39 32 29 26 27 30 32 36 36 33 35 39 44 43 36 35 34 33 37 42 43 40 37 43 47 46 39 32 27 26 25 28 31 35 37 37 37 39 43 42 38 35 32 31 29 31 34 38 42 47 50 44 36 33 32 29 27 27 28 31 35 34 33 35 40 46 46 40 34 32 32 31 33 39 41 40 42 44 39 34 31 29 27 27 28 29 31 28 29 35 42 44 42 39 37 34 31 32 35 39 35 34 41 47 44 36 32 31 28 27 26 28 32 32 36 40 43 40 38 38 37 32 33 38 38 39 45 48 46 43 39 33 29 27 28 30 38 46 45 40 35 33 32 31 38 53 64 59 42 27 18 17 20 28 44 59 59 46 34 33 35 36 38 50 61 56 23 20 20 32 55 70 57 39 33 30 27 31 48 66 62 40 26 22 24 29 44 63 66 49 38 36 31 28 45 71 60 36 25 23 23 31 49 65 58 42 34 32 29 34 51 63 57 38 26 22 22 33 59 67 52 41 38 33 27 72 54 33 22 20 22 37 62 64 47 40 39 33 30 42 63 66 48 31 25 25 24 41 68 73 52 43 40 35 38 59 73 57 37 32 31 27 40 70 72 53 44 41 33 26 40 67 73 51 28 22 23 25 40 61 61 46 37 35 37 57 72 61 37 27 26 24 30 57 72 57 41 38 34 27 39 65 75 56 32 24 23 22 38 64 72 53 36 29 25 43 73 76 52 31 28 30 28 44 66 71 55 41 36 30 31 51 69 67 44 28 25 26 27 46 74 68 45 31 29 45 66 72 53 30 24 25 26 41 68 74 52 45 45 38 30 42 73 80 55 30 21 21 21 35 61 76 43 38 32 26 37 73 82 56 31 22 24 27 41 63 66 47 36 31 28 27 54 81 70 44 28 24 25 25 50 73 40 37 31 24 43 77 82 56 31 23 24 26 41 62 68 52 35 24 21 21 49 80 73 44 23 15 17 20 42 66 51 36 32 31 28 41 69 75 55 33 22 17 17 32 60 68 49 32 33 34 32 48 75 77 51 29 21 20 17 78 55 33 34 35 32 53 80 77 51 30 25 25 21 34 69 77 53 34 33 30 31 53 73 70 45 29 24 25 31 58 77 58 38 37 35 30 48 76 73 48 29 23 25 23 42 73 67 42 35 34 30 33 62 83 70 43 26 23 20 48 86 71 43 43 43 33 43 72 75 59 38 25 22 22 26 52 78 62 41 39 37 29 27 55 84 74 43 23 26 36 66 75 53 37 37 34 26 43 80 85 54 27 22 24 23 37 60 70 54 41 34 30 26 36 66 81 57 24 25 24 32 61 69 47 33 34 34 31 48 68 68 49 29 22 22 22 41 72 67 42 35 38 37 37 56 71 60 20 19 21 38 66 69 55 44 37 32 32 48 66 64 39 25 22 26 32 41 64 71 53 45 42 36 29 47 74 60 36 21 18 20 23 53 74 62 42 35 36 33 32 55 77 67 42 27 23 22 26 41 62 68 51 38 34 32 33 75 54 33 25 22 22 35 62 66 47 38 40 37 31 40 60 68 50 30 22 20 23 32 53 67 53 40 37 34 29 52 76 68 41 24 21 23 23 39 65 69 50 35 33 33 33 54 71 66 44 29 24 22 23 32 52 62 54 46 30 40 61 69 52 29 21 20 22 33 55 67 58 45 44 39 32 38 64 71 50 30 21 21 23 36 56 67 55 40 37 31 33 61 75 60 37 23 21 23 28 47 66 62 47 40 37 33 32 50 67 63 42 26 24 25 26 46 70 41 38 38 32 39 65 79 58 34 25 25 24 34 65 78 56 38 38 39 32 38 65 85 64 36 21 20 18 19 87 68 40 33 33 30 40 58 72 72 49 32 28 30 29 41 65 66 48 40 41 38 34 51 78 72 46 28 26 28 65 73 54 39 37 33 28 40 67 80 61 34 23 25 28 38 59 70 56 42 37 34 30 42 76 88 59 33 23 23 30 54 67 54 39 32 30 31 34 61 91 81 47 31 28 27 26 49 73 66 43 30 31 32 33 53 81 77 47 26 25 33 65 74 56 39 37 34 29 37 70 87 65 38 22 21 25 25 53 76 61 40 33 32 28 36 67 85 38 26 25 27 29 52 73 61 41 32 30 29 30 62 91 75 44 28 25 24 22 41 68 69 47 34 32 32 30 51 58 33 22 21 22 27 51 72 62 40 30 31 28 31 59 79 66 41 27 23 24 26 45 69 65 44 36 34 31 39 70 76 57 36 26 23 23 27 55 72 56 35 26 30 31 44 64 69 57 43 32 24 22 21 48 87 67 39 31 29 37 65 77 62 38 26 24 23 25 48 82 72 43 32 32 29 33 54 75 70 47 29 25 27 31 59 75 58 35 26 28 44 74 76 49 30 25 26 27 44 68 66 51 46 39 30 22 37 75 81 52 29 25 25 31 45 61 64 37 34 30 27 39 68 78 58 35 28 29 27 40 64 69 52 39 36 36 36 46 64 70 54 34 25 24 25 34 53 54 44 39 32 28 37 61 72 55 33 20 19 23 34 58 69 56 41 37 34 30 33 56 77 68 44 30 26 25 32 57 71 57 39 34 31 29 35 57 73 59 38 27 23 26 36 49 60 56 48 41 35 30 27 41 67 76 57 36 24 32 51 72 66 52 45 37 28 23 43 75 79 54 32 26 26 26 41 68 73 52 37 33 31 30 45 70 74 47 31 27 27 25 49 79 69 44 34 33 31 28 47 78 82 58 36 23 20 21 30 52 67 59 45 35 29 27 26 78 59 37 22 20 21 28 45 68 68 49 38 32 28 24 29 55 77 67 46 29 18 15 16 30 52 62 58 45 32 29 27 31 50 68 62 44 27 18 19 25 30 40 50 52 61 41 37 31 28 35 33 31 31 33 38 37 34 29 24 28 35 44 50 52 47 36 26 22 20 23 27 37 45 53 49 44 39 35 31 26 26 26 30 36 39 44 45 36 29 24 25 31 37 29 27 29 57 33 31 33 32 31 33 32 31 32 32 32 32 32 32 32 32 32 31 32 32 32 32 32 32 32 32 32 32 32 32 31 31 32 32 31 31 32 32 32 32 32 32 32 32 32 32 32 32 32 32 32 32 32 32 32 31 32 32 32 32 32 32 31 31 32 32 32 32 32 32 32 31 32 32 31 33 32 32 32 31 32 32 32 32 31 32 31 31 31 32 31 31 31 31 32 31 32 32 32 31 31 32 31 32 32 32 31 31 31 31 31 32 32 31 32 31 31 32 32 31 31 31 31 32 31 31 32 32 32 31 32 32 32 32 32 32 32 31 32 31 32 32 32 31 31 31 31 31 31 32 32 32 31 31 32 32 32 32 32 32 32 32 32 32 32 32 32 32 32 32 32 32 32 32 32 32 32 32 32 32 32 32 32 32 32 32 32 32 32 32 32 32 32 31 32 32 32 32 32 32 32 32 31 32 31 31 31 31 32 32 31 31 32 32 32 31 32 31 32 31 32 32 32 32 32 32 32 31 32 32 32 32 32 32 31 32 32 32 32 32 31 31 32 32 32 31 32 32 32 32 32 31 32 32 32 31 32 32 32 32 31 32 32 31 32 32 31 32 32 32 32 32 32 32 32 32 32 32 32 32 32 32 32 32 32 32 32 32 32 32 32 32 31 31 31 31 31 32 32 32 32 32 32 32 32 32 32 32 32 32 32 32 32 32 32 32 31 31 31 31 31 32 32 32 32 32 32 32 32 32 32 32 32 31 31 32 32 32 32 32 32 32 32 32 32 32 32 32 32 32 32 31 32 32 31 31 32 31 31 32 32 31 31 32 32 32 32 32 32 32 32 32 32 32 32 32 31 31 32 32 32 32 32 32 32 32 32 32 32 32 32 32 32 32 32 32 32 32 32 32 31 31 32 31 31 31 32 31 31 32 31 31 31 31 31 31 31 31 31 31 31 32 31 32 31 31 32 31 31 31 31 31 31 31 31 31 31 31 31 32 32 32 31 31 32 32 32 32 32 32 32 32 32 32 32 32 32 32 32 32 32 32 32 32 32 32 32 32 32 32 32 32 32 32 32 32 32 32 32 32 32 32 32 32 32 32 32 32 32 32 32 32 32 32 32 32 32 32 32 32 32 32 32 32 32 32 32 31 32 32 32 32 32 32 32 32 31 31 31 31 31 31 32 32 31 31 32 31 31 31 31 32 31 31 31 31 32 31 32 32 32 31 32 32 31 32 32 32 32 32 32 32 32 32 32 32 32 32 32 32 32 32 32 32 32 32 32 31 32 32 32 31 32 32 32 32 31 32 32 32 31 32 32 32 32 32 32 32 32 32 32 32 32 32 32 32 32 32 32 32 32 32 32 32 32 32 32 32 32 32 32 32 32 32 32 32 32 32 32 32 32 32 32 32 32 32 32 32 32 32 32 32 32 32 32 32 32 32 32 32 32 32 32 32 32 32 32 32 32 32 32 32 32 32 32 32 32 32 32 32 32 32 32 32 32 32 32 32 32 32 32 32 32 32 32 32 32 32 32 32 32 32 32 32 32 32 32 32 32 32 32 32 32 32 32 32 32 32 32 32 32 32 32 32 32 32 32 32 32 32 32 32 32 32 32 32 32 32 32 32 32 32 32 32 32 32 32 32 32 32 32 32 32 32 32 32 32 32 32 32 32 32 32 32 32 32 32 32 32 32 32 32 32 32 32 32 32 32 32 32 32 32 32 32 32 32 31 32 32 32 32 32 32 32 32 32 32 32 32 32 32 32 32 32 32 32 32 32 32 32 32 32 32 32 32 32 32 32 32 32 32 32 32 32 32 32 32 32 32 32 32 32 32 32 32 32 32 32 32 32 32 32 32 32 32 32 32 32 32 32 32 32 32 32 32 32 32 32 32 31 32 32 32 32 31 32 32 32 32 32 32 32 32 32 32 32 32 32 32 32 32 31 32 32 31 32 31 31 31 32 32 32 31 32 32 32 32 31 31 32 32 32 32 32 32 32 32 32 32 32 32 32 32 32 32 32 32 32 32 32 32 32 32 32 32 32 32 32 32 32 32 32 33 32 32 32 32 32 32 32 32 32 31 32 32 32 32 32 32 32 32 32 32 32 32 32 32 32 32 32 33 31 32 31 31 31 31 32 33 32 32 32 32 33 32 31 31 32 32 32 32 32 32 32 32 31 32 31 32 31 31 31 31 32 31 32 31 31 32 32 32 32 32 32 32 32 31 31 32 32 32 32 32 32 32 32 32 31 32 32 32 31 31 32 31 32 32 31 31 32 32 31 32 31 31 31 31 31 32 31 32 32 33 37 31 32 32 31 33 31 30 31 30 29 23 21 23 28 34 38 41 45 48 46 38 32 31 34 34 29 27 27 29 31 36 39 47 43 35 35 37 39 34 30 27 26 25 25 27 31 38 40 36 38 40 39 35 31 32 31 29 31 35 38 40 44 45 42 36 32 29 28 28 32 34 30 30 35 37 38 38 38 38 37 37 40 44 39 35 37 41 42 41 37 36 36 35 34 30 34 40 43 42 42 44 41 40 39 42 47 54 57 52 41 31 25 25 25 31 48 57 52 31 30 30 37 53 63 60 45 30 22 22 22 37 64 69 51 34 32 32 31 41 64 76 60 38 27 26 23 33 62 45 39 38 32 34 62 79 67 43 30 28 27 33 59 75 60 40 38 35 28 41 72 81 60 39 29 31 30 41 75 49 40 41 34 30 58 81 71 46 29 27 29 30 60 78 56 43 40 38 31 55 83 77 51 29 23 26 26 50 79 52 43 46 39 33 60 86 76 47 32 33 33 32 67 81 57 44 45 40 38 70 89 68 42 33 35 31 43 72 42 41 41 34 47 71 76 57 37 31 33 32 54 73 54 41 50 50 45 61 81 76 49 32 34 36 37 78 89 50 51 41 33 53 83 80 50 32 32 33 34 62 80 55 51 59 46 43 70 88 72 42 26 30 29 37 64 70 51 48 41 59 83 75 47 36 36 30 36 68 85 65 47 47 36 32 53 70 69 49 33 32 35 40 68 82 59 50 41 36 59 76 67 47 37 34 28 33 59 63 48 37 37 35 40 63 73 60 39 30 33 31 43 71 62 43 47 47 58 77 68 43 31 31 30 37 62 61 50 47 46 38 37 61 74 65 44 31 31 31 43 70 71 51 47 45 35 66 80 66 44 38 37 29 43 67 58 43 43 39 35 55 80 73 48 34 32 28 33 64 65 44 33 41 41 44 65 43 31 28 27 35 59 66 49 43 41 35 36 55 70 61 40 32 30 24 41 66 63 42 48 47 37 39 60 66 42 30 31 28 52 69 59 42 42 40 38 53 71 68 52 38 32 30 36 55 64 58 50 43 38 35 52 74 69 48 31 30 60 82 58 40 42 39 36 58 89 81 52 36 36 32 37 63 80 56 42 48 45 46 64 76 63 46 37 31 50 78 69 47 45 45 37 38 66 82 63 39 33 36 32 55 78 65 46 45 46 38 44 71 77 57 42 38 36 80 68 47 42 40 33 45 72 74 55 34 28 30 34 58 75 63 45 49 47 36 42 75 81 56 37 34 33 34 70 63 46 42 38 33 36 60 76 62 42 32 32 28 42 72 70 47 40 43 36 39 69 74 54 38 30 31 30 52 48 42 35 27 42 77 74 49 32 28 28 28 58 74 58 45 45 39 30 48 76 71 47 33 31 30 35 63 78 53 48 40 29 33 67 81 63 41 32 33 28 54 79 64 44 38 36 30 39 72 77 58 41 36 35 29 56 77 57 34 33 32 53 78 74 51 34 28 27 31 67 71 49 39 37 30 26 49 78 77 52 31 29 26 33 69 69 43 37 30 40 67 75 55 36 29 27 27 57 64 46 38 34 30 34 66 79 59 39 31 31 29 48 73 57 39 36 34 40 75 78 56 37 27 29 25 52 79 56 36 35 35 37 51 64 64 48 30 26 25 35 76 72 45 40 36 33 41 69 47 31 28 28 31 69 74 49 43 43 33 34 56 76 69 44 31 30 26 43 76 67 45 44 40 31 44 70 53 33 29 29 26 63 78 48 36 38 36 38 62 74 63 42 32 33 29 50 80 62 42 39 34 30 46 64 67 49 24 25 39 74 67 38 33 34 31 41 68 76 60 39 26 25 21 50 82 62 37 37 37 31 53 75 66 45 33 28 35 72 75 47 33 34 30 33 68 78 59 37 28 29 27 49 74 63 44 41 38 31 41 70 76 59 39 32 28 73 62 40 40 38 32 48 69 68 51 34 27 29 30 61 77 49 40 42 35 34 60 79 65 41 31 31 25 41 73 50 41 39 32 32 60 82 66 42 31 32 29 40 71 62 42 40 37 31 39 69 78 59 36 28 30 26 53 79 42 33 27 46 73 70 47 32 28 26 37 65 63 42 36 33 30 44 68 69 52 34 28 30 28 61 78 52 37 34 31 47 71 70 53 35 29 30 30 67 73 46 38 36 31 34 60 70 59 39 28 29 27 58 79 53 40 37 31 77 69 44 28 28 26 40 77 65 44 40 33 27 42 71 73 51 30 24 27 25 63 73 43 31 31 27 30 53 77 58 38 29 29 33 59 64 48 39 36 31 35 51 66 59 40 29 30 29 47 70 56 40 36 31 28 52 75 67 27 27 35 69 67 43 34 32 28 38 70 78 58 36 27 30 32 64 72 45 38 34 30 33 56 70 62 40 25 28 29 60 76 52 37 39 36 36 60 79 68 44 34 34 31 46 76 69 47 43 37 29 39 72 77 57 38 32 32 35 71 74 49 43 42 37 43 74 80 58 40 35 39 35 55 88 70 51 50 43 34 51 83 80 54 38 38 35 42 54 50 45 36 38 71 84 65 44 37 39 31 59 76 57 47 49 43 37 58 85 70 44 33 34 33 48 71 67 46 44 40 36 59 80 68 45 31 32 32 40 71 71 53 47 40 33 39 76 79 53 39 34 33 31 58 75 57 47 38 61 80 71 50 42 42 33 48 76 70 49 48 43 37 47 74 80 56 41 41 38 45 81 77 53 45 41 35 55 87 75 50 42 40 33 41 66 70 51 51 45 33 36 56 68 55 36 30 29 41 73 68 44 38 38 33 37 65 37 31 31 34 64 74 55 38 36 33 36 63 87 73 44 33 35 30 45 73 68 45 43 41 37 48 73 75 51 37 36 35 52 65 55 43 35 34 44 57 74 72 47 31 33 31 39 61 65 46 40 46 42 48 74 80 62 47 43 56 68 53 47 46 42 37 59 83 75 48 37 37 33 46 70 66 52 47 39 30 40 70 77 54 39 37 35 35 70 53 46 34 26 31 68 80 61 38 29 34 33 50 75 66 44 39 34 31 47 73 78 56 38 34 33 34 61 73 45 37 28 45 72 71 45 30 27 26 37 64 70 50 43 41 39 36 58 79 68 48 37 33 28 49 72 69 61 28 20 32 63 71 50 34 26 29 37 64 70 46 38 39 37 38 68 80 70 46 31 28 29 43 65 69 51 41 36 33 55 68 58 36 24 22 22 47 75 57 42 37 32 28 46 73 70 49 31 30 31 38 63 65 49 44 33 28 65 74 57 34 25 25 26 40 59 66 48 36 36 32 33 53 75 72 47 29 26 26 35 62 74 54 42 37 30 26 71 68 41 22 21 24 32 55 73 60 44 34 33 32 27 46 76 77 57 35 26 24 26 38 61 71 56 40 33 28 27 30 57 82 73 48 29 24 23 27 39 57 70 54 41 30 24 25 25 41 75 88 69 43 26 26 24 26 45 72 55 41 33 31 28 25 39 72 78 63 36 20 13 11 25 42 54 57 50 34 25 20 17 16 24 39 48 48 40 19 27 31 34 46 50 44 37 29 23 23 26 33 37 41 42 31 26 24 23 26 27 33 42 48 45 37 29 23 22 29 35 43 46 42 32 26 21 22 26 30 34 39 39 34 31 29 27 24 27 29 34 42 50 55 49 40 31 28 28 31 34 34 32 32 31 31 32 31 28 31 34 32 30 32 35 35 32 31 30 28 25 27 29 31 33 34 36 35 32 31 31 36 43 34 29 31 34 32 33 31 32 31 31 32 32 32 31 33 32 32 31 31 32 32 32 31 31 31 31 31 31 31 32 31 31 31 31 32 31 31 31 32 31 31 31 31 31 31 31 31 31 31 32 31 31 32 32 31 32 31 32 31 31 31 31 31 31 32 31 32 32 32 32 32 32 32 32 31 32 32 31 31 32 31 32 31 31 32 32 31 31 32 31 32 32 31 31 32 31 31 31 32 32 31 32 31 31 31 31 31 31 32 31 31 31 32 32 32 31 31 31 32 31 31 31 32 32 32 32 32 31 32 32 31 31 31 32 31 32 31 32 31 31 32 32 31 31 32 32 32 31 31 31 31 31 31 32 32 32 31 32 31 31 31 32 32 32 31 31 32 32 31 32 31 32 32 32 32 31 31 32 32 32 32 32 32 32 32 32 32 32 31 32 32 32 32 32 32 32 32 31 32 32 32 32 31 31 31 31 31 31 31 32 32 32 32 32 31 31 32 32 31 32 32 32 31 32 32 32 32 32 31 32 32 32 32 31 32 32 32 31 31 32 32 32 32 32 32 32 32 32 32 32 32 32 32 32 32 32 32 31 32 32 32 32 32 32 32 32 32 32 32 32 32 32 32 32 32 32 32 32 32 32 32 32 32 32 32 32 32 32 32 32 31 31 31 32 31 31 31 31 32 31 31 31 31 31 31 31 31 31 31 31 31 32 31 31 31 31 32 31 32 32 32 32 32 32 31 31 32 32 32 31 32 32 32 32 32 32 32 32 32 32 32 32 32 32 32 32 32 32 32 32 32 32 32 31 32 32 31 31 32 31 31 32 32 31 31 32 31 31 31 31 32 32 32 32 32 32 32 32 32 32 32 32 32 31 32 32 32 32 32 31 32 32 32 32 32 32 32 32 33 32 33 33 32 32 31 32 32 32 32 32 32 32 32 32 32 32 32 32 32 32 32 32 32 32 32 32 32 32 32 32 32 32 32 32 32 32 32 32 32 32 32 32 32 32 32 32 32 32 32 32 32 32 32 32 32 32 32 32 32 31 32 32 31 31 31 32 32 32 32 32 32 32 32 32 32 32 31 32 32 33 32 32 33 33 35 39 43 45 43 37 29 26 26 27 27 24 24 27 30 31 32 33 33 33 32 32 31 31 32 33 34 32 32 32 32 32 32 32 32 31 32 32 32 32 32 32 32 32 31 32 32 32 32 32 32 32 32 31 31 32 32 31 31 31 31 29 27 26 26 30 32 36 41 38 33 33 33 32 33 33 36 33 30 29 34 32 32 32 32 32 32 30 31 31 30 30 34 32 30 30 31 31 32 32 35 31 31 31 33 32 32 32 32 33 34 36 38 38 34 31 30 28 28 29 29 31 31 31 33 34 34 33 32 29 30 31 32 32 31 30 30 30 31 31 33 33 34 33 33 32 31 31 30 30 32 32 33 32 31 31 31 31 33 33 32 33 33 31 31 30 29 28 25 26 28 30 35 36 34 36 39 37
