36855 36809 36770 36744 36741 36735 36726 36747 36751 36751 36782 42005 42657 42784 42862 42921 42934 42970 42956 42977 42977 42988 42985 42991 43007 42973 42925 42834 42786 42740 42701 42677 42697 42676 42661 42639 42632 42617 42595 42582 42560 42528 42418 42169 41913 41683 41493 41211 40942 40625 40330 40031 39757 39500 39231 38987 38724 38473 38203 37928 37469 36928 36414 35989 35660 35388 35172 34966 34755 34568 34349 34124 33998 33997 34026 33989 33815 33486 33205 32990 32821 32734 32652 32567 32499 32410 32335 32353 32389 32389 32384 32453 32565 32714 32775 32893 33035 33201 33403 33571 33746 33903 34078 34244 34417 34586 34779 34962 35111 35255 35359 35420 35485 35575 35694 35821 35934 36079 36210 36324 36459 36585 36701 36826 36946 37067 37187 37277 37324 37372 37450 37519 37608 37682 37778 37880 37958 38047 38136 38208 38288 38383 38463 38555 38622 38653 38677 38724 38776 38841 38919 38980 39036 39098 39166 39233 39297 39367 39438 39491 39568 39638 39682 39696 39723 39773 39835 39885 39922 39983 40012 40045 40111 40133 40190 40255 40297 40325 40381 40425 40439 40458 40465 40498 40524 40553 40600 40646 40666 40707 40754 40780 40820 40871 40892 40936 40975 41017 41027 41026 41025 41040 41044 41085 41102 41138 41148 41173 41201 41235 41276 41290 41323 41362 41395 41392 41368 41342 41315 41329 41348 41366 41385 41392 41406 41428 41462 41477 41497 41524 41559 41580 41635 41622 41557 41531 41525 41512 41506 41529 41545 41553 41570 41589 41613 41637 41663 41659 41700 41736 41751 41725 41657 41633 41611 41613 41600 41591 41583 41602 41599 41632 41651 41659 41690 41721 41735 41737 41708 41631 41597 41562 41551 41576 41571 41585 41569 41582 41592 41621 41635 41674 41679 41711 41738 41695 41627 41548 41530 41523 41525 41553 41546 41541 41556 41585 41605 41629 41658 41683 41722 41755 41740 41675 41618 41568 41616 41654 41742 41774 41778 41774 41780 41749 41767 41757 41780 41800 41791 41732 41618 41556 41520 41500 41477 41482 41471 41470 41475 41476 41474 41491 41509 41543 41547 41544 41468 41340 41260 41188 41145 41125 41092 41066 41019 40994 40995 40967 40961 40972 40995 41001 41017 40924 40788 40665 40596 40531 40494 40446 40385 40320 40258 40202 40134 40072 39993 39932 39917 39858 39740 39565 39384 39265 39174 39126 39018 38923 38785 38565 38317 38068 37786 37523 37220 36964 36639 36216 35829 35479 35227 35132 35177 35286 35359 35378 35253 34982 34677 34462 34348 34277 34232 34047 33868 33713 33655 33707 33837 33962 34088 34213 34339 34332 34211 34072 34007 33970 33849 33761 33764 33794 33845 33979 34152 34343 34515 34696 34906 34960 34871 34733 34577 34453 34373 34374 34415 34553 34713 34835 34983 35140 35321 35511 35611 35629 35598 35480 35403 35361 35345 35372 35379 35393 35424 35522 35639 35788 35985 36152 36216 36116 35958 35864 35883 35923 35965 35967 35952 35971 36022 36117 36239 36420 36638 36745 36694 36567 36450 36401 36443 36492 36514 36493 36530 36516 36564 36633 36747 36915 37033 37006 36882 36784 36745 36793 36837 36860 36874 36870 36852 36888 36919 37047 37178 37267 37251 37131 37009 36946 36967 37002 37046 37059 37053 37082 37099 37144 37210 37314 37405 37473 37450 37376 37328 37341 37389 37425 37427 37439 37436 37491 37542 37605 37636 37677 37728 37722 37624 37520 37470 37494 37537 37567 37583 37597 37633 37727 37773 37826 37933 38007 38060 38031 37950 37893 37886 37893 37895 37933 37971 37992 38025 38001 38042 38142 38234 38326 38308 38216 38145 38133 38190 38222 38165 38128 38020 37903 37783 37730 37754 37826 37885 37924 37819 37633 37542 37716 37897 37839 37710 37519 37425 37396 37420 37510 37679 37819 38002 38089 38052 38039 38237 38541 38715 38576 38409 38239 38137 38097 38059 38064 38127 38248 38390 38473 38416 38231 38014 37855 37740 37619 37592 37536 37498 37466 37518 37585 37708 37850 37986 37862 37595 37373 37263 37270 37266 37211 37193 37115 37094 37119 37174 37223 37407 37547 37552 37270 37005 36867 36892 37016 36956 36889 36861 36824 36782 36806 36872 36942 37058 37170 37173 37035 36909 36888 36930 36975 36992 36983 36952 36851 36749 36678 36705 36791 36919 37032 36903 36755 36658 36661 36678 36661 36560 36404 36270 36244 36219 36258 36401 36634 36885 37165 37211 37131 37009 36973 36949 36933 36980 37008 37061 37115 37163 37265 37419 37539 37675 37756 37651 37512 37418 37402 37439 37455 37469 37492 37579 37691 37758 37835 37936 37995 38076 38077 38002 37952 37981 38018 38013 38004 38045 38057 38127 38183 38172 38182 38182 38261 38365 38396 38368 38352 38392 38525 38580 38531 38476 38399 38380 38384 38359 38400 38456 38548 38658 38725 38705 38654 38626 38669 38663 38597 38565 38576 38622 38627 38672 38717 38763 38853 38954 38962 38845 38700 38673 38667 38677 38634 38650 38665 38659 38634 38645 38691 38709 38750 38831 38847 38785 38731 38700 38718 38733 38753 38719 38714 38640 38600 38564 38562 38600 38640 38741 38738 38662 38570 38531 38469 38394 38329 38268 38245 38208 38233 38284 38338 38386 38474 38635 38597 38469 38287 38144 38034 37980 37948 37993 37998 37990 38025 38022 38077 38135 38157 38248 38197 38099 37997 37904 37873 37860 37862 37933 37938 37954 37920 37865 37879 37929 37994 38105 38075 37958 37838 37769 37769 37807 37704 37550 37347 37225 37145 37123 37166 37260 37373 37517 37564 37472 37270 37069 36949 36918 36885 36897 36887 36900 36898 36912 36968 37103 37232 37317 37296 37112 36916 36790 36778 36784 36832 36920 37007 37128 37223 37257 37244 37273 37332 37463 37538 37481 37383 37374 37431 37520 37557 37516 37370 37241 37145 37092 37092 37134 37241 37377 37513 37508 37471 37445 37439 37413 37387 37320 37287 37278 37293 37330 37364 37460 37573 37708 37759 37677 37536 37460 37452 37465 37472 37460 37435 37460 37482 37516 37566 37639 37673 37765 37819 37766 37743 37681 37680 37709 37741 37763 37771 37798 37764 37746 37769 37831 37904 38011 38137 38108 38061 38040 38061 38106 38089 38037 37991 37955 37932 37938 37941 37978 38080 38153 38278 38288 38209 38106 38064 38045 38049 38039 38055 38056 38067 38103 38124 38171 38251 38302 38357 38275 38166 38053 38038 38058 38086 38094 38092 38105 38100 38057 38007 38011 38055 38104 38221 38263 38213 38170 38139 38153 38196 38154 38069 37977 37936 37916 37915 37940 38023 38113 38233 38299 38250 38129 38000 37919 37876 37857 37833 37790 37785 37772 37756 37798 37890 37953 37992 37941 37788 37636 37515 37491 37468 37503 37547 37595 37596 37599 37585 37555 37551 37593 37684 37807 37743 37631 37529 37472 37465 37439 37356 37237 37169 37139 37186 37235 37281 37365 37492 37672 37686 37515 37274 37078 36974 36937 36919 36947 36938 36929 36943 36971 37020 37099 37093 37116 37064 36869 36725 36671 36705 36750 36785 36804 36788 36679 36558 36461 36484 36552 36653 36789 36857 36736 36594 36545 36584 36557 36495 36432 36327 36242 36224 36267 36315 36401 36498 36651 36688 36473 36238 36068 36052 36062 36087 36119 36131 36135 36131 36159 36167 36164 36167 36189 36192 36110 36044 36020 36089 36171 36227 36314 36275 36222 36165 36103 36110 36118 36275 36492 36596 36537 36451 36417 36432 36444 36436 36375 36304 36309 36320 36324 36307 36382 36515 36677 36756 36650 36522 36450 36520 36652 36725 36733 36727 36734 36742 36713 36689 36738 36804 36935 37068 37044 36971 36948 37036 37173 37232 37214 37201 37185 37161 37167 37178 37270 37403 37592 37803 37934 37875 37798 37811 37947 38103 38267 38414 38478 38426 38393 38379 38397 38407 38437 38542 38554 38466 38400 38372 38411 38453 38469 38481 38451 38407 38391 38404 38450 38519 38601 38710 38766 38720 38642 38614 38571 38523 38456 38410 38363 38333 38346 38391 38443 38496 38592 38667 38579 38326 38107 37990 37956 37983 37969 37933 37902 37894 37902 37860 37829 37822 37851 37956 37944 37820 37696 37650 37652 37679 37597 37391 37178 37021 36976 36988 37012 37091 37196 37347 37459 37255 36955 36730 36631 36631 36625 36621 36581 36535 36506 36487 36571 36604 36588 36628 36615 36483 36367 36313 36376 36478 36550 36597 36510 36337 36251 36216 36226 36284 36404 36556 36747 36737 36612 36440 36324 36292 36275 36281 36275 36286 36296 36326 36393 36485 36601 36619 36669 36583 36449 36399 36410 36470 36512 36551 36584 36585 36549 36524 36551 36607 36665 36792 36929 36908 36826 36783 36799 36795 36769 36708 36633 36600 36648 36699 36779 36858 36953 37065 37125 37098 36965 36814 36742 36716 36766 36764 36758 36757 36847 36871 36909 36979 37039 37133 37282 37342 37292 37215 37201 37228 37245 37195 37150 37081 37080 37105 37158 37206 37309 37394 37518 37544 37400 37224 37113 37087 37114 37130 37134 37170 37194 37260 37282 37333 37398 37434 37516 37636 37621 37577 37549 37559 37601 37584 37517 37431 37395 37399 37440 37489 37543 37652 37779 37964 37982 37780 37575 37412 37373 37391 37433 37494 37508 37518 37543 37579 37591 37576 37589 37656 37750 37717 37611 37564 37551 37621 37620 37519 37408 37315 37303 37346 37401 37436 37529 37639 37774 37815 37634 37445 37315 37270 37316 37313 37348 37333 37307 37312 37333 37306 37282 37282 37315 37386 37462 37390 37314 37277 37291 37238 37138 37044 36910 36845 36858 36900 36953 37038 37103 37200 37200 37069 36809 36617 36528 36540 36583 36667 36763 36831 36777 36566 36403 36266 36261 36310 36383 36467 36560 36699 36740 36616 36375 36192 36082 36076 36115 36206 36285 36307 36310 36347 36382 36367 36336 36329 36328 36366 36417 36496 36518 36537 36567 36520 36410 36326 36242 36274 36329 36381 36442 36488 36483 36541 36532 36429 36370 36351 36371 36400 36453 36521 36593 36651 36713 36678 36584 36515 36492 36528 36564 36607 36633 36690 36749 36825 36785 36726 36717 36748 36801 36860 36929 36986 37057 37123 37210 37230 37245 37260 37285 37330 37360 37418 37456 37474 37536 37528 37391 37181 37025 36932 36907 36920 36940 37003 37038 37146 37175 37175 37170 37169 37217 37369 37447 37379 37320 37256 37230 37233 37179 37140 37044 36973 37001 36983 37007 37041 37138 37261 37349 37324 37175 36937 36761 36668 36620 36612 36661 36678 36663 36636 36529 36507 36503 36557 36663 36788 36944 36888 36770 36691 36580 36442 36341 36270 36225 36233 36235 36287 36323 36424 36552 36626 36607 36526 36256 36036 35897 35864 35919 35962 36016 36050 36044 35948 35863 35890 35993 36141 36325 36510 36535 36421 36338 36274 36154 36138 36128 36123 36067 35969 35955 35991 36097 36294 36547 36720 36907 36829 36729 36746 36950 37265 37427 37561 37717 37784 37767 37750 37711 37678 37764 37885 38084 38120 37992 37858 37798 37780 37807 37775 37698 37630 37614 37580 37559 37517 37568 37695 37730 37753 37541 37300 37172 37164 37321 37529 37680 37822 37913 37818 37689 37625 37759 37988 38321 38792 39065 39251 39310 39345 39388 39402 39414 39503 39596 39633 39691 39718 39699 39726 39774 39767 39681 39363 39049 38826 38735 38711 38719 38682 38704 38714 38662 38596 38515 38416 38391 38421 38512 38507 38342 38134 38021 37992 37964 37764 37524 37294 37130 37021 36981 37005 37070 37178 37311 37352 37146 36766 36434 36299 36589 36852 36897 36791 36737 36733 36658 36538 36470 36431 36441 36557 36722 36746 36681 36615 36708 36827 36781 36618 36438 36289 36206 36201 36254 36349 36458 36603 36738 36651 36379 36114 36015 36039 36111 36137 36202 36188 36182 36209 36165 36111 36101 36135 36217 36313 36446 36535 36522 36456 36420 36333 36192 36071 35974 35915 35972 35876 35893 35921 35946 36027 36181 36231 36175 35950 35724 35600 35631 35757 35906 36058 36029 35984 35868 35822 35843 35881 35914 35977 36064 36158 36152 36111 36049 36020 35985 35906 35953 36073 36222 36378 36492 36611 36684 36795 36883 36941 37026 37068 37067 37074 37217 37467 37573 37545 37559 37594 37585 37568 37583 37642 37783 38004 38190 38326 38243 38203 38153 38142 38159 38201 38283 38367 38384 38383 38373 38420 38442 38414 38393 38443 38515 38554 38452 38342 38292 38218 38185 38172 38177 38059 37989 37897 37840 37807 37867 37956 38048 38114 38170 38117 37840 37535 37269 37098 37014 36979 37009 37004 36960 36878 36831 36720 36622 36553 36529 36608 36736 36769 36675 36475 36392 36390 36318 36186 36052 35892 35880 35877 35851 35940 36085 36227 36376 36476 36362 36092 35881 35726 35702 35711 35750 35832 35897 35968 36003 36071 36147 36146 36201 36328 36475 36520 36436 36289 36173 35995 35833 35717 35704 35736 35809 35915 36023 36136 36250 36382 36474 36479 36344 36186 36134 36263 36418 36559 36700 36861 36941 36860 36860 36908 36967 36989 37013 37075 37224 37159 37026 36953 36847 36705 36605 36563 36531 36566 36585 36611 36707 36787 36903 36926 36910 36949 36749 36608 36542 36525 36516 36555 36615 36733 36689 36605 36616 36714 36811 36918 37139 37413 37654 37642 37587 37515 37360 37284 37279 37338 37519 37653 37681 37750 37780 37829 37809 37804 37894 37918 37811 37731 37670 37674 37688 37746 37739 37619 37487 37427 37400 37425 37464 37582 37711 37718 37610 37473 37306 37176 37143 37123 37145 37151 37137 37171 37218 37266 37288 37263 37288 37305 37221 37153 37153 37180 37198 37189 37150 37007 36863 36782 36721 36764 36893 37067 37267 37356 37336 37135 36914 36754 36642 36610 36654 36670 36717 36771 36917 37045 37073 37048 37066 37136 37188 37095 36980 36915 36885 36919 36910 36793 36596 36426 36382 36423 36482 36536 36621 36759 36892 36796 36412 36125 35998 35912 35884 35957 36066 36119 36137 36207 36211 36141 36116 36128 36259 36451 36406 36314 36271 36239 36133 35949 35818 35748 35705 35729 35822 35947 36064 36221 36401 36436 36439 36199 36047 35968 35927 35939 35996 36062 36102 36101 36011 35952 35946 35914 35954 36115 36310 36504 36599 36491 36295 36142 36025 35993 36013 36069 36125 36172 36237 36292 36289 36247 36239 36257 36370 36326 36237 36198 36226 36227 36264 36243 36166 36054 36021 36039 36092 36186 36332 36499 36712 36755 36567 36395 36292 36237 36277 36333 36375 36430 36476 36552 36623 36594 36558 36626 36760 36940 36947 36890 36865 36881 36896 36813 36685 36579 36516 36470 36499 36555 36604 36696 36821 36920 36887 36714 36588 36540 36539 36572 36598 36638 36763 36795 36812 36825 36860 36900 36980 37081 37205 37197 37145 37153 37173 37152 37089 37074 37109 37122 37150 37196 37250 37279 37347 37381 37431 37453 37309 37249 37225 37245 37272 37287 37324 37388 37334 37266 37247 37239 37271 37361 37521 37688 37756 37693 37563 37437 37342 37295 37264 37281 37308 37317 37333 37367 37392 37357 37270 37262 37329 37456 37377 37317 37289 37304 37312 37239 37110 37000 36873 36807 36839 36903 36945 37020 37144 37219 37197 37026 36723 36585 36528 36526 36552 36633 36758 36780 36660 36576 36502 36475 36517 36631 36768 36879 36780 36710 36594 36432 36327 36244 36205 36235 36188 36143 36120 36144 36207 36212 36144 36173 36071 35946 35860 35813 35839 35886 35993 35904 35654 35482 35423 35477 35645 35822 35997 36178 36307 36161 35892 35687 35582 35562 35620 35695 35750 35795 35785 35760 35687 35597 35558 35607 35727 35859 35780 35701 35670 35687 35610 35505 35423 35407 35397 35413 35493 35630 35778 35979 36055 36031 35899 35726 35671 35688 35753 35825 35912 36022 36002 35864 35752 35677 35709 35829 36014 36198 36360 36355 36318 36224 36140 36128 36118 36157 36219 36283 36322 36376 36408 36415 36406 36432 36561 36619 36589 36555 36554 36581 36641 36611 36574 36507 36505 36515 36536 36581 36654 36791 36951 37090 37022 36910 36835 36837 36870 36902 36968 37078 37150 37199 37170 37144 37105 37147 37240 37366 37530 37553 37548 37485 37395 37332 37310 37339 37422 37498 37525 37582 37600 37651 37662 37687 37771 37844 37830 37786 37795 37806 37848 37907 37886 37819 37755 37697 37705 37709 37713 37768 37830 37967 38017 37868 37722 37609 37584 37582 37611 37655 37718 37775 37718 37662 37612 37605 37638 37706 37813 37909 37902 37846 37782 37644 37519 37445 37428 37450 37496 37478 37479 37490 37526 37520 37498 37511 37550 37486 37367 37277 37285 37289 37311 37176 36972 36773 36627 36567 36575 36639 36723 36835 36972 36925 36650 36407 36271 36247 36304 36362 36425 36499 36506 36445 36326 36250 36220 36218 36305 36427 36632 36552 36457 36323 36161 36027 35973 35961 36009 36049 36094 36103 36165 36241 36186 36110 36131 36234 36195 36114 36107 36123 36185 36254 36157 36035 35891 35870 35891 35944 36033 36143 36267 36442 36485 36360 36157 36048 36029 36076 36161 36245 36318 36397 36341 36253 36190 36179 36236 36330 36495 36703 36747 36732 36641 36545 36487 36463 36484 36556 36617 36651 36680 36760 36812 36778 36765 36811 36929 37001 36975 36950 36945 36999 37019 37016 36991 36973 36962 36972 37020 37042 37056 37137 37293 37417 37346 37206 37119 37100 37106 37142 37183 37253 37330 37260 37196 37150 37101 37118 37196 37325 37507 37573 37538 37442 37329 37240 37193 37175 37234 37296 37308 37326 37361 37360 37328 37288 37314 37399 37457 37409 37364 37348 37352 37320 37240 37209 37160 37141 37149 37201 37252 37309 37411 37489 37553 37477 37312 37232 37231 37270 37353 37457 37577 37557 37461 37340 37289 37306 37337 37351 37426 37539 37703 37570 37334 37104 36958 36880 36872 36974 37007 37028 37041 37089 37064 37002 36930 36950 37066 36957 36860 36771 36723 36672 36492 36295 36170 36061 36062 36052 36108 36186 36296 36388 36311 36260 36049 35846 35795 35848 35891 35963 36034 36069 35848 35581 35402 35361 35357 35434 35550 35726 35821 35736 35409 35105 34931 34915 34995 35104 35235 35279 35274 35265 35285 35247 35255 35316 35397 35523 35433 35341 35311 35336 35323 35166 35072 35049 35070 35145 35153 35208 35294 35432 35579 35586 35584 35505 35383 35325 35332 35408 35489 35620 35615 35406 35235 35143 35131 35164 35251 35407 35616 35825 35898 35710 35518 35477 35541 35632 35725 35812 35892 35918 35966 35969 35971 36042 36145 36282 36474 36501 36487 36497 36546 36584 36552 36521 36523 36549 36593 36632 36668 36714 36801 36893 36949 37021 36935 36884 36907 36942 37022 37076 37136 37156 37152 37113 37084 37072 37068 37137 37263 37425 37586 37605 37556 37505 37463 37469 37477 37472 37489 37565 37611 37640 37666 37686 37692 37771 37860 38015 37986 37916 37959 37990 37985 37936 37877 37891 37946 37937 38000 38064 38124 38178 38228 38268 38327 38183 38074 38032 38042 38064 38068 38041 38054 37946 37823 37722 37641 37630 37683 37809 37952 38046 37974 37831 37670 37535 37496 37469 37459 37456 37447 37422 37402 37365 37299 37264 37313 37369 37404 37282 37181 37117 37089 36966 36811 36708 36614 36610 36634 36732 36788 36909 37031 37089 37055 36933 36610 36464 36382 36356 36377 36416 36456 36322 36051 35806 35711 35708 35811 35962 36105 36227 36184 35987 35720 35518 35453 35476 35500 35531 35511 35503 35481 35491 35396 35311 35283 35352 35430 35422 35345 35280 35281 35297 35179 35054 34965 34918 34954 34964 35001 35103 35227 35392 35423 35323 35095 34947 34930 35022 35132 35242 35336 35343 35186 35047 34956 34957 35051 35224 35405 35541 35688 35717 35575 35421 35306 35292 35368 35491 35579 35623 35656 35664 35674 35663 35664 35707 35825 35954 35941 35911 35917 35954 35969 35944 35943 35990 36013 36114 36137 36184 36283 36364 36478 36511 36564 36584 36560 36564 36598 36641 36729 36811 36826 36771 36735 36702 36700 36754 36836 36949 37099 37234 37298 37242 37158 37088 37106 37148 37211 37265 37301 37337 37365 37321 37293 37294 37357 37460 37593 37656 37639 37624 37622 37563 37546 37555 37571 37590 37615 37631 37635 37663 37713 37773 37790 37836 37824 37798 37778 37787 37805 37878 37919 37850 37738 37639 37568 37539 37546 37585 37676 37770 37880 37843 37687 37582 37538 37563 37635 37698 37723 37716 37705 37639 37569 37541 37564 37661 37778 37896 37841 37709 37595 37437 37313 37252 37250 37237 37205 37229 37225 37270 37339 37322 37265 37248 37190 37102 37006 36940 36912 36954 37030 36962 36754 36540 36423 36389 36421 36482 36575 36746 36900 36777 36430 36095 35898 35847 35890 35996 36107 36161 36198 36096 35993 35933 35932 35997 36151 36325 36299 36171 36050 35879 35734 35657 35650 35647 35599 35559 35570 35618 35740 35796 35707 35694 35728 35704 35576 35501 35499 35547 35639 35632 35473 35261 35154 35157 35246 35353 35493 35651 35797 35790 35527 35236 35056 35045 35099 35247 35367 35489 35514 35401 35275 35211 35223 35323 35441 35630 35833 35900 35847 35737 35594 35514 35508 35591 35653 35674 35686 35741 35792 35792 35752 35738 35820 35944 36034 35974 35939 35927 35963 35988 35934 35844 35791 35780 35810 35856 35936 36017 36136 36188 36143 36119 35983 35906 35878 35917 36006 36100 36179 36160 36003 35887 35856 35898 35974 36089 36244 36369 36509 36479 36288 36131 36083 36102 36159 36264 36341 36369 36402 36392 36348 36312 36339 36438 36574 36710 36671 36609 36582 36544 36506 36500 36522 36520 36544 36568 36629 36684 36777 36886 36933 36954 36930 36819 36719 36701 36745 36854 36944 36938 36751 36565 36457 36486 36533 36642 36800 36927 37062 36914 36544 36242 36110 36120 36240 36324 36384 36349 36338 36310 36244 36185 36218 36299 36416 36514 36488 36359 36267 36201 36048 35991 35973 35966 35959 35980 36010 36087 36175 36320 36321 36287 36226 36080 35938 35866 35847 35934 36020 36024 35771 35491 35328 35304 35379 35496 35685 35886 36048 36018 35696 35330 35102 35025 35105 35227 35328 35388 35399 35354 35231 35188 35174 35265 35392 35541 35567 35454 35342 35243 35150 35200 35270 35312 35303 35359 35464 35589 35727 35865 35939 35955 35976 35919 35776 35655 35651 35757 35910 36005 35851 35604 35491 35478 35575 35699 35921 36142 36348 36399 36181 35918 35792 35774 35880 36015 36107 36197 36342 36446 36484 36583 36654 36749 36877 37054 37089 37066 37078 37086 37115 37150 37176 37135 37091 37114 37133 37195 37245 37287 37308 37369 37429 37293 37199 37158 37177 37278 37343 37347 37145 36989 36934 36919 36998 37091 37236 37419 37548 37545 37294 37015 36860 36857 36955 37036 37104 37121 37146 37190 37185 37179 37167 37227 37354 37454 37410 37292 37228 37205 37153 37050 36940 36842 36817 36848 36899 36984 37098 37195 37161 37126 36883 36674 36545 36547 36647 36795 36861 36863 36652 36522 36474 36528 36632 36720 36876 37017 37108 36823 36408 36102 35997 36057 36140 36185 36170 36175 36233 36326 36317 36298 36287 36345 36454 36354 36216 36142 36155 36223 36201 36082 35887 35695 35670 35747 35884 36041 36227 36309 36231 36020 35673 35474 35397 35433 35550 35674 35783 35710 35433 35299 35291 35393 35540 35699 35915 36136 36155 35897 35474 35156 35026 35066 35169 35308 35330 35331 35360 35369 35279 35203 35211 35349 35541 35663 35623 35566 35566 35577 35474 35384 35318 35285 35317 35419 35531 35653 35822 35958 35974 35969 35959 35827 35712 35698 35750 35833 35944 36014 35884 35740 35700 35743 35832 35975 36085 36256 36441 36474 36299 36109 36007 36014 36060 36188 36342 36402 36417 36448 36404 36330 36325 36374 36493 36642 36792 36821 36838 36794 36702 36626 36637 36686 36765 36792 36863 36914 37012 37090 37118 37142 37194 37257 37329 37310 37311 37313 37328 37372 37356 37322 37286 37223 37257 37318 37379 37440 37536 37609 37669 37695 37659 37597 37550 37522 37517 37529 37577 37627 37518 37383 37291 37252 37250 37313 37396 37510 37628 37727 37610 37342 37073 36887 36828 36869 36947 37033 37048 37022 36862 36711 36610 36571 36578 36653 36804 36985 37008 36915 36734 36522 36415 36429 36498 36583 36617 36509 36484 36492 36492 36446 36388 36403 36493 36629 36609 36471 36397 36367 36337 36238 36151 36123 36060 36024 36020 36056 36135 36233 36274 36218 36178 36085 35931 35790 35707 35710 35762 35860 35812 35556 35245 35151 35166 35282 35431 35562 35764 35939 35922 35559 35135 34890 34864 34949 35089 35218 35257 35195 35045 34845 34741 34733 34819 35002 35200 35355 35305 35139 34908 34647 34502 34512 34599 34683 34668 34682 34739 34832 34959 34992 34947 34977 35081 35063 34963 34891 34865 34921 35021 34977 34825 34679 34636 34679 34774 34935 35097 35283 35484 35477 35289 35057 34903 34868 34906 35003 35146 35248 35298 35271 35170 35144 35176 35247 35427 35624 35809 35909 35837 35721 35571 35497 35505 35563 35625 35645 35684 35732 35822 35969 36059 36095 36174 36315 36381 36357 36343 36342 36353 36453 36504 36415 36324 36282 36291 36360 36445 36568 36720 36898 37004 36907 36728 36599 36561 36602 36693 36773 36830 36830 36882 36841 36844 36899 36977 37079 37237 37388 37399 37379 37343 37290 37221 37189 37154 37143 37166 37198 37255 37342 37440 37529 37548 37565 37533 37397 37311 37292 37346 37459 37498 37514 37347 37220 37149 37145 37216 37312 37438 37578 37695 37623 37320 37057 36865 36798 36812 36855 36877 36861 36919 36977 37041 37071 37044 37061 37135 37158 36980 36872 36825 36867 36882 36734 36559 36373 36276 36323 36440 36580 36710 36862 36901 36768 36411 36095 35910 35899 35951 36063 36152 36174 36141 35984 35944 36007 36084 36206 36351 36504 36486 36295 36052 35715 35491 35441 35468 35601 35595 35588 35669 35790 35925 35921 35855 35852 35851 35697 35565 35471 35449 35526 35603 35503 35178 35004 34973 35071 35238 35423 35619 35822 35951 35691 35225 34914 34784 34803 34924 35032 35108 35008 34945 34921 34979 35070 35161 35294 35424 35444 35262 35171 35205 35254 35235 35160 35121 35067 35058 35105 35185 35336 35539 35681 35680 35613 35395 35245 35237 35329 35448 35587 35683 35681 35558 35524 35631 35786 35989 36198 36402 36575 36595 36431 36218 36083 36032 36015 36050 36094 36077 36082 36155 36275 36304 36355 36432 36526 36628 36561 36505 36585 36846 37086 37144 37090 36969 36870 36870 36973 37093 37252 37407 37475 37480 37406 37214 37128 37168 37293 37396 37427 37424 37567 37681 37735 37840 37949 38063 38209 38382 38433 38439 38370 38264 38261 38296 38394 38445 38434 38424 38427 38451 38419 38382 38398 38469 38488 38314 38191 38064 38049 38058 38000 37793 37534 37333 37245 37270 37336 37437 37550 37700 37595 37177 36823 36621 36558 36584 36655 36735 36726 36715 36782 36828 36878 36910 36994 37109 37254 37283 37162 37122 37070 37031 36980 36935 36840 36831 36909 37057 37193 37324 37385 37354 37311 37170 37049 37074 37211 37356 37551 37612 37450 37297 37179 37209 37264 37352 37485 37705 37881 37785 37391 36999 36788 36798 36773 36822 36838 36804 36786 36824 36861 36804 36782 36810 36874 36896 36674 36563 36585 36625 36491 36274 36015 35943 35999 36081 36192 36315 36508 36710 36669 36372 35927 35764 35826 36050 36235 36315 36306 36248 36105 36007 35987 36095 36229 36405 36594 36595 36474 36328 36110 35946 35904 35887 35890 35923 35989 36089 36243 36379 36424 36424 36441 36351 36232 36170 36196 36251 36350 36395 36244 36087 36097 36246 36368 36543 36746 36938 37197 37033 36672 36325 36088 35967 35970 36023 36079 36056 36034 36166 36295 36369 36480 36606 36775 36738 36590 36519 36579 36594 36549 36428 36290 36295 36353 36481 36642 36727 36909 36989 37037 36955 36769 36667 36682 36790 36923 36995 36832 36557 36258 36186 36310 36462 36680 36914 37125 37076 36806 36563 36431 36437 36431 36464 36441 36454 36479 36603 36652 36708 36759 36886 37015 36950 36773 36671 36678 36638 36544 36482 36377 36365 36459 36570 36717 36833 37002 37048 36999 36734 36390 36196 36198 36351 36485 36559 36540 36413 36413 36528 36706 36924 37145 37328 37516 37565 37099 36652 36323 36147 36124 36169 36205 36204 36145 36195 36246 36276 36325 36407 36533 36594 36343 36103 35983 35873 35736 35591 35568 35544 35576 35682 35844 36057 36350 36685 37110 37453 37600 37495 37394 37266 37205 37195 37074 36715 36386 36486 36770 37081 37397 37698 38041 38352 38518 38246 37752 37342 37046 36883 36769 36728 36772 36701 36509 36434 36444 36492 36538 36647 36813 36958 37042 36626 36249 36006 35878 35873 35902 35885 35885 35917 35964 35980 35988 36037 36167 36373 36465 36279 36153 36078 35971 35784 35644 35551 35499 35512 35550 35672 35846 36035 36091 36063 36036 35930 35829 35791 35832 35907 36000 36124 36102 36023 35942 35910 35967 36099 36271 36480 36683 36761 36609 36526 36602 36704 36815 36937 37040 37122 37109 37000 36909 36870 36945 37118 37327 37442 37413 37362 37279 37178 37115 37109 37127 37205 37216 37219 37248 37311 37318 37340 37426 37497 37463 37436 37457 37431 37472 37442 37344 37283 37243 37209 37226 37305 37416 37564 37733 37780 37664 37446 37278 37209 37193 37183 37216 37317 37316 37222 37094 37054 37089 37207 37386 37613 37800 37796 37537 37211 36945 36819 36852 36931 37000 37135 37207 37335 37348 37325 37328 37439 37635 37742 37626 37531 37488 37423 37288 37159 37081 36959 37015 37052 37164 37227 37370 37474 37484 37512 37482 37282 37170 37107 37127 37165 37220 37054 36771 36667 36604 36632 36745 36911 37077 37259 37318 37080 36662 36375 36279 36285 36371 36494 36585 36662 36535 36333 36245 36265 36393 36594 36844 37125 37095 36976 36729 36504 36392 36380 36444 36517 36550 36523 36549 36588 36547 36472 36482 36592 36753 36705 36536 36462 36384 36194 36011 35917 35856 35908 35907 35950 36024 36140 36262 36223 36214 36239 36127 35952 35908 35912 35969 36024 35823 35592 35379 35403 35444 35543 35673 35853 36042 36183 36165 35943 35697 35628 35640 35720 35818 35947 35970 35965 35792 35693 35742 35872 36033 36224 36449 36674 36681 36475 36271 36139 36107 36176 36246 36306 36413 36478 36502 36509 36501 36498 36557 36669 36819 36877 36746 36659 36507 36316 36216 36213 36286 36364 36387 36404 36522 36648 36707 36726 36773 36833 36771 36697 36695 36732 36761 36736 36607 36475 36423 36439 36519 36632 36798 36992 37100 37108 37019 36779 36622 36563 36567 36602 36678 36769 36751 36578 36446 36441 36501 36611 36791 37003 37201 37047 36672 36378 36236 36277 36344 36444 36504 36552 36590 36618 36621 36588 36625 36769 36973 36899 36790 36753 36714 36596 36442 36330 36272 36330 36340 36371 36513 36698 36823 36768 36738 36715 36624 36513 36518 36550 36604 36653 36485 36282 36124 36080 36156 36302 36506 36746 36978 37007 36582 36143 35895 35850 35922 36061 36206 36369 36401 36264 36154 36117 36186 36273 36465 36695 36883 36806 36638 36406 36205 36128 36167 36286 36385 36420 36478 36477 36487 36443 36418 36514 36703 36839 36737 36692 36679 36667 36546 36451 36377 36379 36431 36539 36653 36805 36993 37048 36984 36972 36817 36700 36678 36689 36747 36850 36951 36901 36763 36673 36699 36779 36896 37036 37225 37396 37471 37217 36997 36862 36808 36849 36901 37040 37165 37255 37252 37177 37127 37116 37180 37342 37547 37651 37583 37543 37421 37270 37195 37194 37317 37402 37480 37558 37623 37692 37670 37683 37753 37783 37722 37705 37697 37721 37774 37681 37557 37400 37377 37397 37500 37598 37672 37791 37862 37816 37566 37285 37150 37125 37169 37213 37277 37386 37291 37140 37029 36981 37045 37170 37361 37552 37629 37405 37097 36843 36682 36626 36710 36851 36951 37008 37075 37090 36960 36875 36891 37035 37168 37065 36959 36893 36893 36798 36618 36485 36367 36333 36459 36641 36868 37068 37216 37130 36914 36617 36451 36424 36483 36559 36633 36742 36601 36358 36212 36231 36332 36478 36626 36831 37027 37054 36660 36356 36163 36088 36146 36249 36363 36435 36456 36452 36359 36303 36273 36316 36462 36597 36418 36385 36376 36211 36054 35941 35940 36004 36050 36125 36253 36403 36480 36372 36264 36252 36172 36081 35994 35981 36013 36039 35838 35583 35451 35420 35482 35584 35706 35895 36173 36347 36046 35564 35220 35120 35129 35224 35330 35441 35499 35279 35086 34961 35012 35178 35386 35611 35797 35646 35450 35159 34942 34937 35005 35147 35249 35304 35413 35517 35553 35405 35301 35364 35514 35527 35382 35307 35309 35249 35035 34898 34945 35043 35193 35358 35550 35783 36007 36045 35881 35737 35467 35355 35389 35403 35432 35540 35591 35336 35046 34956 35055 35240 35462 35698 35944 36138 35913 35484 35193 35103 35158 35275 35458 35664 35779 35849 35836 35823 35817 35840 36006 36251 36348 36228 36130 35912 35691 35659 35690 35833 35971 36109 36294 36410 36566 36627 36624 36687 36785 36747 36698 36708 36769 36855 36774 36602 36444 36386 36487 36632 36744 36892 37068 37241 37198 37087 36774 36597 36533 36538 36573 36661 36812 36744 36498 36344 36247 36289 36451 36705 36977 37253 37318 37033 36780 36631 36640 36767 36947 37157 37376 37558 37685 37714 37701 37754 37865 38012 38080 37901 37815 37745 37521 37315 37173 37104 37178 37201 37218 37282 37436 37542 37485 37444 37401 37251 37162 37130 37124 37174 37261 37231 36942 36669 36585 36653 36784 36900 37062 37242 37188 36722 36274 36050 35995 36064 36159 36236 36310 36319 36155 36009 35988 36089 36254 36442 36662 36655 36506 36375 36161 35986 35973 36041 36161 36193 36238 36317 36448 36506 36410 36345 36425 36586 36591 36429 36386 36396 36407 36264 36093 35964 35953 36028 36174 36317 36509 36750 36781 36559 36081 35757 35682 35730 35899 36103 36343 36508 36379 36214 36141 36142 36245 36479 36721 36975 36894 36502 36043 35677 35497 35472 35575 35703 35768 35856 35974 35998 35897 35850 35966 36143 36187 36046 35952 35919 35810 35568 35405 35347 35399 35515 35675 35852 36036 36285 36354 36234 35925 35555 35395 35337 35352 35502 35777 35952 35864 35767 35773 35848 35942 36126 36398 36704 36702 36338 35978 35704 35567 35593 35770 35894 35912 35909 35989 36021 36056 36122 36316 36561 36741 36751 36746 36779 36589 36347 36259 36194 36195 36236 36397 36550 36672 36761 36632 36531 36319 36041 35941 35859 35844 35907 36061 35973 35778 35669 35764 35979 36236 36518 36807 37064 36997 36548 36209 35991 35868 35838 35983 36242 36382 36453 36483 36431 36395 36350 36431 36567 36720 36578 36467 36328 35995 35724 35656 35798 35966 36003 36051 36185 36368 36369 36210 36196 36302 36338 36217 36153 36140 36126 35994 35747 35666 35562 35592 35728 35870 36003 36190 36362 36228 36092 35796 35605 35537 35513 35519 35648 35886 35920 35644 35439 35407 35459 35623 35826 36101 36393 36301 35763 35316 35113 35108 35182 35315 35572 35671 35702 35538 35328 35306 35448 35667 35960 36260 36287 36220 35934 35591 35370 35357 35523 35765 35881 35924 35987 35943 35785 35687 35759 35969 36112 36010 35968 35931 35895 35641 35347 35193 35091 35141 35261 35414 35566 35797 35913 35733 35558 35222 35024 34984 35012 35132 35301 35442 35137 34763 34627 34729 34888 35124 35397 35678 35952 35840 35415 35061 34914 34911 35031 35200 35421 35646 35616 35391 35284 35307 35428 35591 35800 35996 36112 35828 35316 34952 34803 34852 34992 35158 35228 35266 35288 35157 34972 34850 34900 35136 35481 35743 35632 35532 35403 35152 34977 34949 35027 35157 35220 35276 35404 35563 35549 35397 35377 35494 35599 35574 35523 35528 35554 35405 35129 35056 35105 35213 35396 35591 35804 35998 36136 36020 35935 35867 35747 35658 35641 35639 35686 35789 35676 35461 35334 35348 35458 35630 35832 36064 36350 36413 36140 35713 35440 35385 35432 35525 35630 35760 35794 35526 35282 35220 35342 35552 35791 36006 36184 36101 35664 35230 34985 34953 35050 35213 35471 35599 35681 35755 35675 35585 35583 35683 35923 36143 36130 36027 35952 35727 35458 35310 35403 35566 35691 35841 36090 36305 36448 36293 36181 36228 36296 36218 36172 36171 36159 36162 35956 35739 35538 35507 35615 35799 36028 36194 36384 36412 36211 35867 35611 35535 35542 35570 35659 35804 36054 35774 35529 35483 35537 35679 35856 36078 36309 36508 36432 35992 35634 35447 35361 35373 35504 35727 35883 35900 35740 35620 35583 35649 35768 35984 36239 36233 36068 35759 35332 35117 35074 35183 35357 35464 35553 35640 35757 35818 35828 35916 36100 36198 36052 36011 35983 36040 35879 35605 35517 35498 35568 35650 35758 35852 35991 36187 36142 36037 35858 35645 35533 35530 35584 35686 35814 35630 35288 35116 35126 35185 35298 35434 35593 35819 35925 35413 34932 34691 34665 34739 34901 35097 35357 35437 35300 35176 35115 35135 35258 35464 35662 35820 35640 35259 34825 34587 34581 34714 34910 35038 35140 35216 35242 35187 35148 35207 35365 35508 35564 35444 35334 35256 34964 34709 34642 34702 34835 34928 35088 35244 35398 35520 35357 35304 35297 35247 35121 35073 35050 35043 35125 35101 34936 34797 34812 34954 35159 35368 35605 35841 35851 35648 35324 35107 35049 35038 35052 35190 35441 35618 35405 35180 35150 35249 35427 35640 35895 36197 36298 35929 35513 35235 35155 35200 35316 35471 35581 35564 35478 35268 35104 35066 35135 35361 35631 35905 35826 35810 35685 35469 35303 35257 35373 35665 35783 35932 36154 36380 36438 36382 36357 36455 36588 36509 36459 36437 36418 36233 36031 35985 36024 36116 36224 36331 36481 36611 36733 36647 36573 36453 36232 36188 36202 36259 36364 36470 36329 36169 36006 35974 35997 36076 36231 36424 36584 36649 36466 36026 35723 35619 35623 35683 35790 35931 36046 35880 35637 35516 35565 35647 35829 36117 36351 36533 36188 35762 35425 35230 35221 35352 35583 35802 35904 36023 36034 35949 35920 35984 36132 36306 36230 36042 35966 35784 35439 35227 35212 35343 35437 35519 35652 35789 35983 36084 35995 35927 35684 35469 35416 35417 35420 35466 35478 35139 34862 34776 34854 35031 35292 35536 35784 35966 35778 35128 34727 34581 34522 34609 34720 34958 35205 35284 35158 35079 35085 35142 35279 35527 35815 35870 35622 35283 34952 34756 34724 34831 35099 35211 35291 35364 35440 35269 35157 35233 35449 35707 35589 35457 35417 35450 35373 35153 35002 34932 34998 35063 35170 35309 35479 35665 35596 35509 35323 35052 35018 35085 35170 35303 35435 35459 35259 35079 35069 35130 35306 35513 35754 36021 36225 35814 35471 35261 35183 35287 35434 35679 35930 36122 36162 36067 35980 36041 36179 36376 36580 36688 36770 36827 36650 36463 36376 36366 36445 36579 36658 36720 36832 36906 36790 36713 36678 36701 36538 36540 36542 36596 36667 36546 36423 36312 36329 36428 36541 36582 36701 36864 36919 36762 36473 36239 36195 36236 36302 36432 36566 36593 36320 36085 35924 35957 36147 36423 36637 36782 36966 36821 36527 36293 36143 36130 36250 36441 36585 36603 36509 36356 36245 36193 36268 36411 36603 36610 36505 36306 35958 35699 35597 35655 35752 35868 36008 36075 36179 36289 36199 36036 35924 35922 35844 35799 35807 35904 35919 35554 35108 34831 34753 34778 34966 35169 35431 35677 35615 35067 34526 34272 34295 34446 34611 34704 34681 34531 34202 34051 34155 34301 34537 34710 34750 34728 34519 34123 33853 33859 33996 34123 34248 34306 34339 34402 34468 34351 34262 34300 34397 34462 34424 34389 34520 34622 34442 34278 34205 34201 34335 34498 34642 34811 35028 35094 34924 34528 34237 34174 34242 34362 34537 34723 34826 34744 34727 34684 34719 34834 35065 35324 35556 35689 35490 35230 35056 35020 35133 35367 35651 35837 35939 35852 35698 35615 35614 35710 35869 36015 35988 35971 35906 35697 35493 35431 35516 35586 35651 35717 35763 35883 35982 36148 36338 36546 36711 36770 36778 36785 36774 36660 36480 36434 36468 36468 36543 36673 36833 37002 37000 36790 36469 36326 36314 36376 36510 36673 36848 36878 36695 36491 36372 36400 36562 36827 37054 37204 37023 36657 36358 36239 36287 36409 36552 36677 36746 36777 36700 36600 36550 36664 36836 36969 36808 36658 36621 36449 36208 36098 36112 36189 36289 36287 36380 36565 36661 36633 36594 36589 36434 36375 36345 36334 36355 36363 36157 35959 35898 35951 36094 36253 36447 36666 36715 36421 35932 35578 35458 35459 35541 35699 35899 36003 35742 35425 35201 35216 35343 35627 35897 36152 36123 35633 35103 34829 34803 34910 35066 35114 35159 35151 34957 34697 34650 34742 34984 35241 35397 35250 35120 34951 34641 34455 34440 34512 34539 34604 34663 34777 34903 34855 34768 34773 34871 34880 34843 34781 34764 34793 34622 34441 34342 34374 34505 34619 34754 34946 35152 35159 34965 34869 34742 34668 34666 34711 34824 34949 34804 34560 34504 34589 34711 34880 35094 35316 35599 35680 35454 35117 34940 34918 35011 35147 35288 35372 35229 35024 34922 34987 35140 35386 35658 35911 36105 36021 35633 35267 35126 35125 35256 35382 35446 35557 35574 35442 35350 35408 35552 35773 35995 36160 36131 35953 35632 35459 35416 35511 35628 35649 35682 35714 35706 35621 35585 35609 35757 35930 36098 36007 35867 35794 35600 35463 35451 35501 35566 35612 35677 35758 35878 35876 35842 35900 36010 36162 36122 36035 35977 35947 35854 35747 35722 35722 35815 35886 35934 36097 36310 36370 36258 36157 36106 36014 35972 35975 35999 36068 35925 35685 35487 35533 35616 35763 35947 36160 36401 36519 36322 36011 35742 35649 35631 35705 35862 36018 35869 35373 35067 34995 35106 35303 35565 35842 36092 36029 35552 35071 34805 34763 34871 35053 35152 35208 35106 34791 34542 34554 34732 34954 35246 35492 35606 35358 34778 34361 34202 34274 34436 34557 34580 34621 34630 34433 34317 34370 34581 34864 35116 35217 35135 34913 34510 34137 34010 34097 34239 34338 34331 34338 34431 34466 34372 34341 34452 34650 34836 34764 34590 34505 34369 34103 33954 33917 34009 34048 34101 34185 34344 34507 34464 34409 34460 34617 34715 34618 34527 34458 34373 34102 33913 33892 33944 34049 34149 34258 34436 34700 34805 34764 34732 34699 34476 34382 34371 34434 34534 34384 34188 34023 34071 34212 34351 34547 34775 34968 34944 34774 34583 34346 34280 34296 34376 34479 34589 34568 34204 33967 34022 34203 34522 34826 35121 35297 35258 34823 34374 34237 34291 34468 34646 34757 34863 34907 34718 34635 34681 34818 35033 35276 35523 35696 35537 35102 34770 34601 34627 34750 34924 35033 35081 35104 35020 34943 34992 35114 35338 35570 35696 35696 35575 35351 35066 34997 34989 35056 35116 35169 35247 35336 35451 35358 35303 35369 35490 35482 35303 35173 35157 35121 34919 34750 34687 34697 34779 34935 35101 35300 35528 35549 35419 35272 35025 34849 34842 34867 34939 35018 34852 34490 34277 34249 34409 34695 34978 35267 35617 35804 35598 35220 34988 34940 34949 35033 35116 35238 35115 34716 34463 34439 34574 34789 35093 35344 35519 35538 35055 34590 34399 34365 34459 34609 34767 34849 34884 34832 34750 34768 34855 35031 35173 35275 35230 35029 34594 34149 33989 34050 34201 34374 34388 34425 34474 34623 34643 34668 34734 34916 35056 34971 34788 34689 34672 34426 34195 34083 34067 34104 34156 34270 34477 34757 34893 34773 34708 34619 34448 34348 34331 34369 34479 34423 34093 33766 33637 33693 33831 34098 34438 34744 34914 34723 34353 34005 33856 33896 33992 34108 34219 34390 34190 33959 33908 34077 34386 34702 35013 35325 35544 35128 34558 34235 34154 34231 34371 34567 34756 34843 34700 34480 34412 34527 34737 35037 35301 35390 35223 35047 34659 34365 34303 34355 34558 34706 34782 34848 34948 34944 34889 34948 35095 35324 35293 35100 35002 34968 34814 34603 34504 34485 34476 34521 34655 34839 35083 35207 35040 34867 34769 34674 34599 34598 34681 34792 34881 34718 34379 34241 34260 34407 34617 34879 35158 35405 35162 34745 34315 34185 34158 34196 34280 34353 34399 34131 33923 33918 34005 34292 34574 34920 35180 35356 35056 34373 34114 34018 34096 34172 34257 34343 34374 34209 33982 33908 34048 34331 34660 34948 35201 35105 34848 34423 34168 34138 34257 34387 34520 34591 34608 34689 34672 34600 34578 34645 34758 34888 34695 34597 34630 34438 34190 34024 34005 34026 34022 34077 34236 34513 34744 34649 34558 34574 34453 34354 34294 34299 34348 34305 33963 33724 33711 33875 34077 34275 34519 34793 34928 34750 34533 34221 34097 34123 34207 34337 34479 34516 34080 33670 33453 33504 33681 33964 34243 34520 34626 34309 33797 33467 33446 33543 33700 33840 33888 33865 33566 33368 33376 33640 34008 34324 34649 34930 35088 34878 34309 34024 33979 34071 34259 34485 34828 35159 35329 35219 35086 35100 35185 35315 35412 35551 35651 35479 35150 34869 34831 34929 35132 35367 35350 35325 35374 35382 35263 35163 35161 35207 35307 35296 35311 35368 35208 35002 34897 34947 35092 35225 35448 35695 35947 36088 35996 35888 35709 35424 35368 35376 35369 35474 35495 35234 34984 34936 34985 35152 35419 35663 35921 36002 35671 35102 34612 34461 34514 34663 34820 34938 34935 34533 34295 34334 34520 34755 35001 35251 35471 35399 34839 34382 34235 34342 34521 34706 34813 34830 34884 34886 34854 34835 34911 35125 35375 35442 35200 35030 34870 34707 34628 34644 34753 34811 34870 34996 35126 35271 35247 35158 35146 35121 34992 34807 34789 34899 35016 34880 34726 34702 34887 35167 35386 35648 35948 36206 36288 36132 35871 35557 35353 35298 35279 35346 35474 35334 35070 34843 34831 34943 35092 35316 35544 35822 35831 35546 35120 34778 34684 34688 34748 34891 35086 35156 34868 34625 34559 34666 34866 35087 35333 35541 35519 35037 34557 34296 34259 34374 34556 34758 34845 34819 34584 34483 34579 34774 34993 35228 35314 35062 34835 34531 34290 34209 34297 34481 34666 34802 34912 35054 35173 35174 35134 35218 35392 35365 35141 35017 34989 34811 34561 34364 34468 34671 34878 35014 35201 35397 35549 35408 35340 35335 35243 35007 34943 34923 34937 34879 34633 34455 34449 34624 34789 35011 35280 35546 35740 35577 35385 35110 34972 34933 34970 35040 35129 35150 34707 34461 34386 34493 34745 35085 35348 35545 35571 35170 34592 34308 34281 34372 34529 34715 34868 34884 34628 34390 34347 34527 34808 35098 35353 35510 35363 34838 34427 34226 34247 34417 34613 34782 34830 34898 34757 34659 34705 34840 35107 35324 35482 35281 35067 34674 34355 34325 34471 34631 34776 34741 34695 34725 34776 34826 34846 34961 35143 35245 35121 35004 34948 34743 34502 34440 34526 34615 34616 34596 34696 34954 35169 35072 34959 35059 35140 35118 35019 34946 34908 34701 34471 34423 34480 34646 34799 34873 35015 35184 35217 35080 34981 34905 34743 34610 34615 34737 34879 34786 34538 34361 34363 34500 34643 34837 35063 35299 35415 35230 34963 34686 34623 34680 34792 34949 35090 34993 34608 34430 34483 34646 34857 35117 35389 35679 35724 35364 34881 34609 34606 34715 34882 35071 35201 35025 34749 34595 34713 34940 35211 35489 35678 35783 35582 35039 34655 34524 34611 34770 34935 35030 35034 34966 34729 34634 34766 35034 35367 35628 35766 35627 35316 34879 34662 34667 34782 34894 34927 34975 35019 35008 34887 34859 35001 35188 35343 35386 35292 35176 35055 34770 34610 34635 34709 34761 34831 34886 35000 35156 35219 35224 35242 35322 35340 35296 35241 35167 35072 34831 34621 34576 34592 34658 34766 34881 35047 35290 35315 35209 35109 35002 34892 34806 34808 34851 34860 34559 34275 34148 34227 34347 34518 34769 35073 35313 35212 34836 34579 34453 34385 34417 34478 34547 34583 34191 33820 33728 33810 33995 34277 34589 34878 35108 34777 34250 33909 33838 33910 34049 34189 34265 34191 33747 33498 33427 33611 33955 34310 34618 34816 34798 34334 33858 33609 33612 33711 33886 34000 34059 34033 33802 33536 33455 33602 33902 34254 34583 34777 34742 34341 33806 33461 33366 33398 33492 33613 33724 33813 33755 33531 33446 33633 33932 34286 34649 34930 35026 34895 34426 34032 33862 33856 33962 34085 34194 34186 34070 33690 33547 33564 33760 34089 34430 34665 34654 34343 33775 33418 33375 33494 33686 33773 33752 33677 33662 33568 33529 33613 33845 34182 34499 34681 34631 34420 34011 33715 33709 33898 34086 34169 34093 34076 34234 34500 34618 34729 34878 35099 35182 35009 34777 34660 34503 34263 34153 34183 34193 34133 34158 34274 34535 34770 34783 34786 34841 34858 34728 34622 34555 34582 34630 34444 34247 34070 34014 34067 34207 34404 34658 34906 34862 34728 34625 34408 34280 34255 34297 34393 34511 34298 33921 33656 33669 33884 34204 34541 34874 35172 35140 34800 34368 34161 34157 34240 34359 34498 34606 34495 33972 33708 33705 33929 34235 34515 34814 35034 35013 34424 33957 33787 33861 34041 34217 34348 34365 34192 33885 33738 33894 34160 34469 34795 35087 35264 35112 34499 34008 33821 33880 34066 34262 34360 34296 34185 34066 34036 34087 34247 34497 34765 34960 34907 34708 34512 34175 34016 34056 34191 34339 34351 34284 34299 34429 34506 34450 34446 34573 34723 34734 34579 34449 34408 34153 34031 34064 34192 34229 34165 34249 34409 34644 34848 34817 34795 34835 34858 34690 34516 34454 34503 34431 34256 34174 34127 34081 34139 34323 34601 34906 35128 35040 34914 34784 34532 34407 34419 34486 34565 34596 34354 34037 33857 33917 34110 34345 34628 34932 35216 35166 34865 34487 34320 34377 34483 34610 34745 34851 34592 34167 34057 34168 34421 34705 34966 35241 35471 35456 34881 34461 34316 34347 34469 34654 34769 34862 34638 34172 33989 34096 34369 34697 35027 35316 35548 35508 35010 34621 34448 34448 34599 34757 34888 34911 34828 34666 34474 34492 34633 34878 35190 35427 35578 35470 35164 34733 34503 34546 34729 34879 34940 34829 34706 34688 34644 34613 34689 34827 35039 35203 35272 35023 34858 34610 34376 34322 34416 34512 34551 34477 34495 34677 34923 34984 35110 35350 35647 35911 35842 35665 35567 35478 35192 34949 34859 34925 35029 35020 35067 35215 35475 35555 35558 35621 35744 35795 35548 35304 35214 35180 34981 34775 34722 34748 34861 35086 35330 35578 35821 35934 35740 35576 35443 35247 35102 35077 35129 35264 35337 35011 34673 34536 34597 34762 34986 35260 35526 35781 35617 35251 34794 34733 34821 34959 35072 35212 35360 35265 34801 34570 34647 34889 35219 35530 35758 35941 35821 35151 34734 34555 34514 34608 34734 34849 35083 35026 34912 34818 34868 34968 35087 35250 35417 35580 35357 35035 34674 34382 34297 34367 34572 34702 34701 34724 34820 34839 34837 34872 34989 35155 35111 34906 34823 34835 34644 34439 34357 34361 34343 34357 34538 34844 35145 35262 35051 34975 35025 34913 34701 34655 34696 34738 34729 34469 34273 34115 34139 34244 34500 34735 35011 35235 35095 34882 34478 34326 34318 34327 34438 34567 34721 34643 34251 34140 34246 34584 34905 35155 35440 35687 35657 35071 34608 34419 34428 34566 34736 34931 34934 34868 34780 34802 34908 35030 35210 35460 35657 35612 35418 35202 34973 34920 35096 35394 35663 35831 35978 36069 36215 36123 35962 35949 36112 36358 36279 36154 36075 36077 35997 35766 35587 35462 35379 35387 35494 35680 35890 36038 35919 35809 35722 35581 35572 35632 35707 35750 35788 35656 35384 35229 35294 35552 35789 35992 36156 36332 36331 36042 35539 35266 35224 35274 35331 35450 35627 35717 35468 35247 35175 35237 35382 35634 35990 36280 36394 36065 35604 35302 35149 35205 35356 35560 35669 35673 35670 35532 35449 35459 35633 35903 36127 36175 35920 35819 35629 35359 35188 35127 35174 35195 35155 35154 35232 35408 35297 35173 35250 35431 35573 35335 35269 35300 35255 34942 34642 34571 34519 34568 34604 34706 34889 35122 35205 35018 34875 34750 34505 34484 34524 34563 34619 34672 34471 34119 33956 34017 34309 34673 35026 35323 35538 35465 35153 34751 34554 34626 34687 34734 34847 34979 34989 34834 34605 34696 34938 35219 35464 35718 35969 36107 35716 35353 35065 34938 34966 35059 35234 35304 35335 35332 35297 35323 35375 35497 35700 35870 35853 35663 35603 35403 35097 34881 34817 34941 34961 34900 34910 35055 35232 35149 35021 35116 35270 35299 35266 35262 35316 35490 35412 35159 34993 34897 34903 35002 35218 35474 35719 35902 35773 35553 35175 35044 35056 35164 35355 35577 35788 35556 35328 35224 35326 35522 35811 36114 36398 36566 36524 35920 35487 35341 35424 35553 35593 35661 35764 35799 35722 35664 35718 35786 35892 36086 36265 36344 36217 36022 35570 35160 34981 35047 35257 35529 35559 35620 35748 35793 35704 35659 35727 35868 35899 35750 35649 35609 35421 35118 35015 35105 35167 35303 35419 35587 35808 36038 36000 35867 35786 35498 35354 35304 35346 35383 35503 35396 35006 34586 34477 34536 34785 35032 35226 35412 35622 35377 34887 34367 34229 34303 34473 34640 34722 34872 34702 34335 34138 34175 34336 34499 34689 34937 35191 35139 34616 34145 33913 33921 34072 34272 34486 34576 34599 34566 34562 34607 34639 34797 34986 35165 34974 34797 34723 34490 34279 34183 34228 34367 34342 34377 34474 34636 34822 34616 34497 34600 34812 34673 34521 34529 34617 34661 34412 34176 34071 34149 34331 34428 34589 34846 35095 35106 34927 34833 34563 34403 34492 34586 34697 34808 34937 34804 34519 34453 34534 34747 34983 35217 35428 35654 35579 35143 34730 34601 34627 34706 34840 34954 35107 35118 34888 34746 34767 34970 35173 35335 35536 35697 35740 35405 35054 34867 34836 34981 35109 35270 35333 35418 35528 35603 35663 35701 35770 35955 36180 36165 36084 36005 36001 35813 35680 35655 35737 35756 35719 35724 35797 36035 36129 36005 35993 36140 36275 36139 36026 36027 36061 36045 35844 35736 35752 35754 35882 35978 36180 36443 36645 36597 36452 36373 36212 36060 36015 36086 36159 36284 36361 36201 36015 36073 36315 36545 36751 36905 37054 37265 37287 37003 36476 36213 36162 36150 36178 36260 36369 36489 36204 35927 35774 35813 35933 36054 36232 36429 36567 36131 35473 34961 34739 34760 34932 35174 35374 35372 35415 35250 35073 35000 35001 35199 35430 35659 35396 35211 35000 34584 34368 34422 34601 34872 34948 34964 35064 35209 35351 35177 34997 35068 35258 35266 35100 35107 35133 35096 34773 34475 34486 34569 34577 34663 34828 35031 35255 35225 34970 34847 34869 34718 34759 34799 34799 34830 34922 34756 34528 34356 34377 34542 34784 35001 35207 35393 35427 35138 34743 34427 34400 34466 34537 34668 34844 34900 34499 34143 34051 34243 34537 34800 35084 35336 35569 35388 34901 34555 34447 34474 34617 34798 35061 35165 35164 35002 34817 34770 34840 35015 35272 35469 35620 35528 35433 35165 34886 34746 34770 34969 35158 35263 35364 35493 35676 35604 35450 35434 35502 35582 35483 35419 35386 35210 34870 34717 34720 34779 34850 34979 35233 35530 35814 35863 35732 35659 35561 35429 35434 35467 35430 35478 35460 35239 35029 34964 35069 35272 35527 35724 35885 36021 35945 35669 35280 35277 35247 35298 35370 35448 35569 35733 35596 35531 35541 35657 35847 35967 36152 36314 36395 36055 35596 35237 35089 35136 35343 35648 35853 35915 36086 36161 36145 36090 36065 36242 36475 36527 36314 36269 36178 35811 35548 35476 35609 35717 35726 35770 35903 36079 36057 35782 35720 35802 35817 35701 35656 35646 35641 35593 35255 35073 34956 35021 35152 35330 35550 35746 35924 35799 35550 35337 35073 35027 35074 35074 35081 35111 35276 35006 34710 34560 34690 34950 35192 35466 35760 35983 35941 35262 34823 34607 34514 34552 34658 34886 35076 35077 34884 34760 34719 34794 34958 35163 35360 35511 35322 35034 34558 34200 34171 34359 34711 35055 35226 35380 35593 35736 35703 35541 35535 35657 35742 35508 35374 35338 35125 34760 34511 34453 34493 34624 34751 34912 35177 35422 35364 35168 35044 34900 34693 34711 34772 34785 34838 34782 34568 34367 34409 34524 34783 35051 35282 35495 35651 35543 35254 34785 34680 34717 34759 34812 34890 35072 35084 34774 34545 34544 34720 34934 35151 35373 35562 35578 35113 34696 34439 34404 34532 34766 35043 35189 35246 35248 35198 35138 35104 35169 35494 35815 35972 35733 35536 35202 34791 34603 34595 34782 34949 35078 35178 35362 35569 35454 35233 35238 35401 35470 35344 35379 35443 35414 35294 35019 34925 35227 35532 35822 36073 36183 36351 36341 35986 35761 35567 35323 35225 35186 35118 35108 35156 35220 34962 34768 34818 35013 35247 35456 35653 35893 36098 35873 35345 34976 34802 34825 34906 35054 35265 35334 35314 35124 35009 35012 35117 35319 35568 35889 36013 35858 35582 35119 34749 34623 34714 34986 35010 34945 35084 35322 35433 35229 35071 35127 35413 35355 35318 35266 35228 34990 34649 34540 34590 34636 34742 34911 35150 35351 35527 35443 35305 35163 34916 34755 34774 34780 34769 34826 34888 34602 34284 34166 34274 34499 34778 35016 35267 35466 35430 34912 34486 34366 34354 34382 34461 34615 34820 34951 34918 34832 34855 34923 35040 35241 35430 35594 35455 35210 34789 34377 34207 34257 34466 34690 34760 34832 34958 35135 35133 35009 35009 35122 35169 34936 34734 34694 34712 34531 34303 34234 34222 34221 34328 34480 34760 35000 35226 35200 35128 35028 34775 34743 34808 34877 34917 34997 35018 34745 34492 34525 34633 34901 35122 35391 35695 35946 35815 35229 34864 34752 34715 34750 34843 35053 35212 35210 35108 34987 35011 35108 35254 35452 35665 35760 35542 35364 35047 34731 34606 34638 34858 34982 35013 35090 35206 35350 35340 35244 35326 35454 35544 35367 35207 35143 35103 34872 34615 34606 34602 34692 34796 34964 35312 35649 35900 35807 35678 35490 35224 35220 35202 35179 35225 35296 35414 35122 34878 34833 34980 35210 35462 35711 35972 36168 35872 35305 34953 34788 34759 34835 34978 35165 35238 35216 35035 34934 34956 35125 35349 35603 35796 35818 35548 35192 34690 34368 34311 34485 34706 34786 34813 34866 34955 34919 34754 34673 34736 34909 34974 34772 34665 34639 34642 34530 34361 34217 34183 34223 34365 34590 34861 35182 35343 35104 34891 34571 34460 34460 34512 34533 34584 34706 34668 34336 34179 34215 34434 34722 34969 35202 35433 35530 34948 34337 34023 33967 34031 34238 34446 34629 34600 34513 34283 34228 34319 34533 34770 35038 35138 35034 34857 34533 34147 33970 33973 34124 34246 34279 34358 34515 34694 34779 34646 34555 34610 34681 34507 34371 34293 34273 34292 34110 34003 33880 33815 33922 34085 34371 34708 34922 35019 34795 34561 34215 34063 34054 34102 34183 34363 34558 34380 33989 33799 33889 34082 34336 34668 34943 35150 35152 34489 34013 33816 33834 33983 34194 34377 34462 34402 34273 34088 34092 34247 34491 34770 35027 35096 34863 34763 34593 34369 34282 34304 34412 34472 34446 34507 34743 35052 35165 35138 35154 35278 35368 35205 35063 35049 34989 34943 34656 34474 34400 34383 34476 34635 34858 35079 35291 35261 35070 34841 34590 34407 34344 34308 34350 34468 34548 34235 33920 33808 33963 34235 34573 34912 35221 35434 35266 34628 34077 33904 33905 34032 34243 34506 34725 34711 34424 34331 34366 34573 34881 35252 35524 35608 35443 35073 34613 34328 34277 34372 34553 34711 34778 34790 34860 34836 34741 34701 34807 34989 35143 34972 34774 34657 34430 34163 34056 34108 34203 34215 34300 34433 34648 34932 35111 35038 34920 34819 34719 34510 34410 34380 34344 34308 34038 33766 33686 33777 34004 34272 34559 34818 35124 35170 34775 34185 33838 33776 33827 33930 34123 34308 34392 34022 33703 33679 33926 34275 34671 34982 35217 35254 34687 33974 33557 33426 33515 33669 33836 33854 33784 33730 33653 33655 33805 33998 34203 34372 34318 33993 33808 33654 33356 33214 33165 33173 33073 33023 33070 33278 33550 33750 33653 33650 33706 33661 33579 33640 33781 34021 34185 33992 33628 33419 33413 33587 33838 34128 34444 34763 34860 34592 34293 33940 33956 33976 34032 34123 34214 34371 34326 34222 34340 34501 34785 35120 35438 35705 35856 35654 34840 34244 33985 33928 34037 34189 34349 34457 34462 34419 34447 34659 35023 35440 35942 36593 36719 36529 36411 36055 35717 35524 35472 35459 35507 35494 35595 35729 35749 35553 35395 35430 35585 35615 35464 35346 35244 35140 34914 34630 34516 34396 34379 34432 34598 34785 35007 35161 35033 34929 34752 34491 34422 34419 34475 34585 34691 34616 34206 33994 33980 34180 34415 34668 34943 35176 35237 34658 34032 33643 33541 33642 33776 33970 34070 34145 34068 33821 33767 33911 34174 34500 34849 35045 34955 34688 34132 33722 33598 33649 33774 33831 33859 33899 34059 34232 34198 34193 34266 34422 34414 34251 34124 34078 34102 33945 33667 33507 33439 33537 33626 33772 34007 34344 34596 34465 34373 34215 34040 33889 33823 33833 33919 34049 33972 33599 33443 33452 33615 33868 34174 34506 34831 34945 34490 33940 33606 33567 33624 33732 33825 33883 33853 33681 33425 33416 33623 33909 34219 34545 34780 34850 34612 34099 33741 33574 33588 33697 33809 33834 33867 33944 33835 33789 33854 34105 34418 34671 34701 34512 34367 34196 33897 33727 33770 33902 34037 34095 34178 34261 34391 34330 34149 34159 34315 34462 34552 34504 34446 34423 34280 33981 33904 33988 34097 34130 34111 34105 34114 34180 34105 33990 34053 34221 34440 34626 34740 34811 34830 34692 34316 34054 33998 34143 34319 34540 34732 34855 34808 34348 33959 33838 33844 33908 34005 34141 34327 34461 34347 34048 33843 33789 33820 33795 33825 33832 33830 33797 33553 33422 33452 33526 33585 33505 33389 33288 33263 33140 32984 33001 33176 33434 33661 33782 33864 33860 33798 33377 33099 33056 33062 33018 32986 32970 32981 32976 32651 32285 32067 31985 31937 32003 32167 32364 32514 32485 32263 32191 32269 32423 32547 32605 32535 32492 32404 31970 31645 31519 31516 31641 31757 31842 31918 31918 31652 31286 31244 31324 31425 31449 31503 31600 31670 31605 31369 31314 31332 31251 31234 31173 31108 30954 30808 30481 30255 30164 30228 30316 30431 30597 30684 30749 30818 30679 30611 30696 30893 31031 31119 31167 31174 31199 31071 30887 30800 30806 30817 30805 30811 30860 30919 30802 30463 30289 30340 30516 30739 30954 31114 31144 31044 30717 30673 30864 31001 31139 31337 31554 31740 31853 31882 31688 31593 31698 31917 32207 32454 32538 32527 32504 32459 32301 32071 31913 31932 32018 32124 32247 32337 32359 32223 32023 31953 32054 32326 32528 32619 32671 32709 32694 32463 32356 32401 32443 32491 32450 32331 32232 32158 31858 31678 31571 31570 31639 31661 31654 31595 31604 31841 31948 31973 32021 32180 32381 32448 32398 32250 32154 32255 32166 31997 31804 31720 31845 31997 32159 32258 32345 32306 32249 32440 32921 33338 33568 33622 33613 33516 33379 33183 32835 32544 32490 32522 32512 32613 32611 32549 32512 32351 32247 32327 32526 32719 32822 32938 33080 33378 33839 33986 33954 33986 34099 34176 34118 33997 33873 33826 33874 33811 33513 33453 33474 33400 33288 33173 33156 33197 33272 33019 32755 32599 32665 32692 32732 32801 32761 32783 32904 32773 32663 32609 32650 32701 32723 32687 32665 32638 32641 32405 32261 32245 32285 32467 32736 32894 32937 32940 32919 32704 32597 32641 32869 33221 33540 33725 33812 33883 33858 33523 33230 33002 32804 32650 32527 32479 32482 32538 32458 32177 31966 31870 31887 32044 32181 32277 32438 32708 32845 32671 32532 32495 32605 32684 32649 32525 32349 32157 31760 31460 31464 31630 31798 31892 31820 31652 31453 31416 31389 31405 31455 31633 31954 32251 32448 32517 32529 32576 32249 31980 31745 31601 31461 31357 31382 31518 31695 31794 31689 31522 31427 31430 31555 31663 31719 31770 31902 31950 31814 31738 31720 31776 31984 32120 32166 32072 31872 31500 31173 31180 31370 31583 31750 31812 31745 31638 31519 31477 31559 31661 31792 31987 32162 32295 32394 32377 32429 32344 32256 32145 31979 31768 31557 31460 31561 31701 31706 31623 31582 31629 31667 31711 31753 31780 31787 31807 31779 31834 31966 32087 32135 32204 32259 32229 32236 32160 31811 31454 31249 31280 31458 31657 31850 32009 32083 32024 31875 31877 31946 31985 31995 32018 32100 32234 32330 32347 32291 32188 32199 32259 32357 32397 32318 32188 32060 31945 31923 32006 32171 32311 32378 32372 32275 32333 32437 32306 32099 32065 32255 32506 32672 32753 32761 32799 32823 32651 32465 32311 32147 31994 31882 31901 32033 32181 32295 32195 31966 31853 31775 31821 31966 31981 31955 31951 32028 31923 31849 31862 31902 31992 31993 31961 31942 31846 31713 31327 31045 31082 31273 31495 31672 31767 31723 31636 31461 31291 31203 31175 31217 31295 31414 31517 31568 31577 31552 31393 31149 31018 30952 30869 30749 30632 30661 30856 31095 31164 31123 31024 30956 30886 30849 30931 30991 31053 31099 31083 31028 31044 31109 31149 31170 31174 31155 31130 31060 30812 30456 30349 30532 30827 31102 31304 31356 31228 31065 30960 30892 30900 30987 31152 31403 31633 31756 31785 31699 31733 31551 31442 31314 31181 31010 30883 30886 31078 31304 31475 31484 31343 31198 31138 31134 31239 31322 31417 31578 31851 32055 32031 31985 31913 31908 31848 31783 31659 31482 31294 31077 30891 30946 31160 31407 31631 31738 31683 31547 31462 31508 31495 31432 31474 31711 31942 32093 32159 32151 32224 32329 32354 32145 31817 31514 31302 31284 31413 31604 31787 31928 31907 31588 31274 31211 31322 31465 31502 31571 31789 32089 32318 32195 31956 31911 31931 31960 31872 31709 31493 31366 31432 31531 31557 31646 31717 31640 31504 31350 31335 31395 31545 31730 31854 31986 32090 32164 32122 32088 32086 32020 31953 31815 31549 31105 30902 31001 31291 31538 31707 31712 31531 31298 31165 31011 30916 30975 31164 31481 31770 31971 32009 31929 31846 31691 31385 31145 30946 30758 30642 30686 30858 31102 31302 31398 31093 30725 30479 30439 30517 30685 30863 31122 31443 31712 31756 31481 31236 31140 31143 31214 31187 31053 30873 30704 30745 30742 30755 30892 31046 31048 30973 30928 30930 31025 31114 31157 31179 31246 31343 31412 31415 31378 31384 31395 31376 31315 31037 30750 30655 30760 31000 31240 31423 31485 31446 31341 31107 30877 30799 30812 30848 30965 31096 31174 31236 31297 31313 31164 30931 30816 30756 30685 30565 30463 30507 30696 30900 31087 31109 31034 30946 30872 30878 30924 31020 31088 31173 31329 31341 31290 31317 31363 31380 31346 31323 31290 31197 31053 30815 30726 30875 31138 31380 31548 31567 31464 31319 31256 31298 31243 31209 31266 31428 31637 31732 31735 31743 31839 31889 31835 31749 31699 31591 31434 31282 31246 31382 31496 31574 31560 31394 31308 31269 31279 31324 31367 31406 31519 31692 31919 32051 31861 31619 31554 31526 31575 31494 31359 31219 31135 31153 31188 31274 31450 31536 31492 31362 31197 31194 31270 31372 31313 31298 31457 31661 31811 31826 31735 31748 31778 31788 31689 31339 31023 30909 30991 31190 31360 31463 31552 31517 31389 31050 30842 30793 30846 30960 31168 31452 31722 31951 32035 31960 31732 31577 31544 31498 31335 31094 30882 30835 30985 31129 31088 31068 31083 31060 30946 30893 30966 31023 31013 31052 31054 31099 31205 31340 31346 31304 31304 31344 31404 31313 31131 30731 30505 30579 30811 31045 31226 31272 31176 31004 30949 30880 30793 30753 30871 31079 31369 31572 31658 31675 31657 31727 31569 31442 31202 30996 30833 30797 30883 31063 31260 31411 31499 31288 31052 30930 30963 31079 31129 31202 31334 31554 31727 31711 31531 31423 31452 31505 31541 31475 31301 31104 30972 30962 30973 31068 31240 31397 31472 31394 31282 31182 31198 31272 31359 31374 31404 31514 31649 31732 31727 31688 31654 31573 31504 31475 31320 31056 30913 30956 31115 31332 31492 31637 31665 31561 31421 31270 31216 31243 31324 31480 31682 31848 31931 31931 31899 31931 31930 31787 31642 31455 31314 31149 31096 31190 31377 31536 31706 31748 31549 31381 31272 31295 31378 31387 31394 31481 31658 31816 31867 31665 31498 31516 31537 31581 31585 31443 31286 31152 31160 31216 31201 31177 31256 31378 31371 31312 31178 31155 31220 31302 31410 31363 31263 31251 31308 31364 31320 31329 31322 31305 31248 31154 30870 30601 30616 30919 31223 31479 31671 31699 31573 31416 31305 31302 31157 31083 31138 31292 31456 31545 31572 31460 31438 31433 31426 31217 30947 30740 30623 30610 30710 30900 31084 31258 31421 31444 31241 31096 31091 31212 31300 31386 31519 31669 31798 31802 31786 31646 31447 31321 31247 31221 31110 30945 30784 30742 30863 31077 31173 31167 31183 31146 31108 31055 31075 31122 31128 31194 31321 31497 31515 31475 31471 31481 31607 31703 31753 31658 31469 31246 31057 30910 30903 31071 31268 31461 31532 31499 31380 31320 31385 31450 31407 31305 31343 31514 31684 31803 31838 31831 31858 31816 31776 31618 31277 31002 30924 31046 31248 31456 31635 31766 31773 31673 31549 31355 31271 31257 31278 31410 31652 31873 32017 32081 32046 32160 32120 31889 31602 31370 31240 31153 31204 31321 31480 31610 31756 31767 31516 31301 31233 31297 31428 31512 31639 31858 32054 32181 32108 31791 31581 31519 31527 31536 31443 31281 31117 31054 31098 31245 31268 31316 31422 31431 31373 31236 31187 31239 31325 31395 31509 31552 31500 31475 31483 31424 31389 31353 31321 31273 31149 30960 30641 30494 30651 30882 31117 31297 31333 31238 31058 30989 31033 30916 30758 30752 30921 31172 31356 31393 31352 31335 31345 31337 31171 30838 30480 30293 30265 30403 30602 30804 30945 31051 31025 30777 30475 30417 30468 30554 30628 30789 30981 31129 31168 31143 31010 30894 30798 30789 30707 30518 30294 30123 30147 30336 30571 30753 30727 30613 30483 30416 30403 30480 30598 30644 30668 30801 30966 30965 30899 30824 30687 30688 30725 30730 30604 30438 30300 30300 30326 30363 30499 30658 30796 30790 30725 30621 30591 30674 30796 30911 30974 31035 31142 31280 31313 31234 31209 31170 31199 31154 30993 30700 30330 30265 30542 30859 31063 31241 31261 31167 30996 30964 31035 30963 30853 30896 31102 31343 31552 31621 31555 31607 31630 31642 31624 31334 30873 30512 30455 30635 30906 31130 31341 31465 31490 31433 31298 31145 31101 31083 31108 31260 31456 31602 31678 31675 31670 31742 31717 31564 31312 31063 30852 30771 30822 30994 31200 31406 31557 31531 31298 31023 30931 31038 31218 31282 31343 31453 31638 31762 31831 31793 31580 31459 31370 31394 31292 31121 30978 30984 31122 31315 31470 31534 31351 31094 30899 30806 30844 30945 30984 31056 31291 31606 31917 31932 31785 31576 31544 31578 31619 31481 31229 30982 30828 30905 31008 30961 30978 31058 31087 31007 30893 30814 30859 30950 31074 31257 31385 31379 31336 31324 31317 31290 31320 31303 31266 31069 30841 30603 30362 30397 30631 30913 31160 31288 31259 31164 31050 30981 30939 30788 30608 30677 30969 31362 31665 31734 31592 31483 31386 31305 31208 30856 30436 30219 30268 30501 30790 31004 31129 31210 31165 31091 30913 30709 30628 30644 30718 30952 31238 31514 31633 31633 31552 31558 31413 31230 30959 30693 30509 30476 30585 30786 31001 31215 31391 31320 31022 30765 30728 30829 30933 30961 31063 31313 31556 31729 31748 31548 31349 31197 31197 31186 31041 30815 30669 30756 30963 31192 31352 31281 31142 31049 31015 31036 31124 31139 31165 31332 31571 31796 31825 31603 31326 31277 31303 31298 31228 31074 30912 30825 30914 31047 31040 31098 31200 31232 31202 31153 31104 31139 31192 31226 31371 31486 31558 31695 31837 31888 31938 31953 31885 31689 31444 31189 30996 30800 30804 30980 31219 31405 31531 31466 31342 31188 31209 31294 31309 31208 31236 31441 31645 31778 31831 31781 31858 31870 31853 31683 31284 30911 30771 30866 31087 31310 31513 31617 31570 31509 31365 31308 31147 31029 31039 31247 31527 31772 31928 31969 31923 31984 32020 31928 31616 31214 30952 30851 30885 31029 31221 31401 31532 31556 31401 31026 30855 30885 30964 31024 31096 31298 31521 31708 31774 31669 31514 31416 31372 31286 31113 30900 30731 30699 30811 30992 31192 31271 31132 30906 30792 30750 30782 30868 30944 31013 31204 31445 31668 31633 31481 31271 31249 31293 31381 31359 31199 30993 30805 30770 30776 30765 30825 30954 31022 30969 30850 30815 30894 31001 31142 31337 31391 31381 31387 31434 31434 31412 31318 31137 30953 30748 30551 30331 30154 30252 30523 30836 31106 31310 31343 31343 31331 31333 31442 31306 31116 31081 31270 31518 31711 31819 31755 31771 31831 31867 31774 31517 31144 30908 30890 31033 31235 31397 31476 31418 31261 31267 31182 31067 30957 30917 31022 31283 31619 31963 32213 32262 32205 32314 32223 32093 31970 31826 31613 31353 31219 31299 31484 31670 31829 31835 31565 31344 31188 31197 31262 31370 31449 31615 31844 32056 32179 32200 31983 31847 31745 31701 31622 31457 31246 31002 30879 30944 31130 31242 31204 31209 31166 31103 31008 31045 31086 31066 31028 31107 31271 31382 31291 31164 31069 31168 31240 31276 31176 31018 30819 30743 30799 30915 30875 30916 30990 30989 30925 30776 30730 30788 30805 30792 30858 30941 30868 30840 30841 30840 30850 30824 30797 30789 30712 30531 30378 30314 30217 30225 30364 30543 30715 30775 30717 30575 30500 30538 30601 30610 30512 30467 30521 30635 30740 30789 30714 30579 30486 30457 30436 30261 29966 29826 29918 30128 30338 30525 30663 30691 30623 30480 30437 30423 30298 30179 30235 30374 30556 30671 30755 30774 30700 30631 30616 30532 30294 30047 29915 29961 30120 30353 30567 30754 30875 30882 30794 30491 30309 30312 30344 30378 30480 30635 30824 30961 30991 30992 31036 30899 30737 30639 30466 30322 30241 30270 30467 30678 30889 31038 31018 30780 30558 30480 30588 30663 30701 30824 31037 31274 31481 31572 31625 31680 31719 31730 31585 31322 31088 30858 30766 30899 31104 31301 31450 31409 31276 31195 31236 31362 31468 31529 31653 31872 32062 32167 32133 31862 31671 31598 31587 31464 31338 31207 31133 31208 31393 31586 31727 31646 31441 31269 31170 31177 31262 31342 31402 31500 31647 31889 32089 32059 31863 31726 31742 31739 31706 31603 31428 31275 31178 31221 31368 31446 31478 31568 31642 31622 31534 31459 31493 31558 31599 31766 31974 32023 31882 31764 31691 31708 31718 31710 31557 31320 31121 31006 31032 31197 31251 31257 31327 31387 31370 31354 31296 31203 31215 31337 31542 31790 31860 31711 31599 31478 31290 31187 31040 30941 30801 30683 30604 30612 30627 30604 30685 30824 30895 30900 30836 30726 30741 30778 30932 31124 31365 31410 31386 31311 31292 31230 31191 31134 31032 30856 30701 30551 30530 30536 30595 30766 30959 31116 31083 31000 30858 30884 30968 31035 31157 31240 31208 31164 31159 31120 31150 31127 31095 31021 30890 30762 30680 30642 30655 30769 30938 31090 31112 31040 30948 30856 30852 30916 30998 31157 31312 31467 31633 31687 31689 31686 31680 31617 31483 31302 31085 30787 30587 30667 30883 31123 31325 31397 31323 31245 31190 31238 31318 31390 31400 31488 31670 31763 31755 31680 31609 31620 31604 31596 31495 31295 30944 30709 30754 31020 31286 31500 31598 31563 31501 31410 31414 31452 31385 31421 31610 31865 32048 32123 32057 31993 32065 32099 32090 32095 31789 31387 31018 30925 31029 31244 31503 31708 31853 31940 31916 31765 31510 31429 31503 31689 32084 32478 32776 32836 32726 32582 32471 32380 32031 31583 31223 30979 30947 31123 31372 31560 31674 31622 31493 31340 31113 30982 31000 31112 31329 31715 32087 32335 32369 32264 32219 32171 31946 31543 31160 30836 30625 30582 30751 31027 31255 31404 31451 31360 31087 30819 30736 30791 30890 31081 31330 31570 31672 31643 31458 31397 31455 31336 31132 30877 30677 30481 30368 30433 30652 30889 31050 31111 31006 30686 30390 30302 30386 30470 30622 30887 31142 31366 31456 31450 31450 31521 31382 31179 30901 30648 30459 30415 30499 30650 30812 30945 31058 31017 30759 30500 30436 30525 30647 30778 30943 31155 31309 31399 31414 31436 31460 31274 31067 30892 30719 30589 30460 30434 30614 30869 31109 31331 31341 31092 30806 30680 30713 30768 30822 30978 31236 31416 31543 31606 31594 31443 31251 31041 30934 30826 30765 30650 30607 30727 30952 31184 31391 31436 31218 30988 30870 30938 31043 31173 31392 31695 31990 32199 32264 32208 32059 31921 31804 31600 31346 31104 30913 30906 31060 31277 31485 31663 31585 31338 31147 31064 31089 31152 31266 31481 31782 32059 32213 32219 32029 31689 31501 31353 31237 31088 30935 30795 30754 30833 31032 31234 31357 31304 31193 31138 31117 31107 31137 31202 31362 31599 31849 32012 32017 31862 31602 31440 31345 31224 31071 30918 30764 30686 30802 31039 31247 31263 31252 31168 31093 31004 30940 30964 31006 31079 31255 31502 31678 31651 31559 31442 31388 31312 31234 31110 30922 30728 30611 30633 30749 30785 30833 30946 31004 30965 30875 30744 30774 30826 30846 30941 31104 31050 31009 31030 31117 31190 31287 31120 30912 30659 30446 30293 30235 30164 30250 30472 30736 30947 31012 31011 30897 30887 30929 31038 31119 31053 31037 31064 31141 31187 31151 31149 31088 31011 30909 30767 30626 30373 30150 30168 30340 30582 30841 31021 31049 30989 30880 30910 31019 31104 31006 30990 31034 31075 31118 31142 31143 31206 31166 31024 30806 30533 30097 29787 29773 29987 30268 30516 30711 30787 30767 30680 30602 30627 30507 30382 30505 30734 31027 31245 31391 31374 31329 31204 31112 31062 30832 30471 30236 30270 30545 30863 31080 31202 31194 31093 30912 30772 30664 30531 30517 30723 31028 31300 31462 31542 31570 31710 31759 31655 31403 30953 30495 30232 30261 30442 30655 30835 31001 31104 31076 30975 30804 30632 30540 30571 30758 31000 31247 31368 31351 31258 31249 31227 31228 31008 30688 30474 30390 30413 30583 30815 31057 31282 31405 31399 31330 31082 30962 30926 30974 31167 31473 31769 31954 31898 31707 31640 31649 31621 31359 31029 30682 30449 30301 30270 30412 30672 30896 31061 31116 30921 30623 30420 30430 30484 30589 30722 30970 31263 31550 31758 31838 31733 31521 31204 31016 30784 30560 30389 30361 30486 30726 30925 31090 31191 31053 30796 30592 30529 30582 30680 30760 30962 31148 31277 31351 31369 31434 31490 31360 31138 30870 30613 30456 30402 30450 30558 30738 30935 31091 31054 30870 30726 30654 30695 30792 30950 31143 31396 31619 31703 31723 31791 31847 31655 31358 31047 30744 30474 30350 30376 30509 30711 30912 31104 31183 31038 30845 30713 30712 30884 31064 31235 31409 31606 31696 31697 31680 31605 31462 31294 31212 31151 31002 30872 30726 30690 30837 31074 31295 31503 31519 31327 31183 31106 31153 31241 31281 31375 31610 31814 31933 31995 32013 31829 31603 31419 31338 31201 31026 30919 30835 30880 31042 31272 31484 31621 31501 31303 31161 31127 31202 31283 31372 31532 31753 31941 32001 31992 31859 31762 31702 31569 31433 31242 31100 30979 30920 31006 31185 31419 31565 31528 31413 31365 31344 31460 31601 31699 31812 32002 32155 32185 32151 31976 31771 31692 31629 31541 31380 31198 30979 30813 30815 30997 31215 31273 31275 31273 31230 31202 31257 31290 31358 31432 31539 31688 31874 31874 31663 31409 31373 31347 31352 31349 31206 31043 30922 30897 30982 31021 30973 31022 31046 30971 30870 30749 30806 30854 30855 30944 31124 31340 31370 31291 31238 31308 31509 31630 31528 31256 30992 30750 30588 30667 30713 30781 30896 30996 30982 30892 30788 30712 30753 30868 31024 31245 31334 31236 31193 31145 31127 31156 31112 31049 30905 30694 30501 30386 30330 30322 30442 30625 30840 30994 30967 30913 30783 30803 30908 31046 31231 31306 31259 31145 31096 31035 31071 31135 31024 30915 30759 30592 30493 30362 30269 30339 30554 30771 30970 31013 30966 30864 30872 30938 30972 31050 31066 31105 31215 31302 31281 31218 31228 31193 31117 30957 30766 30605 30460 30387 30476 30690 30912 31084 31120 31045 30956 30882 30933 31013 31088 31102 31157 31251 31377 31435 31439 31440 31422 31370 31209 31045 30912 30723 30527 30558 30757 31017 31252 31393 31365 31259 31148 31122 31150 31188 31191 31253 31414 31603 31723 31704 31633 31676 31671 31612 31445 31263 31008 30730 30650 30828 31101 31367 31565 31643 31590 31471 31434 31474 31503 31350 31328 31450 31618 31771 31846 31771 31786 31774 31750 31671 31502 31303 30980 30810 30876 31052 31222 31409 31545 31501 31432 31328 31300 31318 31314 31296 31270 31409 31604 31772 31715 31667 31782 31783 31558 31307 31135 30885 30668 30517 30588 30829 31172 31442 31600 31596 31494 31366 31353 31301 31211 31147 31233 31381 31487 31547 31549 31499 31441 31356 31267 31069 30688 30403 30274 30369 30629 30915 31128 31297 31337 31254 31130 31048 30907 30781 30737 30861 31111 31358 31555 31606 31534 31444 31426 31376 31276 30874 30423 30138 30088 30206 30401 30639 30844 30984 31028 30981 30921 30744 30642 30568 30527 30621 30801 30977 31080 31118 31062 30995 31034 30948 30709 30388 30160 30095 30151 30303 30552 30772 30960 31108 31146 31098 30911 30721 30638 30611 30663 30803 30970 31111 31152 31116 31056 31084 31071 30972 30737 30500 30318 30232 30284 30461 30705 30917 31071 31188 31178 31075 30793 30652 30731 30755 30793 30985 31232 31428 31542 31598 31553 31558 31511 31335 31081 30795 30602 30519 30592 30791 31038 31247 31455 31599 31590 31486 31227 31136 31188 31194 31221 31349 31520 31639 31681 31659 31561 31504 31296 31005 30841 30757 30716 30721 30791 30975 31156 31301 31432 31423 31311 30986 30731 30720 30785 30837 30987 31289 31617 31858 31940 31908 31825 31786 31618 31416 31208 31020 30898 30858 30978 31179 31345 31503 31616 31539 31275 30986 30905 30941 31015 31104 31280 31560 31722 31797 31777 31616 31413 31163 31013 30925 30782 30615 30516 30517 30677 30890 31073 31227 31178 30969 30774 30646 30682 30756 30776 30860 31046 31269 31445 31549 31568 31239 30945 30715 30669 30657 30604 30524 30434 30467 30646 30850 31027 31019 30927 30815 30713 30663 30732 30734 30672 30711 30887 31079 31219 31149 30864 30746 30687 30673 30600 30418 30205 30007 29955 30068 30264 30462 30458 30431 30410 30347 30291 30217 30212 30252 30313 30485 30759 30983 31001 30842 30614 30466 30419 30439 30429 30257 30102 29982 30018 30198 30423 30478 30509 30556 30500 30452 30413 30387 30446 30490 30573 30742 30947 31033 30941 30765 30565 30523 30488 30491 30401 30247 30110 30061 30179 30425 30600 30637 30653 30656 30596 30504 30435 30506 30592 30670 30825 31096 31383 31516 31412 31167 31124 31132 31152 31160 31084 30926 30766 30709 30805 30979 31124 31125 31082 30972 30874 30780 30783 30841 30885 30964 31214 31520 31758 31837 31708 31551 31611 31685 31710 31649 31415 31179 31027 31085 31286 31490 31619 31639 31487 31323 31147 31092 31179 31220 31217 31280 31452 31664 31839 31961 31811 31667 31539 31421 31361 31244 31094 30964 30947 31065 31259 31456 31609 31557 31286 31096 30987 31020 31133 31167 31202 31354 31680 31930 32092 32078 31873 31589 31301 31180 31103 30921 30741 30591 30627 30814 31055 31280 31448 31460 31236 31019 30891 30922 31033 31019 30984 31068 31265 31439 31565 31619 31473 31225 31015 30949 30961 30858 30698 30562 30582 30737 30937 31127 31297 31335 31035 30710 30549 30635 30766 30857 30891 31007 31186 31336 31400 31378 31251 31058 30803 30710 30629 30451 30325 30250 30342 30558 30762 30919 31060 31059 30794 30564 30482 30564 30666 30715 30775 30942 31143 31279 31300 31270 31063 30837 30643 30612 30530 30358 30256 30223 30330 30522 30744 30942 31089 31067 30788 30512 30436 30524 30552 30507 30536 30704 30907 31114 31240 31248 31256 31135 31028 30889 30674 30502 30355 30316 30430 30629 30807 30934 30990 30860 30595 30388 30380 30486 30543 30666 30878 31142 31367 31499 31496 31398 31435 31302 31078 30873 30691 30564 30487 30538 30703 30897 31042 31174 31204 31103 30862 30660 30649 30703 30819 31002 31229 31418 31547 31589 31584 31609 31633 31482 31301 31112 30886 30708 30655 30765 31024 31265 31399 31547 31579 31443 31181 31034 31075 31152 31211 31329 31540 31757 31903 31938 31875 31834 31779 31615 31445 31243 31055 30941 30940 31058 31233 31394 31522 31620 31588 31370 31085 30989 31046 31074 31116 31255 31469 31671 31802 31896 31861 31972 31953 31744 31480 31242 31062 30951 30952 31068 31239 31401 31532 31602 31494 31179 30887 30876 30971 30961 30973 31136 31384 31605 31764 31849 31831 31906 31722 31470 31208 30918 30745 30643 30709 30877 31092 31253 31373 31379 31114 30788 30628 30631 30669 30704 30822 31009 31201 31314 31380 31342 31223 30999 30819 30719 30559 30415 30285 30281 30391 30617 30798 30941 30983 30690 30453 30350 30442 30562 30665 30746 30908 31066 31139 31133 31120 30962 30735 30476 30362 30291 30157 30057 29976 30058 30258 30520 30718 30841 30661 30427 30224 30241 30364 30403 30441 30580 30835 31096 31286 31368 31203 30975 30744 30659 30655 30571 30503 30478 30496 30629 30804 30966 31106 31001 30672 30368 30209 30297 30379 30397 30523 30789 31093 31355 31512 31498 31254 31085 30994 30936 30847 30745 30696 30905 31314 31752 32178 32482 32479 32173 31807 31582 31625 31624 31680 31799 31971 32044 32035 32047 31985 31874 31717 31529 31350 31154 31018 30930 30975 31192 31459 31649 31813 31849 31637 31307 31118 31133 31207 31276 31428 31773 32117 32359 32449 32444 32353 32252 32043 31856 31670 31433 31209 31087 31174 31385 31650 31882 32060 31975 31627 31368 31254 31341 31393 31459 31638 31908 32206 32451 32557 32529 32364 32167 31953 31700 31459 31246 31155 31119 31232 31469 31711 31904 32059 31913 31608 31364 31304 31375 31435 31527 31724 31985 32235 32369 32357 32240 32051 31857 31658 31390 31116 30920 30805 30834 31012 31221 31421 31540 31562 31238 30878 30684 30721 30810 30840 30892 31071 31280 31486 31621 31629 31535 31418 31160 30890 30673 30534 30467 30502 30634 30880 31101 31261 31358 31342 31082 30769 30546 30562 30613 30693 30861 31065 31256 31364 31397 31385 31438 31468 31266 30982 30690 30474 30364 30334 30419 30603 30796 30987 31157 31229 31129 30842 30728 30799 30914 30977 31083 31251 31396 31460 31429 31348 31350 31244 31055 30871 30714 30625 30544 30531 30647 30873 31097 31298 31364 31315 31005 30821 30816 30898 30940 31046 31278 31509 31653 31707 31629 31683 31720 31619 31422 31181 30974 30843 30863 31032 31220 31402 31576 31651 31537 31268 31035 31081 31264 31381 31455 31577 31738 31871 31950 31950 31981 31964 31806 31653 31480 31296 31160 31113 31169 31324 31516 31669 31792 31692 31426 31149 31109 31234 31312 31336 31419 31653 31891 32062 32165 32057 31865 31646 31499 31420 31248 31071 30962 31007 31224 31493 31690 31801 31621 31345 31119 31069 31173 31235 31261 31367 31561 31811 31995 32041 31900 31604 31412 31323 31316 31194 31006 30907 30860 30992 31176 31352 31490 31413 31179 31022 30964 31012 31109 31116 31142 31258 31466 31672 31791 31685 31413 31345 31271 31193 31100 30891 30691 30577 30580 30781 31015 31197 31244 31150 31023 30948 30882 30934 30977 30999 31033 31164 31339 31474 31518 31320 30952 30798 30722 30715 30670 30560 30399 30297 30403 30639 30946 31165 31114 30910 30736 30615 30590 30693 30743 30753 30819 31024 31287 31482 31636 31462 31234 31073 31083 31136 31015 30766 30529 30443 30552 30762 30989 31200 31178 30965 30822 30730 30755 30899 30994 31000 31075 31235 31405 31538 31619 31436 31352 31253 31219 31121 30957 30769 30594 30585 30760 31000 31233 31393 31382 31130 30909 30836 30927 31034 31085 31178 31321 31475 31558 31563 31522 31489 31370 31180 31094 31023 30919 30811 30764 30896 31107 31329 31539 31685 31592 31314 31070 31080 31139 31155 31226 31456 31709 31937 32061 32042 31974 32052 31968 31711 31432 31205 31082 31022 31078 31231 31421 31634 31816 31859 31759 31473 31278 31290 31329 31373 31520 31726 31953 32123 32174 32107 32108 32182 32046 31783 31462 31247 31156 31179 31285 31467 31654 31778 31864 31829 31740 31475 31355 31430 31502 31590 31741 31938 32077 32147 32100 31954 31888 31778 31520 31256 30994 30818 30768 30846 31052 31310 31512 31691 31785 31744 31473 31140 31023 31082 31112 31132 31203 31340 31449 31530 31563 31460 31453 31374 31188 30974 30801 30663 30613 30689 30857 31038 31171 31252 31163 31026 30761 30556 30478 30512 30572 30717 30966 31165 31282 31278 31240 31231 31149 30841 30477 30196 30032 30024 30179 30398 30607 30759 30810 30722 30607 30437 30261 30157 30156 30191 30316 30526 30699 30805 30820 30753 30776 30752 30696 30501 30168 29954 29876 29989 30158 30304 30395 30511 30542 30518 30461 30304 30236 30197 30212 30314 30483 30611 30690 30721 30686 30707 30706 30734 30582 30322 30031 29886 29876 30030 30278 30490 30677 30811 30834 30772 30574 30426 30355 30369 30440 30659 30946 31162 31295 31301 31210 31193 31179 31108 30956 30694 30492 30442 30537 30721 30881 30980 31085 31112 31039 30879 30655 30559 30550 30544 30662 30882 31106 31298 31390 31377 31275 31203 31121 30929 30755 30557 30464 30491 30630 30831 31028 31195 31311 31313 31286 31141 30955 30827 30790 30810 30974 31259 31479 31672 31732 31685 31644 31586 31489 31290 30974 30754 30668 30772 30990 31193 31345 31483 31553 31482 31316 31154 31085 31022 30981 31063 31268 31483 31597 31613 31564 31591 31589 31651 31564 31304 30962 30777 30762 30932 31168 31345 31469 31515 31405 31250 31134 31060 31017 31011 31110 31372 31673 31941 32051 32051 32028 32140 32182 32144 31714 31205 30854 30785 30932 31159 31338 31470 31534 31473 31389 31260 31211 31131 31074 31092 31248 31464 31633 31729 31713 31620 31638 31635 31608 31487 31114 30757 30605 30659 30906 31176 31386 31498 31420 31292 31237 31213 31146 31000 30902 30987 31237 31459 31667 31757 31630 31592 31533 31531 31455 31208 30822 30537 30540 30761 31008 31199 31281 31197 31030 30895 30837 30870 30761 30671 30780 31040 31269 31395 31418 31352 31481 31580 31636 31524 31291 30853 30486 30427 30591 30832 31025 31104 31007 30818 30665 30625 30732 30802 30725 30783 30974 31179 31325 31380 31341 31374 31284 31187 31087 30901 30534 30261 30287 30482 30730 30934 30853 30581 30466 30435 30576 30750 30691 30566 30548 30648 30716 30718 30712 30663 30621 30657 30671 30498 30259 29978 29689 29698 30014 30529 30974 31027 30874 30810 30878 31071 31418 31912 32442 32788 32993 32922 32717 32409 32120 32083 32282 32599 32829 32845 32570 32310 32401 32726 33146 33547 33923 34176 34200 33978 33654 33350 33289 33388 33511 33575 33444 33259 33245 33335 33606 33954 34341 34699 35030 34878 34381 33883 33617 33642 33891 34146 34327 34306 34207 34192 34307 34548 34686 34817 35009 35213 35373 35138 34862 34596 34614 34839 35093 35190 34878 34496 34336 34419 34669 35008 35344 35683 35943 35865 35600 35251 34879 34750 34871 34989 34982 34916 34857 34877 35052 35241 35496 35830 35987 35640 35128 34723 34580 34680 34906 35114 35153 35128 35040 35027 35119 35181 35247 35346 35481 35281 34942 34641 34562 34687 34907 35053 34908 34503 34217 34188 34354 34574 34846 35143 35355 35244 35012 34701 34291 34027 33997 34046 34109 34172 34232 34320 34441 34608 34831 35116 35240 35074 34675 34324 34088 33977 34044 34225 34404 34519 34621 34519 34160 33884 33838 33934 34147 34424 34714 34893 34719 34433 34233 34134 34031 33912 33869 33843 33623 33598 33663 33872 34113 34385 34660 34852 34702 34190 33705 33436 33435 33637 33864 34002 34062 34087 34204 34271 34463 34767 35112 35407 35527 35258 34887 34628 34595 34752 34819 34608 34281 34043 33944 33937 34045 34248 34554 35022 35344 35275 34948 34452 34127 34094 34231 34348 34378 34407 34468 34517 34541 34663 34748 34747 34779 34636 34366 34146 34083 34281 34518 34700 34775 34731 34482 34308 34317 34479 34707 35002 35319 35546 35421 35152 34852 34616 34518 34525 34485 34546 34634 34801 34884 35067 35309 35648 35935 35835 35263 34703 34386 34370 34590 34899 35043 35043 35102 35170 35080 35023 34997 35067 35212 35440 35353 35047 34766 34660 34756 34773 34675 34533 34349 34358 34372 34505 34746 35022 35299 35591 35538 34962 34381 34058 34065 34275 34443 34571 34621 34647 34750 34846 34927 35059 35201 35366 35285 34948 34686 34540 34539 34717 34820 34685 34417 34286 34313 34474 34620 34869 35178 35507 35601 35231 34641 34241 34191 34286 34388 34452 34469 34412 34363 34465 34667 34879 34925 34958 34799 34489 34258 34196 34352 34602 34746 34826 34625 34273 34084 34080 34265 34527 34842 35156 35218 34996 34656 34277 34170 34275 34317 34367 34372 34345 34358 34526 34787 35067 35314 35372 35128 34657 34310 34231 34394 34593 34743 34792 34782 34481 34208 34179 34319 34507 34733 35027 34995 34797 34554 34397 34305 34289 34292 34253 34196 34208 34295 34461 34710 34998 35220 35197 34841 34318 34045 34014 34175 34376 34542 34648 34695 34551 34306 34257 34315 34475 34737 35059 35215 35037 34813 34637 34438 34329 34283 34362 34443 34497 34558 34698 34987 35343 35689 35838 35702 35258 34839 34616 34571 34633 34811 34993 35106 34943 34619 34392 34394 34555 34808 35138 35486 35553 35343 35050 34625 34413 34426 34553 34648 34684 34713 34771 34883 35018 35258 35395 35371 35096 34722 34402 34379 34579 34875 35081 35100 34887 34460 34203 34198 34418 34721 35062 35352 35490 35282 34916 34461 34234 34275 34426 34509 34467 34447 34458 34570 34775 35068 35196 35233 35211 34924 34615 34440 34412 34556 34780 34980 34804 34434 34324 34550 34904 35243 35642 36058 36379 36458 35822 34989 34424 34334 34511 34791 34949 34857 34848 34873 35006 35183 35332 35474 35613 35527 35179 34872 34728 34846 35086 35048 34762 34359 34145 34264 34557 34896 35317 35721 36094 36277 35767 35056 34623 34636 34880 35233 35478 35426 35295 35119 34921 34893 35002 35199 35440 35671 35738 35426 35056 34780 34533 34383 34315 34272 34220 34152 34213 34319 34466 34663 34954 35040 35067 34932 34544 34352 34432 34654 34982 35237 35254 34767 34269 34190 34397 34736 35082 35429 35766 35945 35647 34938 34347 34146 34261 34505 34686 34667 34512 34409 34475 34542 34638 34740 34855 35062 34881 34520 34237 34215 34377 34441 34350 34169 33926 33820 33891 34106 34430 34730 35089 35341 34932 34178 33630 33486 33630 33878 34095 34230 34260 34046 33751 33680 33851 34128 34419 34772 35101 35025 34709 34273 33889 33794 33912 34065 34173 34142 34084 34151 34299 34505 34600 34646 34731 34810 34561 34297 34088 34110 34307 34459 34301 34094 33869 33789 33940 34197 34484 34789 35146 35476 35348 34603 33946 33664 33790 34041 34330 34512 34562 34388 34033 33853 33932 34162 34473 34790 35091 35158 34823 34359 33920 33790 33844 34015 34141 34167 34080 34025 34043 34265 34495 34724 34940 35139 35058 34717 34457 34430 34651 34870 34877 34746 34358 34202 34298 34566 34840 35187 35574 35814 35642 35123 34583 34219 34138 34242 34401 34516 34571 34390 34092 34011 34130 34379 34713 35092 35433 35514 35152 34428 33907 33843 34024 34277 34514 34645 34597 34505 34566 34642 34686 34785 34986 35204 35050 34701 34397 34328 34463 34464 34393 34289 34106 34035 34106 34333 34630 34992 35301 35327 35203 34666 34150 33926 34031 34309 34635 34889 34892 34292 33736 33549 33734 34026 34368 34806 35258 35412 34752 33863 33386 33419 33732 34057 34213 34194 34089 33995 33770 33708 33838 34111 34418 34740 34785 34446 34114 33891 33806 33903 34032 34077 33983 33876 33808 33874 34144 34486 34643 34684 34696 34568 34204 33976 33987 34317 34756 34932 34819 34337 33900 33834 33930 34156 34409 34667 35007 35088 34715 33991 33548 33459 33698 34122 34564 34709 34417 33702 33207 33148 33349 33619 33897 34204 34534 34564 33996 33350 33038 33175 33604 34000 34197 34184 34071 33965 33751 33672 33767 33905 34122 34392 34247 33977 33748 33514 33403 33523 33718 33907 34009 33911 33885 33928 34122 34235 34261 34351 34501 34643 34444 34029 33787 33803 33971 33923 33810 33739 33642 33470 33485 33694 34025 34359 34700 34783 34664 34318 34077 34069 34284 34652 35002 35157 34819 34128 33718 33749 33996 34391 34803 35188 35542 35455 34566 33770 33540 33788 34209 34650 34854 34802 34688 34406 34233 34346 34641 34990 35349 35647 35521 34915 34144 33643 33657 33951 34252 34460 34490 34337 34231 34255 34313 34282 34283 34372 34563 34798 34638 34302 34032 33982 34006 34127 34207 34115 33991 33924 34019 34224 34565 34946 35064 35015 34939 34549 34189 34023 34146 34518 34875 34865 34471 33961 33751 33914 34177 34517 34906 35275 35611 35500 34767 34032 33728 33735 33974 34309 34570 34569 34202 33722 33610 33749 34070 34445 34804 35110 35217 34870 34132 33596 33412 33552 33836 34012 34083 33990 33941 34044 34046 34123 34196 34353 34606 34634 34277 34002 33902 33911 33886 33876 33832 33783 33630 33636 33736 33969 34258 34428 34400 34432 34306 33980 33772 33743 33865 34127 34245 33990 33641 33359 33355 33575 33839 34123 34478 34867 34991 34598 33973 33608 33532 33674 33960 34236 34366 34402 34051 33749 33748 33901 34135 34444 34776 35097 35220 34689 33970 33571 33513 33750 34072 34271 34282 34240 34245 34162 34083 34158 34333 34581 34879 34793 34511 34259 34097 33932 33887 33945 33975 33954 33917 33973 34079 34294 34492 34450 34406 34489 34324 34081 33915 33922 34123 34399 34417 34147 33792 33650 33740 33949 34207 34436 34594 34764 34595 34199 33705 33481 33491 33710 33982 34218 34329 34168 33612 33376 33442 33704 34033 34347 34666 34934 35051 34478 33741 33306 33299 33522 33760 33907 33910 33805 33623 33404 33376 33506 33676 33886 34103 34291 34110 33884 33699 33520 33530 33611 33752 33805 33753 33715 33817 33973 34162 34165 34110 34159 34190 33987 33769 33652 33767 33972 33916 33786 33648 33507 33521 33706 33866 34069 34334 34521 34441 34385 33886 33577 33451 33539 33717 33917 34134 34165 33959 34144 34587 34992 35455 35803 36146 36470 36603 35756 34993 34671 34671 34907 35236 35420 35291 35092 34671 34410 34344 34497 34722 34937 35183 35314 35045 34649 34168 33901 33910 33997 34065 34090 33999 34037 34183 34351 34473 34519 34545 34653 34708 34365 34034 33890 33969 33972 33921 33879 33802 33666 33744 33966 34133 34397 34699 34802 34683 34470 34034 33719 33657 33820 34102 34394 34344 33776 33343 33334 33489 33843 34211 34541 34854 35119 34698 33906 33342 33209 33399 33710 33932 34039 34018 33888 33632 33550 33666 33897 34129 34370 34579 34528 34164 33628 33134 32997 33107 33285 33439 33510 33469 33541 33732 33835 33850 33881 33977 34122 34054 33712 33486 33500 33651 33566 33431 33344 33292 33318 33416 33579 33832 34117 34375 34323 34228 33843 33491 33353 33432 33600 33793 33986 33907 33428 33152 33186 33407 33728 34061 34422 34709 34812 34149 33483 33184 33216 33449 33728 33884 33980 33992 33935 33826 33773 33843 34007 34228 34413 34573 34387 34116 33772 33528 33552 33705 33846 33891 33852 33861 34000 34180 34311 34313 34304 34345 34330 34101 33924 33880 34030 34090 33911 33720 33552 33561 33694 33889 34161 34477 34730 34765 34529 34096 33673 33532 33612 33817 34153 34430 34487 34091 33574 33443 33603 33880 34217 34518 34794 35022 34750 33921 33336 33167 33310 33610 33860 33990 33960 33867 33670 33558 33668 33955 34210 34489 34694 34765 34429 33986 33473 33287 33384 33593 33781 33841 33752 33761 33882 33941 33972 34002 34099 34281 34411 34222 33907 33734 33826 33949 33954 33912 33833 33693 33574 33644 33844 34119 34419 34479 34387 34319 34009 33698 33551 33644 33909 34268 34486 34186 33701 33345 33396 33607 33898 34208 34519 34823 34802 34118 33430 33126 33156 33382 33660 33910 34003 33958 33500 33227 33295 33533 33868 34176 34491 34771 34735 34075 33442 33292 33498 33873 34219 34314 34235 34049 34015 33876 33845 33943 34157 34413 34689 34878 34647 34271 34017 33795 33774 33952 34109 34195 34106 33960 33979 34116 34286 34337 34329 34436 34583 34501 34226 33992 33941 34043 34046 33959 33916 33800 33665 33690 33831 34066 34390 34715 34786 34656 34440 34000 33714 33610 33720 33974 34243 34307 33827 33331 33101 33163 33423 33748 34067 34391 34666 34600 33836 33176 32923 33043 33366 33654 33822 33908 33825 33452 33301 33415 33668 33986 34367 34745 35017 34778 34286 33601 33279 33276 33400 33606 33751 33802 33678 33713 33738 33731 33741 33849 34073 34307 34180 33918 33724 33632 33483 33454 33583 33690 33698 33586 33532 33668 33908 34171 34262 34254 34324 34322 34008 33721 33559 33626 33841 33906 33806 33649 33440 33378 33479 33640 33934 34249 34562 34599 34459 34025 33560 33347 33352 33550 33830 34108 34133 33641 33184 33100 33307 33665 34010 34302 34566 34832 34598 33849 33255 33041 33142 33392 33692 33945 34096 33871 33218 32962 33031 33267 33532 33821 34164 34519 34649 33978 33204 32806 32832 33047 33404 33717 33877 33885 33579 33237 33215 33390 33670 34011 34359 34612 34656 34271 33645 33167 33049 33263 33625 33910 34078 34021 33887 33883 33924 33948 34016 34131 34316 34518 34436 34135 33917 33772 33561 33556 33669 33843 33933 33802 33805 33855 34025 33976 33875 33870 34050 34297 34182 33954 33798 33756 33777 33697 33638 33597 33507 33382 33496 33706 33964 34239 34286 34129 34085 33992 33699 33525 33510 33716 34008 34160 33957 33697 33363 33308 33474 33746 34016 34240 34508 34418 34120 33586 33281 33222 33395 33746 34147 34407 34214 33475 33055 33053 33291 33643 34014 34381 34684 34836 34223 33310 32918 32961 33250 33663 34048 34249 34168 33697 33455 33537 33824 34143 34462 34755 35022 35056 34589 33822 33325 33268 33596 33978 34120 34104 33997 33903 33802 33692 33706 33807 34025 34322 34614 34341 34059 33756 33432 33426 33690 33971 34145 34127 33999 33969 34009 34083 34040 34037 34116 34328 34464 34188 33873 33707 33691 33669 33763 33839 33856 33752 33646 33735 34000 34349 34555 34560 34608 34760 34610 34272 34100 34120 34329 34591 34561 34364 33983 33697 33694 33887 34132 34391 34684 34773 34540 34297 33817 33612 33583 33787 34100 34429 34623 34207 33518 33193 33221 33491 33806 34107 34420 34697 34632 33936 33235 32938 32983 33202 33571 33830 34019 33917 33243 32879 32892 33155 33463 33763 34088 34458 34550 33978 33256 32862 32878 33194 33558 33790 33838 33718 33531 33229 33165 33242 33367 33633 33958 34207 33962 33618 33215 32912 32990 33222 33536 33670 33659 33539 33625 33826 33951 33936 33871 33922 34006 33889 33651 33492 33453 33488 33469 33553 33643 33623 33562 33579 33687 33899 34127 34290 34202 34133 34082 33809 33574 33451 33529 33829 34135 34056 33719 33371 33331 33535 33816 34082 34333 34602 34698 34431 33902 33502 33394 33483 33785 34138 34407 34531 34217 33732 33601 33733 33978 34263 34559 34860 35051 34821 34037 33452 33280 33468 33856 34130 34241 34280 34238 34141 33960 33957 34117 34365 34620 34912 35105 34921 34634 34317 34060 34042 34196 34314 34333 34255 34206 34235 34338 34403 34365 34410 34501 34677 34637 34387 34253 34237 34293 34216 34168 34128 34090 34022 34081 34269 34488 34758 34976 34844 34762 34694 34420 34209 34111 34101 34226 34370 34234 33961 33662 33586 33698 33956 34263 34579 34873 35106 34904 34263 33677 33447 33463 33650 33896 34053 34112 33943 33472 33245 33350 33613 33945 34250 34532 34669 34436 33858 33298 33085 33211 33496 33757 33898 33890 33730 33713 33663 33584 33663 33839 34051 34268 34271 33961 33678 33473 33176 33104 33277 33513 33703 33867 33809 33804 33838 33973 34016 34032 34128 34286 34316 34066 33858 33845 33894 33741 33527 33432 33488 33413 33463 33641 33882 34153 34400 34282 34119 33998 33787 33701 33679 33783 33978 34212 34246 33823 33421 33303 33476 33745 34064 34364 34586 34820 34416 33666 33202 33059 33220 33573 33870 33986 34011 34022 33949 33864 33945 34147 34376 34605 34818 34870 34668 34287 33815 33671 33759 33971 34182 34323 34286 34275 34379 34399 34323 34332 34453 34643 34870 34787 34682 34676 34751 34729 34689 34686 34589 34513 34516 34614 34784 34988 35142 34994 34831 34748 34522 34352 34248 34313 34486 34712 34645 34312 33940 33806 33934 34162 34440 34704 35020 35253 35034 34391 33845 33657 33701 33878 34171 34484 34762 34545 33999 33814 33874 34037 34219 34411 34629 34833 34766 34052 33431 33140 33215 33459 33723 33884 33941 33849 33640 33386 33385 33546 33765 34021 34222 34411 34477 34150 33481 32983 32887 33056 33354 33589 33784 33793 33605 33547 33476 33495 33654 33881 34087 34214 33951 33667 33534 33460 33391 33409 33454 33503 33400 33271 33321 33537 33844 33905 33787 33811 33950 33877 33671 33556 33641 33843 33929 33733 33574 33397 33366 33414 33576 33802 34050 34299 34166 33964 33636 33434 33461 33606 33849 34114 34297 34139 33603 33363 33474 33745 34080 34406 34699 34944 35050 34569 34037 33792 33820 34066 34381 34579 34632 34597 34301 34136 34149 34294 34537 34786 35049 35282 35191 34937 34557 34387 34492 34728 34860 34897 34875 34924 35030 35131 35155 35162 35167 35269 35379 35228 35040 35007 35054 35012 35033 35120 35196 35181 35141 35164 35245 35382 35474 35482 35458 35492 35593 35451 35288 35191 35253 35367 35327 35172 35052 34897 34929 35070 35284 35521 35781 35828 35654 35467 35136 34894 34806 34884 35087 35320 35441 35118 34566 34292 34374 34557 34787 35042 35286 35503 35374 34688 34083 33878 33955 34203 34521 34743 34848 34691 34059 33692 33707 33914 34189 34462 34713 34918 35004 34431 33760 33486 33576 33867 34166 34324 34281 34126 34061 33906 33846 33881 34039 34278 34529 34717 34451 34168 33781 33475 33477 33685 33913 34007 33914 33841 34010 34226 34337 34288 34263 34364 34534 34444 34129 33950 33993 34014 33962 33995 34076 34085 33984 34022 34151 34354 34560 34686 34726 34710 34688 34482 34269 34136 34307 34616 34728 34507 34146 33918 33979 34118 34316 34537 34746 34949 34849 34577 34151 33968 33987 34132 34383 34650 34851 34598 34069 33825 33885 34078 34344 34635 34885 35125 35163 34652 34228 34062 34158 34405 34644 34789 34863 34821 34648 34525 34558 34681 34852 35056 35232 35347 35178 34863 34485 34358 34468 34712 34891 34994 35005 34985 35084 35141 35190 35215 35270 35385 35568 35500 35316 35167 35102 34989 35004 35097 35169 35176 35182 35268 35387 35543 35666 35622 35599 35639 35652 35448 35253 35171 35258 35326 35203 35104 34944 34869 34963 35098 35341 35583 35827 35848 35621 35301 34927 34771 34760 34880 35094 35342 35303 34746 34237 34149 34297 34567 34898 35203 35452 35579 35178 34519 34029 33813 33853 34011 34223 34411 34547 34322 33663 33409 33549 33825 34145 34444 34667 34911 34705 33934 33368 33199 33342 33630 33894 34062 34169 34131 33839 33589 33558 33662 33878 34147 34452 34591 34351 33931 33368 33131 33251 33531 33785 33973 34003 34021 34166 34251 34221 34206 34269 34439 34689 34411 34053 33882 33869 33702 33657 33755 33859 33891 33866 33952 34127 34312 34518 34484 34436 34530 34475 34198 34034 34006 34148 34277 34159 34014 33908 33912 34004 34220 34484 34739 35013 35101 34900 34731 34458 34344 34267 34291 34433 34618 34709 34417 34088 34027 34154 34363 34620 34840 35103 35313 35406 35092 34592 34316 34303 34442 34701 34946 35120 35124 34700 34354 34321 34452 34678 34956 35236 35485 35656 35321 34744 34396 34382 34541 34778 34980 35070 35049 34927 34898 34873 35004 35218 35438 35622 35806 35774 35573 35278 34844 34617 34622 34767 34929 35076 35174 35383 35603 35783 35831 35823 35821 35898 35944 35691 35385 35228 35211 35078 34966 34918 34930 34826 34817 34924 35075 35309 35501 35439 35313 35283 35110 34879 34700 34731 34955 35183 35167 34848 34401 34214 34331 34548 34836 35108 35347 35515 35361 34844 34340 34086 34061 34188 34400 34595 34703 34710 34169 33875 33839 34039 34286 34546 34805 35032 35031 34372 33774 33561 33645 33890 34147 34336 34454 34407 34324 34085 33907 33922 34070 34280 34566 34828 34689 34483 34214 33881 33721 33789 33937 34082 34095 34032 34047 34106 34113 34002 34014 34166 34366 34367 34284 34213 34230 34249 34049 33883 33830 33950 34193 34521 34835 35107 35359 35576 35476 35276 35162 35245 35424 35615 35816 35851 35794 35419 35095 34978 34918 34964 35078 35213 35378 35558 35794 35681 35220 34806 34562 34504 34565 34698 34836 34961 35014 34741 34545 34504 34601 34779 34986 35207 35406 35563 35085 34464 34131 34092 34204 34387 34582 34741 34792 34730 34558 34408 34470 34637 34835 35063 35323 35401 35205 34941 34582 34400 34377 34493 34622 34672 34622 34670 34799 34876 34878 34878 34904 35021 35115 34926 34724 34637 34714 34662 34568 34524 34471 34384 34403 34501 34648 34830 34981 34866 34694 34606 34438 34312 34319 34510 34784 34996 34891 34440 34131 34089 34192 34351 34554 34774 35010 35246 35047 34466 34034 33867 33959 34188 34428 34666 34793 34676 34301 34056 34048 34207 34414 34662 34980 35247 35071 34516 34039 33938 34105 34362 34552 34531 34452 34479 34473 34300 34247 34269 34394 34612 34782 34657 34481 34353 34299 34132 34076 34113 34139 34088 33997 33985 34040 34173 34237 34181 34188 34302 34288 34172 34029 34006 34123 34292 34172 33998 33853 33836 33878 33968 34217 34502 34774 34910 34687 34304 33984 33811 33771 33848 34032 34210 34324 33958 33610 33530 33587 33794 34091 34376 34680 34922 34813 34222 33654 33400 33442 33603 33807 33964 34076 33980 33672 33440 33463 33683 33978 34308 34635 34729 34611 34381 33926 33662 33609 33716 33863 33918 33931 33993 34083 34130 34148 34213 34362 34568 34653 34542 34367 34200 34124 33877 33718 33707 33807 33865 33920 33989 34092 34300 34538 34585 34569 34597 34531 34437 34329 34274 34265 34309 34118 33855 33690 33614 33661 33772 33920 34173 34474 34751 34657 34337 34076 33932 33830 33800 33886 34016 34159 34021 33500 33222 33233 33439 33783 34130 34486 34782 34941 34467 33848 33485 33431 33575 33863 34144 34320 34295 33952 33487 33359 33494 33704 34000 34364 34703 34861 34616 33958 33464 33338 33445 33701 33907 33996 33840 33710 33636 33512 33528 33666 33910 34174 34372 34262 34009 33796 33580 33386 33351 33394 33458 33382 33297 33333 33490 33735 33883 33884 33927 34000 33880 33635 33436 33421 33544 33670 33503 33350 33134 33059 33178 33403 33744 34146 34508 34630 34374 33977 33637 33469 33466 33586 33820 34022 34091 33592 33140 33117 33346 33700 34099 34439 34716 34890 34600 33847 33355 33287 33465 33770 33988 34080 34039 33969 33877 33934 34141 34350 34639 34932 35182 34955 34494 34103 33690 33620 33747 33892 34031 34008 33983 34109 34335 34627 34837 34800 34818 34679 34331 34085 34044 34206 34460 34409 34152 33871 33766 33966 34340 34755 35131 35525 35813 35522 34903 34210 33905 33913 34146 34431 34689 34809 34799 34727 34824 35060 35334 35549 35718 35838 35677 35221 34668 34277 34220 34377 34470 34520 34463 34442 34553 34752 34818 34768 34776 34847 34650 34340 34198 34276 34440 34425 34197 33946 33852 33965 34235 34550 34820 35108 35374 35123 34444 33835 33705 33873 34099 34266 34433 34474 34270 34134 34179 34454 34705 34947 35180 35351 35148 34731 34227 33894 33804 33847 33979 34089 34131 34240 34543 34971 35292 35423 35490 35365 34957 34506 34323 34395 34572 34524 34199 33862 33801 33991 34306 34691 35066 35341 35366 35006 34268 33621 33422 33520 33810 34060 34141 34083 33904 33693 33729 33967 34303 34630 34954 35126 35008 34564 34044 33743 33854 33973 34033 34005 33962 33998 34190 34491 34620 34588 34611 34603 34399 34060 33998 34160 34440 34480 34180 33845 33868 34256 34719 35209 35646 36087 36395 36045 35113 34330 34061 34123 34314 34566 34668 34699 34407 34153 34141 34410 34713 35085 35440 35694 35570 35039 34364 33939 33884 34026 34194 34262 34250 34320 34454 34509 34475 34471 34608 34921 34974 34630 34380 34384 34530 34505 34314 34176 34073 34182 34343 34568 34845 35153 35220 35036 34664 34211 34005 34005 34193 34463 34741 34799 34313 33983 34037 34324 34661 35032 35467 35884 36014 35156 34227 33770 33779 34015 34303 34544 34614 34527 34308 34252 34332 34515 34767 35022 35214 35011 34669 34432 34143 34049 34102 34192 34233 34257 34331 34508 34744 34865 34806 34707 34645 34404 34139 34027 34078 34235 34305 34089 33804 33693 33833 34139 34484 34821 35152 35373 35004 34167 33659 33562 33735 34069 34351 34496 34565 34283 33950 33902 34013 34273 34647 34962 35113 34886 34436 34005 33877 33985 34135 34272 34377 34397 34465 34637 34785 34846 34848 34872 34735 34459 34316 34389 34625 34699 34455 34184 34005 34038 34231 34553 34862 35227 35524 35309 34577 34031 33948 34058 34327 34559 34647 34630 34244 33966 34020 34269 34528 34806 35068 35205 35007 34482 34063 33907 33986 34153 34377 34543 34590 34711 34738 34712 34677 34764 34985 35196 34968 34659 34490 34496 34413 34359 34392 34368 34392 34510 34671 34968 35220 35413 35302 35026 34624 34356 34296 34419 34664 34870 34730 34270 34091 34181 34441 34796 35119 35410 35727 35568 34690 34035 33852 33998 34245 34471 34556 34528 34372 34084 33998 34120 34363 34611 34800 34944 34720 34372 33953 33751 33811 33980 34126 34204 34175 34167 34273 34386 34403 34419 34493 34637 34498 34181 34008 34037 34067 33979 33856 33755 33755 33900 34138 34405 34670 34841 34633 34510 34208 33990 33956 34022 34132 34162 34009 33672 33354 33339 33543 33829 34152 34450 34823 35186 34941 34116 33529 33438 33611 33925 34247 34501 34767 34500 34529 34823 35161 35498 35684 35899 36172 36219 35503 34665 34128 34013 34222 34520 34756 34948 35054 35011 34930 34938 35061 35216 35500 35797 35929 36109 36141 36064 36039 35994 35955 36002 36107 36242 36436 36636 36658 36520 36462 36453 36492 36652 36869 37103 37282 37151 36829 36595 36468 36495 36562 36647 36692 36736 36384 35978 35909 36172 36389 36400 36177 35988 35805 35506 35273 35151 34987 34948 35032 35093 35184 35437 35557 35447 35336 35042 34780 34627 34602 34703 34852 34739 34390 34018 33952 34087 34251 34489 34740 35034 34917 34439 33856 33573 33523 33625 33804 34002 34167 33989 33545 33400 33432 33621 33829 34062 34346 34653 34439 33666 33176 33042 33188 33471 33744 33907 33933 33740 33468 33363 33476 33745 34025 34291 34577 34615 34307 33709 33371 33286 33442 33653 33824 33856 33795 33732 33474 33321 33379 33581 33870 34194 34298 34133 33936 33615 33436 33515 33707 33917 33999 33950 33939 33964 33915 33776 33750 33898 34125 34232 34204 34135 34100 34007 33916 33956 34071 34163 34164 34154 34189 34289 34341 34253 34257 34335 34407 34377 34316 34318 34413 34539 34483 34393 34312 34304 34390 34487 34604 34771 34937 34894 34830 34761 34697 34639 34636 34695 34832 35017 34934 34658 34476 34501 34633 34806 34992 35216 35394 35354 35092 34801 34647 34690 34836 35044 35275 35460 35248 34894 34750 34790 34954 35178 35426 35713 35986 35999 35498 35034 34798 34806 34951 35144 35313 35392 35190 34770 34512 34487 34623 34831 35097 35367 35558 35501 34970 34505 34325 34399 34621 34870 35006 34974 34795 34488 34300 34298 34443 34700 34952 35194 35174 34949 34401 33949 33842 33986 34231 34419 34528 34481 34446 34490 34448 34451 34498 34658 34858 35052 34862 34581 34276 33914 33757 33842 34032 34201 34205 34215 34265 34429 34490 34456 34467 34551 34712 34695 34437 34183 34120 34015 33900 33937 34037 34133 34046 34035 34131 34261 34467 34417 34354 34421 34540 34398 34207 34079 34147 34255 34114 33989 33969 33932 33974 34092 34248 34478 34719 34735 34565 34503 34405 34316 34167 34082 34133 34242 34239 34056 33875 33722 33866 34028 34308 34613 34915 35072 34806 34491 34010 33752 33717 33879 34195 34354 34415 34033 33665 33664 33902 34187 34483 34770 35041 35310 34990 34190 33714 33698 33912 34251 34521 34699 34739 34488 34128 33998 34096 34348 34621 34893 35206 35263 34812 34275 33985 33961 34144 34380 34563 34625 34587 34602 34521 34577 34687 34851 35057 35363 35451 35154 34869 34611 34390 34367 34425 34526 34559 34488 34535 34593 34769 34900 34985 35057 35291 35318 35019 34683 34544 34504 34378 34377 34412 34435 34417 34499 34619 34884 35117 35279 35234 35305 35206 34844 34593 34454 34552 34735 34617 34398 34182 34158 34317 34601 34855 35101 35377 35483 35290 35038 34506 34270 34169 34225 34402 34569 34510 34103 34014 34281 34649 35001 35373 35722 36034 36240 35643 34710 34126 33937 34011 34203 34413 34569 34502 34015 33724 33668 33802 34109 34449 34770 34985 34821 33996 33428 33263 33476 33761 33982 34117 34151 34040 33759 33662 33741 33928 34201 34488 34680 34642 34241 33700 33388 33487 33808 33994 34049 33955 33834 33858 34063 34176 34163 34199 34253 34281 34124 33862 33763 33696 33595 33585 33638 33637 33596 33690 33957 34316 34750 34917 34793 34670 34450 34060 33808 33818 34064 34244 34023 33709 33457 33496 33689 34061 34458 34836 35223 35177 34854 34211 33724 33625 33767 34005 34284 34513 34250 33819 33730 33935 34274 34604 34932 35208 35470 35221 34421 33687 33433 33585 33784 33985 34169 34337 34024 33823 33851 34041 34277 34550 34756 35063 35301 34715 33840 33372 33309 33505 33782 34016 34183 34271 34205 34099 34153 34278 34518 34752 35021 34923 34448 33669 33302 33415 33638 33892 34073 34073 34061 34045 34087 34048 34048 34165 34399 34447 34177 33812 33623 33425 33410 33582 33807 33917 33904 33940 34032 34239 34410 34463 34511 34583 34461 34075 33845 33844 33995 34006 33961 33962 33900 33885 34008 34221 34428 34649 34719 34625 34635 34574 34262 33984 33920 34093 34301 34189 33982 33801 33740 33839 34033 34327 34601 34847 34804 34532 34071 33706 33601 33705 33976 34200 34155 33771 33434 33417 33651 33967 34326 34644 34994 35136 34689 33916 33391 33294 33432 33702 33980 34207 33912 33512 33507 33727 33983 34264 34617 34923 35057 34391 33573 33230 33278 33517 33752 33858 33833 33777 33557 33523 33596 33821 34087 34359 34523 34349 33852 33390 33263 33384 33531 33673 33716 33832 34069 34407 34554 34633 34755 34845 34783 34398 34155 34146 34112 34179 34338 34367 34178 34043 34098 34321 34632 34803 34715 34628 34542 34243 34065 34103 34378 34521 34431 34261 34133 34087 34216 34440 34716 35002 35188 35079 35016 34937 34710 34496 34439 34552 34654 34489 34409 34255 34281 34570 34936 35343 35713 36083 35965 35648 35139 34811 34687 34756 34933 35138 35040 34643 34254 34160 34282 34521 34749 34968 35180 35019 34755 34347 34186 34282 34478 34733 35005 35031 34606 34159 34139 34295 34594 34827 35092 35408 35285 34766 34186 33963 34072 34242 34472 34655 34723 34193 33793 33741 33968 34302 34625 34966 35343 35106 34296 33737 33628 33777 34098 34313 34444 34337 33688 33342 33423 33734 34081 34404 34748 35004 34708 33914 33399 33308 33468 33743 33944 34092 33965 33474 33273 33387 33677 33990 34292 34562 34681 34015 33330 33078 33206 33539 33883 34057 34155 34048 33778 33663 33819 34070 34356 34680 34894 34934 34387 33868 33690 33895 34266 34492 34577 34583 34661 34598 34620 34813 35003 35222 35372 35354 35010 34637 34381 34417 34598 34769 34915 35128 35392 35507 35699 35738 35784 35870 35690 35347 35133 35095 35169 35109 34922 34760 34881 35111 35497 35923 36290 36417 36103 35463 35026 34964 35103 35465 35619 35625 35360 35252 35470 35767 36180 36466 36585 36317 35578 35068 35013 35158 35250 35378 35391 35314 35519 35737 35869 35928 35940 35732 35570 35845 36318 36501 36797 36903 37119 37586 38099 38488 38906 39289 39371 38737 38148 37797 37521 37476 38031 38088 37924 37935 38071 38340 38780 39171 39520 39119 38312 37478 36954 36686 36355 36033 35965 36071 36328 36566 36647 36570 36199 35532 35027 34885 34956 34915 34554 34193 34138 34392 34756 35223 35689 35968 35382 34260 33522 33460 33694 33889 34005 34097 34163 34180 34281 34428 34575 34756 34468 33860 33523 33282 33275 33349 33494 33601 33796 34024 34315 34661 34632 34384 33952 33595 33539 33733 33977 34128 33670 33063 32938 33371 33861 34487 34947 35084 34499 33868 33693 33822 34040 34173 34266 34274 34380 34410 34483 34572 34675 34731 34547 34376 34445 34498 34209 34232 34691 35148 35571 36021 36549 36952 37051 36744 36147 35726 35639 35742 35783 35859 35853 35886 35965 36043 36399 36809 37149 37035 36562 35985 35621 35566 35572 35605 35705 35859 36111 36247 36289 36378 36391 36192 35929 35834 35912 35832 35540 35392 35484 35738 36101 36415 36796 37081 36822 36224 35869 35812 35858 35921 35943 35993 35945 35837 35884 36155 36415 36765 36603 36221 35891 35601 35455 35472 35614 35847 36021 36278 36522 36541 36320 36151 35825 35562 35526 35629 35700 35598 35267 35181 35468 35826 36260 36664 36929 36775 35883 35292 35162 35270 35409 35444 35398 35381 35442 35727 36097 36500 37034 36800 36411 36022 35771 35511 35245 35023 34897 35077 35351 35517 35777 35798 35649 35190 35015 35060 35288 35395 35610 35377 35113 35135 35301 35558 35923 36214 36460 36166 35503 35131 35085 35165 35261 35520 35698 35899 35732 35653 35779 35972 36221 36061 35816 35651 35566 35501 35456 35564 35675 35860 36005 36231 36360 36320 36312 36024 35760 35676 35752 35867 35881 35698 35496 35533 35710 35879 36168 36549 36890 36668 36049 35717 35686 35738 35826 35926 35969 36010 35869 35889 36080 36385 36699 36896 36615 36247 35879 35699 35668 35685 35820 35923 36136 36388 36728 36782 37083 37516 37715 37256 36885 36572 36307 36094 36103 36238 36432 36635 36806 36923 37076 37117 37136 37046 36613 36392 36317 36379 36331 36058 35740 35710 35825 36058 36302 36706 36980 36800 36104 35663 35548 35606 35703 35754 35768 35380 35147 35189 35421 35734 36073 36343 36513 36018 35401 35013 34954 35045 35185 35299 35282 35177 35125 35142 35266 35608 35441 35174 35074 34898 34836 34855 34918 34899 34902 34999 35230 35383 35376 35344 35327 35115 34971 34907 34979 34994 34825 34716 34805 35082 35478 35786 36151 36470 36403 36120 35624 35462 35313 35291 35457 35518 35222 35155 35249 35571 35849 36185 36409 36478 35831 35267 35049 35140 35308 35385 35382 35449 35449 35458 35504 35833 36231 36336 36135 35865 35576 35450 35446 35462 35526 35591 35657 35938 36181 36317 36282 36334 36079 35928 35926 36057 36066 35792 35569 35566 35702 36073 36514 36888 37248 37296 36781 36305 36105 36005 36015 36002 36083 35947 35846 35885 36154 36378 36837 37388 37923 37336 36669 36089 35910 35918 35978 36173 36294 36179 36014 36121 36378 36741 37030 36888 36589 36271 36030 36047 36096 36038 36032 36120 36202 36436 36683 36810 36885 36795 36685 36622 36629 36730 36558 36309 36161 36287 36551 36765 37059 37502 37585 37079 36375 36068 35997 36090 36090 36189 36157 35928 35836 35978 36156 36495 36639 36562 35969 35433 35232 35256 35394 35490 35471 35510 35672 35650 35665 35744 35857 35995 36061 35841 35720 35518 35392 35308 35318 35274 35271 35353 35583 35721 35545 35429 35514 35405 35291 35250 35295 35205 34895 34833 35003 35452 36002 36566 37026 37329 37136 36780 36098 35661 35425 35372 35390 35305 34978 34735 34847 35120 35349 35660 35879 36011 35645 35122 34882 34847 34854 34786 35115 35493 35933 36196 36433 36616 36680 36782 36869 36639 36298 35971 35838 35807 35880 35964 36055 36190 36365 36392 36410 36560 36838 36836 36884 36779 36531 36263 36149 36152 36219 36414 36546 36768 36972 36987 36950 36824 36790 36728 36639 36603 36616 36362 36046 35995 36158 36434 36768 37164 37459 37062 36456 36121 35954 35963 36004 36023 36031 35766 35530 35615 35795 36090 36405 36635 36619 36038 35552 35447 35507 35607 35723 35777 35857 35964 36086 36168 36372 36696 36840 36374 36039 35767 35495 35283 35281 35330 35278 35351 35562 35739 35629 35619 35719 35821 35763 35748 35900 36130 35902 35439 35250 35310 35458 35754 36068 36275 35967 35673 35391 35216 35233 35372 35715 35950 35645 35260 35146 35412 35744 35983 36275 36457 36397 35899 35417 35267 35316 35449 35479 35632 35552 35494 35610 35834 36102 36437 36692 36878 36625 36055 35662 35530 35549 35567 35652 35749 35750 35734 35802 35966 36221 36479 36764 36729 36533 36193 35915 35868 35890 35945 36033 36208 36318 36359 36303 36417 36794 37041 36979 36783 36608 36321 36150 36075 36054 36139 36185 36286 36437 36521 36461 36510 36715 36691 36461 36388 36372 36273 36067 35928 35846 35833 35951 36311 36620 36812 36780 36799 36821 36664 36534 36508 36523 36458 36240 36096 36058 36364 36638 36852 37011 37176 37217 37260 37003 36784 36662 36589 36583 36525 36370 36310 36504 36585 36825 37102 37409 37602 37328 36889 36614 36568 36566 36604 36638 36578 36246 36410 36629 36817 37019 37220 37585 37977 37449 36676 36216 36000 35955 36002 36145 36156 35822 35771 35882 36056 36240 36571 36940 36919 36312 35709 35353 35258 35339 35512 35596 35573 35342 35274 35338 35556 35931 36188 36106 35783 35321 34968 34796 34743 34950 35122 35278 35428 35657 35649 35794 36193 36442 36285 36033 35849 35492 35172 34929 34944 34984 35013 35096 35165 35424 35513 35550 35852 35873 35667 35579 35514 35272 34891 34816 34835 34897 35081 35237 35460 35572 35494 35488 35577 35443 35341 35265 35192 35051 34807 34793 34954 35434 35718 35904 36148 36301 36426 36670 36678 36319 36172 36062 35948 35808 35579 35546 35684 36045 36373 36533 36654 36878 36941 37079 37155 36909 36714 36630 