25786 25803 16710 16716 16697 16693 16682 16677 16602 16520 16480 16441 16399 16366 16330 16291 16262 16228 16199 16178 16143 16080 16028 15983 15937 15904 15856 15811 15774 15722 15672 15512 15092 14975 14863 14718 14585 14459 14304 14187 14106 14025 13970 13928 13911 13869 13844 13815 13778 13736 13716 13677 13656 13594 13537 13481 13446 13410 13393 13366 13351 13330 13302 13288 13283 13305 13342 13376 13405 13390 13370 13354 13353 13347 13348 13364 13362 13377 13373 13374 13378 13383 13395 13393 13373 13346 13321 13299 13282 13288 13273 13271 13265 13288 13292 13313 13329 13348 13356 13362 13345 13310 13299 13288 13279 13284 13285 13279 13278 13283 13294 13301 13319 13327 13337 13333 13338 13316 13304 13284 13290 13290 13284 13292 13290 13294 13299 13304 13321 13317 13310 13312 13302 13289 13293 13310 13361 13408 13437 13449 13466 13465 13490 13473 13488 13533 13559 13554 13528 13511 13523 13517 13539 13569 13620 13633 13634 13628 13647 13664 13706 13757 13756 13769 13774 13763 13763 13750 13758 13776 13793 13788 13801 13796 13794 13775 13773 13766 13785 13787 13788 13798 13815 13816 13833 13846 13875 13903 13913 13924 13948 13933 13916 13882 13878 13856 13858 13843 13845 13820 13811 13813 13813 13796 13781 13785 13783 13788 13772 13777 13779 13788 13791 13811 13833 13822 13813 13801 13803 13803 13781 13772 13744 13738 13711 13688 13684 13672 13679 13674 13670 13660 13644 13640 13645 13641 13657 13650 13643 13643 13650 13657 13657 13662 13666 13666 13666 13669 13659 13657 13648 13648 13642 13617 13602 13580 13576 13573 13563 13546 13557 13566 13566 13556 13565 13579 13600 13595 13596 13585 13611 13634 13665 13678 13682 13673 13664 13641 13635 13626 13624 13619 13613 13623 13601 13580 13589 13570 13547 13539 13542 13554 13554 13556 13572 13588 13579 13637 13637 13611 13629 13594 13613 13594 13578 13576 13567 13561 13571 13553 13567 13558 13570 13548 13532 13535 13525 13519 13527 13526 13535 13529 13528 13532 13543 13532 13527 13529 13525 13526 13511 13503 13499 13487 13494 13484 13478 13470 13471 13483 13463 13465 13461 13475 13474 13484 13490 13501 13508 13521 13520 13550 13576 13598 13613 13601 13596 13589 13588 13584 13598 13599 13570 13554 13534 13542 13556 13582 13623 13614 13631 13663 13676 13671 13676 13693 13705 13724 13740 13747 13749 13757 13782 13825 13845 13857 13866 13864 13872 13865 13848 13863 13920 13936 14000 14044 14099 14141 14178 14233 14255 14285 14320 14352 14390 14381 14394 14454 14455 14464 14488 14508 14522 14571 14577 14600 14653 14773 14837 14864 14845 14867 14879 14916 14958 14982 14973 14996 15021 15028 15026 15011 15007 15011 15020 15032 15045 15093 15089 15100 15095 15112 15122 15131 15138 15151 15151 15162 15174 15181 15187 15176 15189 15165 15154 15144 15069 14954 14863 14883 14970 15040 15081 15113 15114 15146 15159 15165 15159 15163 15134 15118 15090 15067 15033 15032 15020 14969 14951 14927 14914 14901 14879 14867 14849 14821 14792 14771 14748 14719 14697 14681 14661 14660 14632 14626 14612 14622 14603 14570 14523 14497 14453 14414 14379 14364 14329 14293 14287 14280 14269 14255 14276 14276 14266 14236 14187 14152 14121 14112 14100 14098 14088 14118 14115 14120 14131 14136 14147 14161 14176 14167 14152 14137 14132 14116 14116 14103 14109 14122 14110 14118 14135 14151 14156 14181 14181 14169 14170 14153 14156 14139 14149 14150 14165 14172 14172 14173 14180 14188 14195 14215 14217 14219 14230 14229 14236 14240 14248 14247 14264 14282 14284 14293 14302 14298 14310 14320 14334 14328 14329 14326 14316 14327 14344 14352 14355 14363 14374 14380 14394 14415 14416 14431 14438 14440 14440 14439 14454 14462 14464 14467 14482 14491 14501 14512 14514 14521 14531 14540 14549 14559 14554 14556 14563 14546 14556 14556 14569 14569 14574 14576 14594 14589 14588 14593 14607 14609 14608 14593 14589 14585 14600 14595 14596 14595 14589 14597 14596 14603 14610 14607 14627 14610 14605 14602 14587 14584 14575 14567 14571 14580 14576 14568 14563 14554 14564 14562 14559 14560 14559 14544 14516 14512 14496 14501 14488 14483 14477 14487 14463 14471 14469 14452 14470 14468 14459 14459 14433 14414 14399 14391 14372 14378 14371 14368 14354 14349 14343 14334 14338 14348 14329 14327 14332 14327 14305 14296 14277 14254 14259 14242 14230 14231 14221 14218 14205 14202 14192 14193 14191 14189 14180 14167 14166 14144 14140 14126 14123 14113 14105 14102 14085 14084 14074 14080 14069 14072 14076 14069 14058 14043 14032 14034 14012 14005 13997 13996 13986 13981 13978 13979 13977 13978 13973 13979 13976 13968 13963 13943 13944 13930 13928 13920 13912 13917 13914 13914 13903 13914 13901 13913 13908 13904 13908 13892 13885 13876 13871 13866 13857 13839 13848 13848 13852 13855 13841 13858 13852 13843 13847 13848 13843 13846 13834 13828 13816 13813 13810 13821 13818 13820 13805 13808 13821 13821 13810 13812 13824 13827 13822 13820 13811 13807 13796 13797 13789 13792 13788 13791 13795 13788 13789 13796 13799 13797 13807 13810 13793 13794 13787 13773 13771 13762 13771 13774 13771 13766 13770 13766 13770 13774 13757 13761 13775 13764 13763 13756 13745 13743 13743 13733 13738 13736 13726 13729 13724 13735 13727 13718 13715 13733 13739 13722 13734 13713 13712 13702 13699 13694 13687 13691 13683 13679 13691 13678 13685 13678 13688 13677 13684 13693 13681 13682 13681 13677 13660 13661 13660 13670 13668 13655 13659 13666 13668 13667 13675 13665 13683 13666 13677 13674 13672 13660 13662 13657 13655 13650 13644 13643 13643 13630 13632 13638 13636 13634 13632 13635 13632 13644 13635 13629 13627 13614 13616 13600 13611 13618 13617 13612 13628 13611 13606 13617 13621 13618 13619 13625 13616 13605 13598 13598 13603 13598 13598 13587 13589 13590 13587 13586 13586 13593 13587 13586 13582 13594 13577 13579 13576 13554 13554 13548 13551 13548 13548 13539 13538 13523 13546 13527 13531 13529 13519 13522 13496 13494 13486 13476 13482 13469 13461 13460 13449 13453 13435 13444 13447 13444 13445 13425 13411 13413 13396 13387 13383 13387 13365 13374 13361 13362 13350 13351 13351 13345 13342 13340 13340 13323 13308 13294 13287 13282 13270 13266 13248 13244 13256 13253 13241 13245 13251 13246 13244 13236 13232 13209 13201 13201 13191 13202 13192 13194 13195 13176 13186 13182 13198 13195 13206 13212 13219 13204 13212 13210 13222 13220 13228 13237 13228 13246 13243 13258 13266 13266 13275 13284 13284 13270 13275 13263 13264 13267 13267 13261 13271 13273 13278 13270 13284 13287 13293 13308 13314 13306 13296 13287 13267 13277 13277 13280 13276 13279 13286 13276 13301 13299 13298 13307 13302 13317 13316 13299 13289 13288 13283 13278 13285 13282 13288 13282 13289 13292 13299 13305 13303 13327 13323 13322 13324 13304 13294 13297 13303 13295 13299 13295 13300 13311 13297 13319 13323 13330 13340 13344 13350 13359 13344 13341 13329 13333 13340 13337 13338 13337 13343 13339 13343 13355 13374 13367 13375 13378 13384 13389 13394 13379 13387 13377 13378 13385 13386 13396 13394 13397 13393 13411 13417 13417 13418 13429 13442 13438 13425 13417 13425 13422 13411 13413 13426 13420 13409 13412 13417 13424 13423 13430 13435 13439 13445 13447 13444 13435 13426 13418 13431 13413 13426 13428 13430 13424 13435 13430 13423 13436 13447 13441 13444 13453 13454 13456 13445 13426 13430 13429 13433 13431 13428 13430 13433 13434 13450 13438 13451 13444 13449 13462 13448 13451 13443 13435 13425 13425 13418 13407 13415 13406 13405 13417 13414 13417 13413 13420 13418 13425 13430 13426 13417 13412 13406 13399 13391 13399 13405 13405 13393 13405 13413 13401 13422 13408 13416 13393 13365 13333 13310 13282 13261 13241 13223 13219 13238 13309 13406 13524 13592 13628 13663 13721 13771 13824 13850 13867 13886 13916 13959 14004 13957 13946 13978 14016 14056 14100 14132 14145 14114 14073 14041 14000 13987 13973 13950 13951 13951 13954 13970 13966 13967 13979 13985 13987 13983 13994 13998 14000 14003 14011 13992 13998 14021 14043 14078 14116 14170 14198 14223 14224 14226 14231 14287 14325 14339 14368 14381 14378 14394 14419 14418 14418 14380 14340 14297 14224 14179 14146 14111 14071 14044 14015 14005 14035 14127 14160 14199 14330 14034 13948 13931 13934 13862 13783 13743 13716 13671 13652 13647 13631 13633 13629 13603 13539 13489 13444 13423 13403 13355 13311 13246 13135 13038 12924 12816 12708 12612 12563 12494 12443 12382 12360 12332 12310 12267 12233 12207 12164 12148 12122 12095 12076 12056 12037 12019 11989 11967 11959 11932 11910 11870 11840 11814 11789 11777 11767 11751 11742 11731 11711 11707 11696 11687 11675 11675 11656 11650 11620 11601 11573 11582 11584 11566 11562 11565 11555 11558 11543 11541 11545 11544 11530 11531 11511 11507 11524 11545 11545 11559 11586 11631 11674 11718 11740 11745 11755 11784 11817 11855 11962 12059 12298 12523 12648 12811 12961 13062 13116 13125 13097 13060 13099 13146 13215 13249 13318 13390 13430 13422 13397 13377 13349 13312 13298 13264 13261 13235 13217 13203 13173 13152 13146 13122 13099 13084 13079 13021 12988 12966 12979 12931 12939 12904 12883 12867 12862 12846 12819 12796 12766 12738 12668 12459 12185 11968 11767 11706 11682 11675 11659 11640 11625 11613 11619 11613 11595 11559 11551 11558 11551 11583 11609 11634 11665 11692 11756 11810 11853 11903 11968 11994 12057 12122 12164 12205 12229 12245 12264 12309 12314 12336 12357 12397 12441 12457 12489 12522 12554 12577 12604 12616 12630 12613 12614 12648 12660 12713 12745 12770 12794 12818 12819 12824 12809 12803 12800 12803 12779 12763 12759 12733 12726 12703 12699 12691 12683 12690 12694 12700 12712 12717 12720 12713 12714 12710 12681 12655 12641 12608 12588 12562 12553 12530 12572 12587 12645 12692 12810 12914 12943 12927 12905 12899 12889 12902 12914 12922 12947 12957 12966 12956 12969 12992 12979 13007 13016 12982 12947 12924 12941 12972 12999 13043 13066 13098 13138 13205 13262 13317 13373 13454 13516 13588 13679 13740 13778 13789 13802 13823 13841 13859 13867 13853 13847 13834 13844 13832 13807 13791 13761 13748 13758 13698 13720 13743 13760 13777 13780 13809 13832 13851 13902 13909 13933 13951 13974 13978 13966 13947 13910 13899 13892 13927 13974 13975 13952 13958 13969 13980 13997 14040 14037 13976 13923 13888 13866 13855 13833 13804 13808 13808 13778 13759 13759 13735 13722 13722 13689 13670 13636 13610 13594 13589 13584 13565 13572 13572 13574 13570 13578 13576 13573 13549 13532 13498 13495 13457 13467 13466 13449 13442 13445 13460 13455 13455 13459 13454 13422 13392 13341 13309 13294 13261 13250 13237 13236 13242 13232 13218 13212 13222 13232 13231 13221 13201 13180 13172 13171 13158 13163 13162 13156 13150 13161 13145 13132 13115 13102 13085 13079 13053 13051 13024 13019 13008 13004 13018 13012 13016 13029 13039 13064 13081 13105 13116 13102 13115 13118 13114 13109 13117 13121 13130 13146 13148 13156 13159 13152 13165 13172 13185 13158 13145 13148 13133 13134 13122 13124 13130 13140 13133 13143 13149 13164 13192 13200 13227 13234 13251 13250 13258 13271 13284 13306 13316 13338 13328 13338 13345 13353 13362 13371 13377 13360 13354 13357 13337 13334 13352 13349 13347 13363 13364 13361 13377 13373 13390 13395 13396 13393 13398 13404 13396 13415 13430 13428 13439 13421 13433 13414 13432 13402 13378 13366 13364 13352 13343 13330 13303 13280 13271 13251 13252 13234 13223 13209 13189 13178 13181 13179 13155 13144 13134 13121 13118 13096 13090 13081 13082 13065 13063 13069 13068 13068 13065 13061 13060 13049 13043 13017 12989 12987 12969 12963 12960 12955 12955 12944 12945 12942 12967 12980 12978 12962 12950 12937 12918 12910 12888 12887 12888 12893 12909 12902 12895 12884 12862 12860 12835 12816 12788 12761 12744 12713 12690 12681 12671 12662 12648 12649 12650 12654 12651 12653 12645 12630 12626 12608 12590 12570 12546 12531 12525 12524 12523 12514 12499 12481 12488 12470 12461 12453 12439 12415 12400 12395 12399 12419 12425 12422 12431 12457 12471 12484 12495 12503 12500 12493 12497 12482 12477 12486 12493 12511 12503 12506 12512 12520 12517 12514 12517 12506 12478 12478 12486 12506 12531 12566 12635 12721 12791 12839 12855 12898 12925 12922 12930 12924 12967 12964 12966 12957 12939 12935 12927 12928 12937 12935 12931 12936 12938 12939 12943 12938 12936 12917 12904 12912 12918 12921 12919 12935 12922 12946 12930 12935 12942 12933 12939 12940 12946 12967 13001 13013 13045 13064 13085 13089 13099 13109 13122 13116 13129 13141 13124 13120 13126 13124 13131 13124 13127 13128 13120 13125 13125 13122 13121 13154 13170 13196 13225 13234 13247 13247 13249 13270 13291 13273 13281 13288 13303 13337 13397 13413 13439 13420 13422 13407 13412 13405 13392 13399 13410 13431 13444 13444 13427 13406 13396 13387 13377 13355 13354 13334 13340 13328 13322 13307 13286 13293 13300 13283 13278 13244 13212 13204 13195 13186 13160 13154 13142 13136 13159 13159 13187 13194 13209 13201 13207 13183 13169 13159 13147 13142 13149 13164 13167 13158 13159 13135 13123 13080 13056 13004 12984 12959 12915 12887 12867 12841 12816 12811 12787 12775 12761 12750 12740 12734 12703 12685 12659 12635 12620 12605 12591 12587 12576 12566 12570 12558 12569 12579 12566 12558 12556 12533 12528 12516 12516 12515 12521 12527 12549 12561 12576 12593 12612 12629 12640 12625 12616 12610 12614 12608 12627 12634 12653 12663 12677 12691 12710 12723 12751 12775 12786 12794 12774 12770 12799 12834 12873 12892 12917 12889 12894 12890 12885 12888 12878 12846 12814 12777 12757 12749 12734 12726 12724 12716 12721 12713 12710 12702 12687 12706 12679 12663 12642 12631 12624 12629 12648 12674 12695 12699 12676 12674 12655 12674 12659 12653 12648 12635 12646 12670 12705 12681 12684 12672 12716 12762 12811 12856 12883 12917 12928 12914 12902 12885 12861 12852 12839 12836 12832 12822 12816 12816 12833 12840 12852 12846 12838 12830 12797 12767 12766 12765 12757 12766 12773 12791 12806 12822 12833 12853 12837 12830 12832 12818 12804 12799 12800 12835 12852 12854 12859 12867 12877 12899 12910 12922 12952 12968 12997 13012 13022 13054 13080 13088 13093 13102 13110 13112 13124 13135 13143 13160 13182 13193 13193 13221 13217 13211 13232 13233 13248 13236 13239 13239 13234 13231 13232 13212 13233 13218 13233 13231 13256 13276 13296 13321 13325 13335 13344 13331 13333 13317 13329 13331 13338 13333 13318 13323 13313 13315 13301 13319 13322 13341 13333 13361 13370 13373 13372 13368 13384 13359 13340 13328 13309 13299 13311 13288 13283 13284 13261 13256 13242 13250 13243 13275 13255 13244 13237 13219 13225 13208 13207 13203 13199 13197 13184 13178 13185 13192 13202 13219 13205 13175 13158 13141 13132 13123 13141 13155 13157 13194 13210 13227 13193 13175 13152 13198 13216 13187 13161 13131 13106 13079 13066 12974 12891 12846 12832 12800 12768 12714 12678 12605 12544 12491 12450 12393 12357 12293 12250 12201 12186 12151 12133 12104 12105 12088 12079 12069 12057 12041 12012 11995 11981 11994 11990 11992 11987 12003 12017 11998 11990 11994 12010 12009 12001 11974 11956 11944 11944 11944 11931 11922 11921 11920 11936 11977 12024 12037 12029 12020 12021 12006 11985 11991 11996 12018 12027 12009 11981 11979 11981 12033 12049 12026 12019 11989 11967 11963 11942 11890 11840 11805 11751 11741 11746 11735 11736 11691 11679 11663 11647 11619 11635 11614 11583 11595 11629 11667 11698 11733 11743 11743 11795 11824 11839 11883 11879 11876 11853 11852 11841 11807 11808 11789 11774 11765 11757 11758 11753 11766 11758 11758 11772 11784 11778 11769 11737 11724 11723 11727 11726 11732 11737 11732 11741 11749 11758 11774 11783 11761 11757 11747 11734 11735 11741 11734 11727 11734 11739 11772 11801 11946 12040 12109 12178 12238 12241 12252 12265 12294 12298 12293 12293 12234 12214 12228 12233 12246 12229 12205 12168 12141 12121 12122 12128 12143 12111 12071 12059 12161 12284 12401 12501 12561 12630 12662 12647 12633 12615 12614 12626 12633 12644 12684 12733 12784 12852 12963 13026 13085 13120 13158 13197 13225 13246 13245 13259 13283 13307 13318 13316 13369 13427 13401 13379 13419 13401 13388 13264 13189 13182 13130 13059 13012 12989 12991 13020 13063 13053 13056 13055 13054 12938 12879 12814 12762 12683 12630 12561 12535 12520 12511 12489 12440 12418 12433 12343 12243 12229 12184 12167 12090 12071 12030 12005 11986 11968 11931 11894 11873 11849 11798 11783 11693 11649 11610 11600 11591 11536 11504 11523 11524 11534 11525 11419 11381 11432 11417 11358 11319 11333 11294 11266 11273 11281 11289 11271 11289 11274 11268 11274 11305 11321 11342 11322 11335 11336 11335 11308 11293 11267 11284 11285 11296 11296 11315 11309 11340 11356 11367 11369 11369 11370 11356 11343 11326 11347 11359 11354 11367 11357 11366 11390 11397 11387 11393 11402 11411 11387 11382 11374 11384 11383 11397 11374 11387 11406 11400 11428 11419 11408 11412 11430 11430 11430 11405 11399 11401 11382 11293 11292 11298 11330 11355 11384 11400 11413 11418 11430 11435 11433 11420 11402 11384 11370 11364 11378 11397 11403 11419 11440 11449 11442 11440 11437 11442 11453 11459 11457 11484 11510 11535 11568 11626 11678 11731 11778 11812 11843 11893 11923 11956 11977 12006 12014 12035 12048 12059 12068 12066 12061 12065 12059 12057 12058 12058 12074 12058 12049 12036 12041 12022 12022 11998 12012 12004 12007 11999 12004 11985 11992 11987 11995 11991 11978 11969 11962 11946 11937 11920 11937 11936 11942 11932 11931 11930 11928 11929 11930 11927 11910 11902 11896 11892 11879 11881 11885 11874 11866 11868 11871 11877 11882 11906 11907 11899 11885 11876 11859 11851 11841 11833 11819 11808 11819 11804 11804 11804 11800 11799 11804 11792 11791 11786 11776 11780 11773 11787 11794 11810 11819 11827 11841 11868 11870 11872 11890 11889 11873 11874 11876 11890 11902 11905 11919 11946 11948 11970 11964 11965 11965 11991 12075 12139 12156 12177 12184 12195 12165 12134 12116 12104 12091 12071 12056 12063 12055 12050 12037 12011 11972 11973 11940 11956 11959 11934 11944 11922 11932 11931 11957 11958 11962 11964 11955 11944 11919 11895 11889 11877 11894 11906 11902 11905 11908 11919 11923 11915 11912 11899 11893 11890 11877 11876 11863 11861 11870 11861 11890 11904 11905 11910 11928 11930 11953 11974 11933 11906 11934 11938 11965 12184 12249 12243 12747 12722 11873 11498 11491 11500 11503 11542 11563 11573 11585 11591 11594 11601 11604 11614 11607 11623 11619 11614 11632 11632 11636 11630 11640 11641 11638 11659 11675 11681 11685 11689 11689 11684 11701 11704 11713 11722 11732 11727 11744 11753 11776 11783 11792 11810 11822 11820 11821 11842 11854 11849 11867 11880 11909 11927 11931 11945 11949 11956 11985 11983 11999 12002 12000 12005 12024 12029 12036 12037 12043 12041 12050 12058 12062 12065 12072 12073 12072 12083 12079 12078 12096 12106 12103 12107 12109 12105 12132 12135 12143 12150 12152 12152 12151 12159 12169 12169 12176 12170 12176 12178 12186 12189 12187 12196 12211 12195 12204 12191 12209 12204 12199 12211 12207 12217 12218 12205 12220 12209 12235 12221 12224 12218 12210 12212 12208 12211 12211 12209 12223 12216 12215 12220 12221 12225 12211 12217 12204 12199 12198 12186 12181 12184 12176 12180 12170 12172 12168 12172 12164 12166 12172 12162 12149 12137 12120 12122 12121 12114 12110 12107 12096 12091 12108 12096 12098 12106 12095 12083 12071 12063 12047 12048 12039 12039 12035 12029 12020 12026 12023 12016 12030 12023 11999 11994 11982 11974 11970 11973 11974 11960 11956 11968 11960 11962 11977 11964 11967 11960 11966 11935 11924 11912 11912 11924 11912 11912 11922 11917 11917 11918 11921 11937 11922 11917 11910 11904 11899 11896 11890 11892 11885 11893 11893 11892 11892 11888 11893 11909 11917 11912 11912 11904 11900 11887 11882 11887 11897 11881 11895 11908 11901 11910 11917 11923 11930 11934 11935 11948 11942 11934 11932 11927 11940 11922 11946 11941 11940 11947 11961 11962 11969 11963 11987 12001 11994 11983 11991 11981 11974 11985 11977 11989 11977 11985 11994 11996 11996 12005 12015 12013 12016 12024 12040 12032 12018 12029 12013 12023 12016 12013 12029 12024 12026 12029 12038 12051 12053 12053 12058 12069 12066 12071 12069 12058 12050 12052 12052 12061 12055 12052 12052 12059 12070 12075 12080 12090 12083 12094 12087 12071 12071 12064 12053 12049 12052 12048 12035 12042 12028 12043 12042 12050 12064 12065 12069 12049 12022 12011 11999 11982 11973 11964 11953 11966 11952 11945 11948 11944 11932 11927 11927 11922 11909 11888 11866 11846 11840 11826 11815 11793 11790 11778 11771 11751 11755 11741 11741 11727 11712 11690 11667 11643 11638 11618 11603 11596 11585 11580 11567 11563 11566 11554 11556 11552 11539 11527 11501 11479 11473 11455 11451 11443 11431 11419 11424 11421 11422 11419 11419 11427 11405 11398 11376 11355 11345 11347 11334 11323 11316 11337 11325 11325 11336 11326 11345 11342 11343 11336 11300 11287 11277 11274 11271 11272 11272 11279 11280 11268 11283 11292 11293 11298 11311 11307 11308 11288 11278 11275 11264 11262 11276 11277 11288 11287 11291 11304 11312 11311 11295 11318 11315 11313 11311 11291 11285 11282 11282 11285 11287 11291 11285 11294 11290 11298 11305 11319 11320 11326 11329 11333 11330 11316 11325 11308 11313 11322 11323 11326 11337 11345 11344 11354 11355 11370 11373 11384 11388 11384 11389 11385 11381 11396 11392 11402 11405 11410 11416 11429 11437 11445 11445 11458 11468 11478 11474 11475 11480 11474 11461 11476 11480 11472 11487 11487 11489 11493 11511 11523 11526 11538 11543 11559 11547 11550 11543 11541 11544 11545 11558 11554 11554 11563 11576 11584 11585 11583 11582 11592 11591 11598 11595 11591 11586 11574 11564 11563 11546 11552 11550 11544 11542 11541 11537 11534 11537 11527 11525 11532 11527 11527 11511 11510 11492 11492 11490 11493 11492 11494 11491 11490 11501 11503 11506 11502 11501 11494 11488 11481 11464 11473 11471 11478 11473 11468 11473 11472 11485 11485 11487 11489 11503 11501 11496 11484 11481 11476 11475 11480 11480 11481 11485 11490 11496 11494 11500 11514 11508 11513 11517 11524 11513 11517 11514 11507 11504 11506 11515 11525 11526 11529 11526 11533 11547 11554 11558 11544 11553 11548 11546 11539 11533 11535 11541 11524 11543 11544 11541 11549 11546 11556 11559 11561 11570 11570 11574 11552 11551 11554 11551 11553 11565 11547 11551 11556 11555 11558 11560 11563 11574 11581 11587 11573 11580 11563 11579 11591 11623 11653 11667 11689 11719 11727 11747 11777 11784 11800 11825 11835 11844 11830 11841 11840 11833 11832 11831 11843 11845 11840 11849 11833 11840 11835 11846 11843 11837 11827 11819 11825 11832 11829 11836 11836 11838 11855 11856 11863 11875 11880 11895 11890 11896 11891 11883 11874 11873 11877 11881 11887 11894 11894 11902 11907 11901 11913 11914 11923 11912 11916 11906 11894 11895 11881 11897 11882 11888 11891 11889 11896 11908 11912 11918 11915 11923 11923 11918 11901 11897 11888 11887 11894 11894 11891 11890 11895 11912 11910 11903 11921 11922 11908 11911 11900 11891 11886 11886 11859 11864 11849 11849 11843 11851 11850 11838 11824 11820 11796 11780 11784 11766 11752 11719 11702 11677 11681 11715 11737 11735 11702 11738 11716 11711 11685 11688 11778 11811 11819 11800 11773 11706 11573 11529 11503 11479 11469 11505 11506 11505 11505 11529 11560 11568 11591 11585 11615 11630 11641 11659 11676 11654 11567 11638 11566 11703 11736 11734 11728 11717 11672 11648 11609 11571 11578 11575 11590 11525 11488 11313 11428 11438 11479 11447 11391 11348 11304 11276 11218 11250 11262 11215 11180 11164 11061 11137 11108 11113 11086 11102 11137 11132 11129 11119 11104 11124 11133 11139 11029 10996 10979 10944 11006 10999 10989 10950 10913 10881 10924 10897 10952 10995 10992 11008 10979 10971 10940 10899 10879 10859 10817 10845 10883 10976 11071 11046 11011 10999 10948 11020 10991 10971 10937 10948 10926 10948 10959 10963 10938 10946 10951 10956 10979 10969 10973 11044 11080 11100 11125 11135 11057 10943 10979 10914 10985 10857 10829 10716 10778 10832 10884 11005 11102 11155 11254 11318 11370 11472 11514 11545 11586 11603 11594 11571 11576 11572 11597 11615 11613 11617 11642 11657 11658 11700 11756 11784 11828 11872 11909 11938 11986 12033 12055 12070 12113 12129 12145 12186 12237 12232 12239 12250 12251 12230 12240 12236 12255 12303 12295 12304 12297 12288 12309 12310 12315 12315 12335 12358 12397 12456 12462 12475 12516 12516 12507 12493 12486 12482 12481 12483 12478 12456 12465 12446 12461 12457 12446 12442 12443 12451 12456 12456 12474 12472 12463 12475 12458 12445 12441 12436 12425 12416 12401 12390 12387 12384 12389 12395 12367 12360 12352 12331 12324 12295 12279 12270 12261 12239 12241 12227 12221 12225 12217 12212 12225 12238 12240 12259 12275 12305 12309 12286 12279 12257 12241 12248 12225 12209 12198 12181 12185 12163 12166 12165 12187 12213 12234 12257 12282 12310 12327 12344 12347 12363 12351 12375 12374 12393 12406 12406 12409 12411 12395 12374 12360 12346 12325 12311 12316 12269 12272 12248 12211 12185 12147 12089 12080 12032 11962 11948 11993 12016 12039 12035 12028 12029 12080 12129 12168 12192 12221 12293 12348 12404 12434 12432 12410 12416 12426 12438 12453 12484 12511 12536 12560 12584 12596 12607 12631 12639 12666 12685 12703 12683 12697 12699 12718 12725 12732 12730 12755 12756 12757 12779 12781 12774 12791 12839 12877 12928 12966 12996 13024 13028 12990 12954 12945 12870 12745 12980 12964 12978 12970 12956 12909 12844 12810 12752 12739 12703 12681 12677 12638 12625 12610 12603 12580 12543 12509 12470 12443 12421 12405 12396 12374 12379 12361 12352 12349 12354 12348 12356 12331 12296 12262 12234 12221 12219 12231 12245 12266 12259 12242 12252 12244 12255 12233 12217 12187 12183 12161 12158 12166 12175 12178 12197 12210 12204 12220 12212 12186 12163 12144 12122 12122 12109 12109 12109 12103 12133 12119 12142 12144 12150 12148 12156 12154 12155 12145 12133 12132 12136 12132 12135 12149 12159 12182 12187 12185 12174 12147 12149 12146 12155 12163 12188 12197 12222 12225 12241 12250 12260 12253 12228 12223 12216 12220 12222 12234 12245 12243 12239 12235 12238 12242 12235 12228 12210 12192 12208 12232 12240 12249 12282 12279 12295 12303 12353 12414 12449 12449 12437 12456 12450 12481 12514 12571 12634 12700 12720 12741 12769 12767 12786 12769 12778 12757 12761 12797 12834 12874 12912 12915 12922 12915 12902 12897 12895 12881 12860 12834 12813 12795 12795 12805 12822 12831 12848 12849 12879 12893 12910 12937 12928 12916 12867 12839 12815 12809 12808 12781 12764 12754 12750 12751 12730 12697 12655 12615 12550 12521 12499 12474 12469 12456 12441 12422 12423 12417 12385 12391 12406 12371 12367 12370 12360 12356 12380 12403 12414 12420 12437 12472 12480 12514 12536 12548 12549 12561 12563 12558 12577 12599 12609 12622 12628 12624 12635 12647 12655 12655 12651 12637 12621 12626 12620 12610 12619 12621 12637 12636 12655 12662 12667 12682 12703 12719 12714 12706 12700 12694 12687 12701 12710 12723 12752 12761 12762 12786 12797 12823 12825 12840 12844 12841 12852 12847 12849 12854 12862 12869 12894 12901 12918 12944 12955 12966 12989 13014 13013 13006 13005 12994 12996 13009 13008 13033 13024 13026 13020 13031 13048 13052 13058 13074 13078 13070 13082 13079 13075 13079 13073 13069 13088 13103 13108 13112 13134 13144 13156 13184 13171 13180 13186 13174 13171 13167 13172 13187 13202 13191 13177 13156 13138 13117 13102 13100 13088 13077 13047 13050 13028 13036 13033 13007 13006 13006 13022 13039 13074 13109 13167 13218 13239 13262 13286 13275 13240 13210 13198 13200 13195 13202 13193 13208 13207 13208 13224 13228 13226 13206 13177 13188 13199 13178 13188 13187 13206 13187 13183 13184 13180 13195 13199 13174 13180 13163 13147 13127 13126 13126 13116 13114 13099 13092 13095 13091 13092 13093 13094 13079 13057 13042 13030 13013 13007 13007 13000 12991 12988 12977 12976 12968 12964 12972 12963 12955 12959 12935 12935 12928 12920 12920 12913 12914 12930 12933 12935 12932 12950 12956 12968 12959 12942 12914 12883 12874 12865 12868 12863 12859 12883 12906 12934 12964 12980 13009 13007 13024 13018 13032 13014 13027 13037 13048 13054 13058 13078 13083 13099 13104 13121 13124 13141 13138 13129 13121 13102 13089 13048 13075 13139 13179 13163 13155 13152 13154 13140 13133 13137 13154 13126 13141 13168 13205 13209 13220 13258 13405 13488 13490 13403 13389 13431 13443 13427 13403 13461 13499 13472 13479 13524 13539 13512 13517 13508 13391 13458 13500 13535 13513 13522 13536 13569 13577 13570 13537 13507 13500 13470 13438 13418 13388 13373 13359 13372 13383 13403 13381 13336 13293 13264 13236 13227 13213 13202 13180 13166 13121 13117 13097 13095 13088 13084 13074 13043 13015 12992 12976 12965 12943 12928 12914 12898 12902 12895 12887 12879 12890 12867 12845 12818 12787 12763 12736 12720 12686 12681 12667 12654 12644 12632 12626 12629 12618 12599 12566 12561 12536 12527 12511 12514 12505 12495 12491 12503 12514 12518 12517 12533 12530 12514 12514 12495 12503 12493 12502 12510 12507 12515 12529 12536 12540 12555 12561 12554 12561 12562 12558 12553 12540 12540 12555 12559 12562 12580 12594 12600 12612 12615 12622 12615 12613 12622 12620 12618 12616 12612 12617 12621 12627 12620 12627 12632 12639 12636 12629 12628 12627 12611 12610 12612 12611 12616 12625 12618 12631 12629 12640 12648 12627 12622 12610 12600 12591 12572 12580 12571 12548 12537 12520 12512 12508 12505 12511 12481 12470 12444 12421 12412 12416 12411 12408 12422 12424 12404 12400 12393 12407 12418 12419 12399 12397 12382 12379 12355 12352 12337 12327 12319 12296 12277 12261 12245 12233 12190 12166 12141 12107 12079 12067 12060 12046 12044 12045 12052 12055 12048 12046 12017 11990 11978 11982 11975 11970 11979 11957 11957 11962 11943 11950 11935 11931 11925 11906 11872 11848 11834 11840 11820 11830 11832 11852 11865 11872 11890 11898 11903 11857
33 32 32 32 32 32 32 31 31 31 31 32 32 32 32 31 30 31 42 30 33 33 31 32 32 32 31 29 25 22 22 23 39 42 35 35 38 36 36 41 38 36 34 35 34 29 27 30 29 30 30 41 37 33 33 32 26 27 31 32 30 31 34 33 36 40 37 38 35 35 33 30 30 31 28 30 34 37 40 40 38 35 34 29 26 27 29 30 32 36 37 40 42 39 38 35 33 30 28 27 26 28 30 31 34 38 39 39 36 35 34 30 27 27 29 31 33 37 39 42 42 43 41 35 31 25 21 22 25 28 33 37 39 39 34 43 47 41 35 30 34 34 29 22 19 19 25 32 40 46 49 53 58 58 48 40 35 31 30 30 39 46 48 48 51 52 48 42 37 32 28 25 21 21 29 40 47 53 52 51 45 37 35 33 32 36 42 40 40 46 49 45 44 38 37 36 36 33 30 34 35 37 40 43 45 46 45 39 35 33 33 34 37 40 34 37 43 45 42 41 44 41 40 37 35 32 28 28 30 31 34 37 39 42 43 42 38 33 31 29 29 33 37 39 34 40 41 42 42 45 44 38 37 37 35 30 29 29 35 39 42 45 52 48 42 36 35 34 30 32 41 51 41 48 51 49 52 53 48 41 35 32 27 28 28 28 31 42 50 55 49 40 36 36 37 38 52 41 44 43 45 46 51 49 46 43 41 41 36 29 31 33 35 40 43 48 46 42 38 37 35 34 39 38 37 41 42 41 43 44 41 34 31 31 29 30 31 31 31 39 42 42 38 31 28 27 27 24 30 45 41 44 43 46 45 44 38 32 29 30 29 28 31 34 33 35 38 44 43 37 29 23 22 21 22 29 36 38 37 40 47 51 54 56 56 53 56 43 31 23 22 17 25 27 29 24 22 24 28 28 30 32 33 33 35 40 41 42 42 38 34 32 27 23 17 20 24 33 45 50 51 46 41 38 38 30 24 22 23 28 34 36 36 37 38 35 35 35 32 31 32 31 29 30 30 32 35 33 32 34 31 33 40 35 32 25 28 38 41 37 34 37 41 45 47 45 38 34 33 31 26 24 26 26 29 31 35 35 41 46 45 34 31 32 31 28 23 38 42 37 33 34 37 37 41 35 33 35 34 31 28 26 27 28 29 31 33 37 42 41 35 31 30 29 31 30 31 31 30 31 32 33 32 31 31 32 34 35 36 33 30 29 32 33 32 32 32 31 33 33 34 32 32 31 31 33 35 33 29 29 30 31 32 32 32 31 32 32 32 30 30 31 33 35 34 30 29 32 33 33 32 32 31 32 32 32 32 32 32 31 31 31 32 32 32 32 31 31 30 31 32 32 31 32 32 31 31 31 31 30 31 32 32 32 32 31 31 31 30 31 31 31 32 31 31 31 32 32 31 32 32 31 32 32 32 31 32 31 31 31 31 31 32 31 30 32 31 31 31 31 31 31 31 31 31 31 31 31 31 31 31 31 31 31 31 31 31 31 31 31 31 31 31 31 32 31 31 31 31 31 31 31 31 31 31 31 31 31 31 31 31 31 31 31 31 31 31 31 31 31 31 31 31 31 31 31 31 31 31 31 31 31 31 31 31 31 31 31 31 31 31 31 31 31 31 31 31 31 31 31 31 31 31 31 31 31 31 31 31 31 31 31 31 31 31 31 31 31 31 31 31 31 31 31 31 31 31 31 31 31 31 31 31 31 31 31 31 31 31 31 31 31 31 31 31 31 31 31 31 31 31 31 31 31 31 31 31 31 31 31 31 31 31 31 31 31 31 31 31 31 31 31 31 31 31 31 31 31 31 31 31 31 31 31 31 31 31 31 31 31 31 31 31 31 31 31 31 31 31 31 31 31 31 31 31 31 31 31 31 31 31 31 31 31 31 31 31 31 31 31 31 31 31 31 31 31 31 31 31 31 31 31 31 31 31 31 31 31 31 31 31 31 31 31 31 31 31 31 31 31 31 31 31 31 32 31 31 31 31 31 32 31 32 32 31 31 31 31 31 32 32 31 32 32 31 31 31 32 32 31 32 31 32 32 32 32 31 31 31 32 32 32 31 32 31 31 31 32 32 31 32 32 32 32 32 32 31 32 32 32 32 31 31 32 32 32 32 31 31 31 31 32 32 32 32 31 31 31 32 32 31 31 31 31 31 31 32 32 32 32 31 31 32 32 32 32 32 32 32 32 32 31 32 32 32 32 32 32 32 32 32 32 31 31 32 32 31 31 31 32 32 32 32 32 32 32 32 31 32 32 32 32 32 32 31 31 31 32 32 31 32 31 31 31 31 32 32 33 32 32 31 31 31 31 32 32 31 31 31 31 31 31 31 32 32 32 32 32 32 32 32 32 31 32 32 32 32 32 32 31 32 31 31 32 31 32 32 32 31 31 31 31 31 31 31 31 31 31 31 31 31 31 31 31 31 31 31 32 31 31 31 31 31 31 31 31 31 31 31 31 31 31 31 31 31 31 31 31 31 31 31 31 31 31 31 31 31 31 31 31 31 31 31 31 31 31 31 31 31 31 31 31 31 31 31 31 31 31 31 31 31 31 31 31 31 31 31 31 31 31 31 31 31 31 31 31 31 31 31 31 31 31 31 31 31 31 31 31 31 31 31 31 31 31 31 31 31 31 31 31 31 31 31 31 31 31 31 31 31 31 31 31 31 31 31 31 31 31 31 31 31 31 31 31 31 31 31 31 31 31 31 31 31 31 31 31 31 31 31 31 31 31 31 31 31 31 31 31 31 31 31 31 31 31 31 31 31 31 31 31 31 31 32 32 32 32 32 32 32 33 33 33 33 34 33 33 33 33 35 36 23 27 30 30 31 34 32 30 29 27 25 28 40 37 37 35 36 26 32 39 36 30 25 17 15 41 54 41 31 36 36 35 33 32 33 32 33 33 32 30 29 29 29 30 29 29 26 31 41 44 38 34 34 35 36 37 42 34 33 22 24 24 30 30 33 36 35 38 30 31 34 34 33 33 33 33 33 34 34 33 34 35 35 35 25 28 31 31 33 35 34 33 31 31 32 32 32 32 33 32 32 33 34 33 33 33 33 32 33 33 33 32 33 33 33 32 32 32 32 33 33 33 33 33 33 33 33 32 32 32 33 33 32 33 33 33 33 33 32 33 33 32 33 33 33 32 33 34 33 33 33 33 33 34 33 33 33 33 32 32 33 33 33 32 33 33 33 32 32 33 32 32 35 35 33 32 35 32 31 32 32 34 34 34 40 36 31 27 19 21 28 36 35 31 26 28 29 32 37 43 39 36 34 32 28 32 31 31 33 32 35 34 29 29 33 28 30 31 35 35 33 34 34 37 39 32 31 27 28 29 29 32 34 35 33 32 36 33 30 32 34 32 31 30 31 32 32 31 31 32 32 31 33 35 32 31 31 31 32 31 29 28 32 30 33 29 31 32 31 32 34 34 31 32 29 30 31 33 35 32 31 32 30 32 31 30 32 32 29 29 35 36 40 38 32 32 31 29 27 31 30 27 31 35 36 33 32 33 32 30 29 31 30 30 36 34 36 33 34 33 30 27 25 27 25 33 35 35 33 36 44 51 51 44 31 22 14 12 16 24 33 41 40 36 35 37 33 41 45 46 40 40 40 33 35 40 42 34 31 26 25 25 25 26 25 23 27 26 31 35 33 26 34 27 27 29 31 24 34 41 32 28 46 31 34 40 45 32 23 16 43 38 25 36 40 43 35 27 33 40 35 34 30 28 34 42 47 50 46 34 21 14 27 29 35 46 51 53 42 29 43 46 37 23 25 33 29 31 28 30 37 39 38 31 32 32 32 33 33 32 32 33 33 33 31 32 32 32 31 34 33 32 32 33 32 30 33 33 33 32 31 32 32 33 33 34 32 29 30 32 31 31 33 33 33 32 32 32 29 30 32 33 31 33 31 33 32 32 31 31 31 33 32 32 33 31 32 34 31 33 33 31 33 33 33 32 34 34 32 33 32 32 32 33 31 32 32 31 33 33 34 34 33 32 32 32 35 32 30 30 33 33 32 31 29 29 29 33 34 34 33 32 33 33 34 32 32 32 31 34 30 32 31 32 32 32 33 34 33 33 35 33 33 31 32 34 33 36 32 33 32 28 28 27 30 32 31 31 33 31 31 32 31 30 30 28 30 36 30 35 36 31 32 31 30 31 33 33 32 32 31 33 35 33 32 31 30 33 33 32 32 31 31 31 31 30 31 31 31 32 32 32 32 31 31 31 32 30 31 32 31 31 31 31 31 31 32 31 31 31 30 31 32 31 32 33 32 32 31 32 31 32 31 32 32 31 32 30 30 31 31 31 31 31 32 32 32 32 32 32 31 30 31 31 33 31 30 32 30 30 31 29 30 32 32 34 32 33 31 32 32 32 31 30 33 32 31 31 31 32 31 31 32 31 33 32 32 30 31 31 31 31 31 31 31 30 35 34 31 32 33 32 33 30 31 30 32 31 30 31 27 33 40 36 29 28 33 35 33 33 31 30 30 32 33 31 30 33 31 32 30 32 33 31 32 32 32 32 30 32 30 31 31 31 31 30 31 32 33 31 33 30 31 32 34 31 32 32 32 33 32 32 32 31 31 31 30 30 29 32 33 30 34 36 31 26 30 32 30 33 34 31 26 30 31 31 31 32 30 30 36 31 33 36 33 34 37 38 38 37 31 31 29 33 30 31 35 34 35 32 31 35 28 27 28 37 40 39 31 29 28 42 42 48 28 28 32 31 33 36 38 36 34 31 34 33 32 32 33 33 33 33 32 31 31 33 32 30 31 30 31 31 32 31 31 31 31 32 32 30 31 31 32 32 32 31 30 31 31 32 32 32 31 32 32 32 32 32 32 31 32 32 32 32 32 32 31 31 32 32 32 32 33 31 32 31 31 31 33 32 33 33 33 33 31 32 31 30 31 33 33 33 31 31 31 32 34 33 35 35 32 32 31 29 31 32 33 34 34 30 33 34 34 34 30 24 31 34 32 31 33 31 32 32 33 34 33 31 32 31 31 29 36 33 32 31 31 33 33 30 32 36 30 32 32 32 33 33 33 33 33 33 33 32 32 32 32 33 32 32 32 32 32 33 31 31 31 33 33 31 32 31 32 32 31 31 32 32 32 30 33 33 30 31 31 32 33 32 30 32 33 32 32 32 32 33 32 30 29 32 33 31 32 34 31 31 32 31 32 33 32 32 32 30 32 33 29 31 34 32 30 32 30 29 33 34 30 36 34 34 33 34 32 32 33 33 33 31 31 31 31 31 33 33 35 32 32 33 33 33 33 32 32 33 34 32 32 33 32 32 33 31 32 30 32 33 33 31 31 31 31 33 33 33 31 38 28 34 34 32 31 33 32 32 32 32 31 34 35 32 31 32 30 28 31 33 34 35 38 40 35 33 30 32 34 29 27 39 36 33 42 31 40 39 36 31 39 28 30 29 27 31 34 30 32 35 34 36 37 39 39 35 31 28 30 30 30 32 31 31 30 29 31 34 37 41 45 37 34 34 35 34 29 27 28 30 30 33 34 31 33 33 36 38 42 38 38 34 25 25 27 28 31 29 29 37 39 35 29 54 50 36 44 47 35 26 34 26 29 32 32 27 41 40 41 24 28 26 42 47 40 34 39 39 32 31 27 24 24 27 36 36 36 39 38 40 40 32 31 32 30 27 27 30 35 36 45 49 43 37 38 33 26 23 23 24 27 38 37 44 45 46 42 32 31 30 27 26 27 26 26 31 35 37 44 37 35 35 36 31 22 21 38 37 39 39 31 31 39 42 36 35 30 28 32 29 27 31 31 34 29 33 37 39 36 40 40 42 46 44 44 38 29 21 19 20 22 28 30 29 31 36 33 33 30 30 29 32 29 26 27 28 40 39 38 38 29 27 30 36 37 32 26 24 32 27 44 56 37 14 43 45 33 32 35 39 35 36 35 33 32 35 39 33 35 36 37 32 28 26 29 31 30 31 32 34 38 40 37 36 34 31 29 29 28 28 30 30 31 31 33 34 35 41 39 33 35 36 31 29 27 28 29 31 33 34 35 33 37 39 39 36 34 33 26 29 29 30 32 33 32 30 32 36 40 35 31 33 36 33 30 28 28 30 31 32 32 33 32 32 35 37 36 35 35 34 31 29 29 31 33 31 32 33 32 31 31 32 33 32 33 34 35 37 34 31 29 29 31 33 34 33 32 32 32 33 33 34 34 36 34 31 34 31 31 31 30 32 32 33 33 32 31 32 32 32 35 36 37 34 33 30 29 29 32 41 38 36 37 34 34 33 34 37 38 38 35 33 32 33 32 30 31 33 32 32 33 32 32 32 33 33 34 35 35 33 32 32 33 35 36 37 35 33 33 34 33 33 32 31 32 33 34 33 34 33 34 34 34 33 33 34 34 33 32 32 31 31 33 34 33 33 34 34 34 33 31 31 31 33 34 34 33 33 33 32 32 32 33 34 34 34 34 34 34 33 34 34 33 33 33 34 34 34 34 34 34 34 33 33 33 34 34 34 34 34 33 33 33 33 34 34 33 34 33 32 33 33 30 32 32 29 25 30 26 26 36 40 49 50 33 32 25 34 33 31 31 29 26 30 38 36 36 36 32 33 32 33 34 34 32 31 34 34 33 31 33 34 34 35 32 32 31 30 30 32 34 34 33 33 34 33 34 33 31 32 34 33 34 32 42 34 26 25 30 44 46 41 34 29 31 35 34 31 40 35 33 38 29 34 35 28 32 33 29 32 33 32 30 31 31 33 32 34 33 34 33 33 32 33 33 31 32 32 32 32 30 31 31 31 31 32 32 31 32 33 31 31 33 32 32 33 32 31 32 33 33 33 33 33 33 34 33 32 32 32 32 33 32 32 32 31 32 32 32 32 32 33 32 32 32 32 32 33 33 33 32 32 32 32 32 32 32 32 32 32 32 32 32 32 32 32 32 32 32 32 32 32 32 32 32 32 32 32 32 32 32 32 32 32 32 32 32 32 32 32 32 32 32 32 32 32 32 32 32 32 32 32 32 32 32 32 32 32 32 32 32 32 32 32 32 32 32 32 32 32 32 32 32 32 32 32 32 32 32 32 32 32 32 32 32 32 32 32 32 32 32 32 33 32 32 32 32 32 32 32 32 32 32 32 32 32 32 32 32 32 32 32 32 32 32 32 32 32 32 32 32 32 32 32 32 32 32 32 32 32 32 32 32 32 32 32 32 32 32 32 32 32 32 32 32 32 32 32 32 32 32 33 33 32 32 32 32 32 32 31 32 32 32 32 32 32 32 32 32 32 32 32 32 32 32 32 32 32 32 32 32 32 32 32 32 32 32 32 32 32 32 32 32 32 32 32 32 32 32 32 32 32 32 32 32 32 32 32 32 32 32 32 32 32 32 32 32 32 32 32 32 32 32 32 32 32 32 32 32 32 32 32 31 31 32 32 32 32 32 32 32 32 32 32 32 32 32 33 32 32 32 32 31 31 28 28 33 33 33 34 34 33 33 32 32 32 32 32 32 32 32 32 32 32 32 32 32 32 32 31 32 32 32 32 32 32 32 32 32 32 32 32 32 32 31 32 32 32 32 32 32 32 32 32 32 32 32 32 32 32 32 32 31 32 32 31 32 32 32 32 32 32 32 32 32 32 32 32 32 32 32 32 32 32 32 32 32 32 32 32 32 32 32 32 32 32 32 32 32 32 32 32 32 32 32 32 32 31 32 32 32 32 32 32 32 32 32 32 32 32 33 32 32 32 32 33 33 33 32 33 33 33 33 33 33 33 32 32 33 33 33 33 33 33 33 33 33 33 32 32 33 33 33 32 32 33 32 32 33 33 32 33 33 32 33 33 32 33 33 33 33 33 32 32 32 33 33 33 32 32 33 33 33 33 32 32 33 32 32 32 32 33 33 33 32 33 33 33 33 33 33 33 33 33 33 33 33 33 33 33 33 32 32 32 32 32 33 32 32 32 32 32 32 32 32 31 31 31 31 31 31 32 32 32 32 32 32 32 31 31 31 31 32 32 32 32 32 32 32 32 32 32 32 32 32 32 32 32 32 32 32 32 31 32 32 32 32 32 32 32 32 32 32 32 32 32 33 33 32 32 32 32 31 32 31 32 32 31 32 32 33 31 31 31 31 32 32 31 31 32 31 31 31 31 31 31 31 31 31 32 32 32 32 33 32 32 31 31 32 32 32 32 32 32 32 32 32 32 32 32 32 32 31 32 31 33 33 32 30 33 33 33 32 30 31 33 32 32 32 32 32 33 33 33 33 33 33 33 32 33 33 33 33 33 32 32 32 33 32 32 32 31 32 33 33 33 32 33 33 33 33 32 33 33 33 33 33 32 32 32 33 32 33 33 33 33 32 32 32 33 33 33 32 32 33 33 32 32 32 32 32 32 33 32 32 33 32 32 32 33 32 32 32 32 32 32 32 33 32 32 30 34 33 32 33 34 33 33 32 33 33 34 34 31 28 28 29 33 34 34 34 34 35 35 36 41 44 40 41 36 40 22 20 15 14 29 38 33 24 43 40 41 37 37 34 28 29 31 33 32 33 32 31 34 33 30 32 31 33 35 39 29 29 41 36 33 31 32 31 32 32 35 33 32 35 34 34 30 30 30 34 34 33 33 32 32 34 35 32 32 32 35 32 33 30 30 34 34 32 31 33 35 34 34 33 31 32 34 30 31 35 34 34 32 32 32 32 27 40 38 33 30 32 33 33 34 34 33 34 32 33 33 36 39 29 28 28 32 34 33 33 33 33 33 33 33 34 32 31 32 32 33 33 32 30 34 35 33 32 34 29 34 37 39 37 37 34 34 32 35 32 28 23 18 29 31 16 46 54 50 43 55 35 42 36 40 40 35 32 32 29 32 31 28 31 30 31 32 32 32 32 32 30 22 25 34 43 38 39 36 32 30 30 32 30 28 28 34 32 32 33 35 33 32 32 34 36 29 31 31 31 32 32 33 32 35 34 35 33 28 29 32 31 33 32 32 31 31 32 31 32 31 31 32 31 32 33 32 32 31 33 32 32 33 32 32 31 32 31 31 32 32 33 32 32 32 32 32 31 33 32 33 32 31 33 34 34 33 33 32 30 31 32 32 32 29 33 33 32 31 32 33 33 32 31 33 31 31 30 31 31 33 32 32 33 34 32 32 32 33 29 30 31 35 32 28 33 30 28 37 32 33 35 35 37 40 36 32 29 29 29 36 36 32 32 35 36 34 37 30 34 33 33 32 33 33 32 31 31 31 31 30 30 31 30 30 29 29 30 30 32 32 32 32 31 36 36 35 34 32 31 31 30 30 31 32 32 32 32 32 33 33 32 32 38 20 59 34 33 29 18 34 51 27 39 33 33 34 31 35 33 33 32 33 31 32 33 31 32 31 32 32 30 31 32 31 33 31 32 29 30 33 33 33 33 34 32 32 32 31 31 30 30 30 32 28 30 32 31 31 31 31 33 32 32 39 35 35 33 31 34 31 33 31 33 32 29 38 21 36 23 30 32 32 33 31 31 31 32 32 32 31 31 32 32 32 32 32 32 30 32 31 29 29 32 32 32 30 28 30 31 32 32 30 31 31 32 33 31 33 30 32 29 34 31 33 32 30 39 40 31 37 30 34 35 34 30 32 31 33 33 32 33 32 32 31 32 31 31 33 30 33 32 31 31 32 31 32 32 31 31 31 34 33 33 32 32 31 32 32 31 32 32 33 34 32 33 32 33 30 30 30 32 32 32 33 32 32 31 32 33 31 31 32 32 32 30 32 33 32 31 32 32 32 32 33 31 31 32 32 30 32 32 33 32 31 31 32 32 32 34 32 33 32 31 32 31 32 31 32 27 32 29 32 30 33 31 31 31 31 32 33 32 32 31 31 30 31 30 33 32 33 32 32 31 31 31 32 31 32 31 31 32 32 31 33 32 32 31 31 31 31 32 31 32 32 33 32 31 32 32 31 32 31 32 31 32 30 32 32 32 32 31 32 32 32 32 32 32 32 31 33 31 30 30 33 33 32 32 32 31 32 30 32 32 31 32 31 31 32 31 32 30 34 32 33 33 31 32 32 32 32 32 31 31 31 32 32 31 31 25 30 32 33 33 32 31 32 32 31 32 31 31 33 33 34 34 33 32 33 32 31 32 33 34 33 31 30 30 33 31 34 33 32 32 32 33 31 32 33 30 31 30 31 32 32 33 32 34 33 30 32 30 31 31 32 34 31 32 30 32 32 31 30 33 32 32 32 34 33 31 33 33 31 31 31 35 30 31 34 33 32 32 33 31 32 29 30 34 33 31 31 29 32 35 33 34 33 32 32 32 31 31 32 31 30 33 32 31 29 32 32 34 30 32 35 32 31 34 33 33 32 32 34 35 41 42 43 47 47 48 49 39 33 27 16 17 17 18 21 29 33 33 33 34 35 32 34 32 30 28 30 31 33 33 28 28 27 31 34 40 37 27 27 32 34 52 27 24 23 39 34 34 28 28 34 42 36 31 31 29 28 30 29 32 29 33 28 30 33 36 39 34 33 36 35 29 25 30 34 32 33 37 32 32 33 32 28 27 32 33 31 33 34 31 31 31 32 31 32 31 30 30 30 31 31 32 33 34 35 34 33 31 30 30 32 32 33 31 31 33 31 32 32 31 31 32 30 31 31 31 31 31 31 31 32 31 31 32 31 32 31 31 31 31 31 31 32 32 32 31 31 31 31 32 32 32 33 29 23 32 33 33 32 32 32 32 32 32 31 31 31 30 31 31 32 31 30 31 31 31 31 32 33 32 33 32 32 32 30 34 31 31 31 32 33 34 32 30 30 33 34 34 34 31 31 30 30 30 31 34 33 35 33 25 28 31 31 35 35 35 32 32 35 35 34 29 29 28 30 34 37 37 27 29 32 30 34 36 34 29 27 31 29 33 34 34 29 29 31 32 35 34 31 36 40 39 35 34 32 29 29 28 30 32 29 28 31 33 31 28 31 33 33 32 38 36 37
