6629 6632 6637 6634 6623 6631 6641 6649 6655 6658 6670 48183 48190 48184 48183 48181 48185 48181 48184 48185 48185 48183 48183 48178 48186 48182 48180 48185 48187 48184 48180 48189 48184 48186 48184 48181 48189 48186 48189 48181 48182 48186 48185 48184 48187 48186 48187 48183 48186 48187 48179 48183 48188 48188 48190 48188 48182 48190 48187 48187 48187 48186 48190 48192 47895 47433 46987 46634 46404 46394 46547 46665 46770 46729 46456 46237 46079 45741 45425 45415 45430 45649 45783 45844 45761 45735 45833 38238 38424 38677 38920 39019 38989 38666 38422 38257 38281 38478 38775 39082 39389 39581 39744 39495 39043 38809 38743 38832 39092 39472 39850 40103 40045 39773 39495 39348 39378 39376 39451 39515 39586 39549 39432 39243 39241 39398 39693 40047 40242 40392 40221 39843 39507 39394 39413 39509 39820 40337 40743 40830 40917 40886 40830 40621 40377 40366 40888 41439 41720 41805 41707 41478 41324 41332 41484 41814 42051 42026 41845 41646 41382 41156 41038 40971 41036 41227 41463 41596 41603 41406 41098 40839 40801 40997 41405 41790 42054 42093 42092 42007 41967 42062 42022 41973 41979 42021 42065 41966 41892 41769 41728 41688 41856 42123 42380 42528 42483 42295 42056 42006 41952 42048 42281 42647 43054 43273 43244 43127 42893 42623 42501 42560 42734 42920 42974 42962 42941 42826 42804 42755 42794 42741 42658 42594 42549 42503 42446 42377 42412 42546 42807 43077 43365 43629 43565 43340 43255 43211 43202 43386 43499 43633 43747 43820 43803 43740 43657 43540 43386 43329 43422 43558 43591 43587 43568 43550 43509 43537 43764 44077 44219 44202 44050 43855 43700 43532 43430 43438 43644 43858 44062 44118 44085 43871 43640 43340 43131 43074 43173 43260 43319 43260 43216 43139 43037 42999 43062 43091 43148 43178 43152 43106 42998 42966 42883 42893 43065 43248 43409 43368 43200 43014 42845 42703 42701 42803 42976 43198 43392 43434 43453 43353 43313 43149 43108 43204 43295 43373 43427 43363 43259 43159 43094 43050 43116 43174 43238 43253 43176 43114 43006 43016 42978 43068 43291 43559 43767 43810 43670 43507 43352 43188 43198 43332 43580 43733 43845 43863 43843 43826 43815 43680 43667 43705 43765 43825 43856 43902 43872 43746 43698 43716 43862 44029 44091 44053 43939 43815 43794 43677 43687 43859 44016 44175 44283 44246 44039 43768 43588 43519 43550 43672 43729 43875 43926 43890 43853 43877 43836 43769 43776 43892 44001 44120 44095 44057 44102 44041 44075 44165 44318 44434 44504 44433 44304 44223 44252 44256 44312 44467 44576 44685 44694 44684 44599 44441 44273 44178 44205 44328 44439 44547 44507 44550 44517 44525 44463 44536 44687 44773 44851 44880 44909 44890 44774 44657 44625 44682 44768 44779 44721 44670 44485 44327 44300 44245 44333 44543 44749 44868 44905 44853 44726 44460 44258 44222 44273 44358 44446 44457 44481 44434 44500 44417 44383 44457 44510 44552 44610 44480 44397 44402 44285 44179 44240 44318 44398 44512 44462 44301 44103 44042 43948 43897 44129 44406 44618 44802 44899 44870 44697 44438 44231 44175 44199 44291 44360 44346 44317 44277 44277 44224 44218 44297 44334 44368 44313 44204 44146 44037 43915 43951 44049 44200 44356 44330 44234 43996 43818 43694 43605 43602 43709 43861 44017 44038 43961 43829 43567 43315 43258 43332 43483 43603 43650 43650 43619 43609 43607 43535 43456 43399 43431 43467 43475 43457 43421 43307 43189 43163 43234 43363 43433 43387 43264 43084 42986 42830 42772 42860 43033 43166 43278 43385 43417 43162 42833 42585 42551 42594 42675 42767 42866 42895 42879 42938 42880 42760 42686 42659 42696 42740 42734 42726 42713 42680 42717 42845 43040 43223 43294 43227 43037 42845 42762 42703 42774 43000 43225 43436 43585 43599 43510 43324 43167 43165 43228 43268 43333 43426 43399 43353 43350 43405 43449 43558 43800 43988 44151 44123 44073 43973 43805 43731 43803 43892 43989 43973 43879 43710 43558 43507 43455 43532 43821 44110 44358 44479 44390 44178 43981 43808 43695 43713 43854 44049 44217 44265 44157 44113 44105 44016 44004 44163 44369 44527 44620 44622 44621 44553 44444 44386 44399 44482 44536 44544 44477 44436 44437 44490 44440 44483 44722 44923 45063 45099 44968 44851 44797 44654 44566 44575 44687 44766 44858 44863 44781 44634 44511 44409 44374 44452 44627 44820 44962 44923 44865 44912 44784 44601 44534 44524 44590 44619 44632 44531 44487 44478 44477 44505 44676 44829 44935 44992 44874 44734 44659 44554 44456 44410 44437 44506 44523 44476 44328 44216 44079 43966 43945 44116 44388 44700 44922 44981 44727 44571 44344 44083 44021 44070 44173 44272 44385 44365 44310 44282 44182 44067 44083 44255 44451 44601 44620 44510 44433 44349 44213 44242 44299 44287 44287 44274 44197 44104 44013 43927 43881 43961 44207 44453 44596 44622 44493 44275 44122 44008 43972 43936 44035 44169 44289 44386 44329 44160 44060 43957 43898 43933 44069 44222 44353 44418 44426 44418 44340 44190 44073 44036 44077 44167 44195 44191 44187 44173 44166 44217 44214 44249 44258 44326 44381 44323 44294 44206 44130 44106 44162 44246 44280 44235 44162 44080 44036 44013 44000 44091 44265 44429 44560 44557 44464 44377 44214 44060 44009 44076 44190 44250 44317 44288 44325 44310 44244 44121 44189 44301 44458 44575 44610 44600 44597 44460 44366 44324 44297 44344 44373 44390 44296 44233 44272 44318 44395 44610 44695 44807 44883 44840 44698 44530 44378 44251 44276 44376 44484 44551 44479 44329 44173 44195 44107 44171 44369 44525 44704 44835 44795 44781 44632 44329 44194 44230 44289 44426 44513 44473 44448 44412 44446 44342 44297 44302 44315 44389 44420 44348 44314 44256 44124 44085 44085 44089 44076 44025 44003 43919 43853 43771 43725 43806 43984 44131 44161 44130 43994 43918 43806 43671 43635 43719 43865 43941 44030 43980 43851 43669 43570 43475 43489 43595 43684 43791 43822 43812 43710 43437 43167 43068 43057 43196 43315 43349 43354 43404 43461 43420 43230 43143 43122 43174 43231 43174 43168 43149 43055 42954 42958 43011 43036 43060 43027 42963 42921 42976 42930 42941 43066 43199 43253 43217 43126 43003 42907 42731 42657 42729 42875 43035 43144 43030 42827 42615 42437 42365 42420 42529 42665 42824 42944 42872 42594 42318 42041 41888 41909 42059 42186 42260 42353 42400 42360 42253 42090 42097 42249 42449 42650 42757 42771 42760 42694 42505 42351 42312 42367 42420 42498 42465 42398 42321 42236 42214 42188 42263 42349 42488 42611 42581 42501 42421 42268 42201 42240 42324 42357 42319 42223 42109 42018 42046 42024 42110 42330 42516 42671 42660 42513 42329 42176 41993 42004 42126 42273 42475 42645 42639 42488 42194 41970 41856 41838 42026 42242 42483 42641 42671 42415 42124 41886 41833 41925 42050 42311 42498 42582 42525 42383 42111 41899 41851 41996 42169 42398 42577 42621 42578 42534 42341 42237 42306 42431 42622 42823 42960 42888 42835 42867 42834 42851 42972 43167 43411 43522 43502 43359 43182 43012 42933 42956 42960 42959 42978 43006 42904 42824 42743 42795 42909 43014 43088 43103 43128 43031 42893 42790 42659 42569 42577 42696 42819 42822 42715 42613 42495 42409 42352 42379 42540 42757 43016 43142 43006 42732 42498 42309 42188 42293 42484 42734 42978 43100 42876 42641 42338 42140 42065 42126 42306 42548 42749 42814 42610 42312 41972 41707 41581 41625 41752 41879 41979 41960 42054 41837 41584 41469 41541 41760 42011 42272 42395 42432 42397 42210 41970 41844 41824 41883 42059 42189 42169 42213 42158 41937 41702 41599 41636 41831 42018 42152 42236 42203 42154 41972 41790 41703 41749 41852 41945 41978 41950 41919 41853 41774 41739 41812 41907 42028 42143 42233 42220 42185 42081 42014 41945 41921 41979 41997 42019 42031 41985 41942 41897 41921 42015 42118 42229 42343 42396 42316 42230 42101 42018 42068 42201 42331 42386 42347 42196 42098 42010 41984 42066 42301 42536 42619 42619 42546 42407 42271 42156 42072 42072 42220 42365 42454 42434 42387 42273 42244 42285 42378 42562 42791 43002 43135 43115 42948 42798 42695 42635 42805 43080 43350 43627 43772 43597 43344 43113 43040 43029 43141 43328 43509 43665 43668 43492 43211 42992 42823 42888 42991 43191 43336 43409 43320 43093 42825 42700 42651 42805 43014 43223 43466 43655 43633 43367 43101 42915 42859 42924 43048 43185 43309 43300 43296 43156 43126 43027 43147 43331 43519 43706 43801 43790 43642 43414 43255 43234 43337 43456 43586 43682 43665 43599 43523 43369 43196 43184 43331 43586 43797 43877 43841 43730 43475 43279 43169 43147 43212 43305 43367 43336 43354 43308 43159 42992 42984 42978 43083 43223 43338 43346 43371 43237 43068 42936 42844 42863 42953 43150 43244 43348 43395 43422 43283 43153 43077 43098 43108 43091 43049 42984 42889 42745 42620 42576 42597 42628 42712 42814 42847 42827 42834 42723 42577 42514 42507 42504 42498 42472 42505 42425 42291 42221 42226 42250 42329 42480 42612 42659 42642 42682 42631 42606 42627 42658 42681 42674 42673 42588 42390 42244 42158 42136 42172 42175 42170 42147 42149 42079 42115 42087 42155 42329 42446 42478 42426 42322 42229 42115 42006 42007 42127 42311 42367 42260 42130 42054 41978 41958 41999 42137 42369 42487 42422 42312 42132 41967 41867 41759 41719 41804 41983 42116 42094 41965 41854 41820 41821 41814 41891 42086 42281 42465 42468 42290 42102 41948 41818 41897 42068 42351 42576 42675 42425 42226 42127 42084 42110 42306 42527 42717 42912 42861 42643 42423 42205 42153 42240 42414 42623 42803 42878 42718 42540 42504 42456 42550 42738 42922 43095 43207 43243 43048 42808 42627 42579 42711 42867 43052 43217 43339 43308 43183 43148 43096 43124 43256 43449 43609 43730 43716 43628 43463 43227 43053 43004 43109 43228 43330 43353 43340 43281 43220 43114 43081 43234 43412 43543 43651 43667 43684 43594 43449 43333 43232 43296 43386 43487 43475 43495 43477 43459 43352 43310 43430 43630 43787 43925 43923 43897 43929 43779 43685 43735 43818 43950 44043 44083 44087 44050 44102 44083 44060 44087 44128 44229 44312 44323 44261 44186 44033 43860 43741 43712 43720 43739 43750 43753 43691 43678 43675 43650 43673 43709 43809 44022 44223 44186 44102 43936 43844 43839 43843 43865 43859 43847 43734 43661 43573 43551 43546 43569 43616 43712 43834 43846 43743 43620 43513 43455 43559 43651 43709 43751 43728 43613 43514 43421 43405 43459 43522 43528 43531 43564 43580 43484 43388 43215 43100 43074 43077 42996 42937 42887 42837 42836 42804 42817 42877 43082 43192 43153 43166 43132 43052 42912 42803 42703 42669 42756 42861 42907 42873 42788 42712 42626 42599 42585 42679 42901 43016 43063 43004 42850 42660 42570 42449 42468 42491 42578 42662 42577 42425 42253 42101 42149 42248 42444 42654 42845 42923 42796 42567 42365 42204 42148 42182 42235 42404 42531 42587 42468 42317 42263 42299 42358 42535 42733 42968 43124 43079 42784 42486 42319 42334 42415 42543 42710 42834 42836 42696 42434 42191 42104 42178 42294 42439 42666 42878 42887 42648 42317 42039 41951 42048 42277 42505 42650 42718 42664 42472 42308 42188 42212 42447 42688 42913 43031 43064 42980 42720 42462 42319 42286 42393 42478 42678 42709 42707 42649 42554 42452 42547 42801 43134 43410 43593 43522 43406 43264 42974 42790 42708 42784 42853 42938 43007 43026 42988 42932 42768 42754 42886 43074 43254 43331 43290 43239 43180 43016 42891 42861 42932 43005 43069 43077 43047 43045 43064 43022 43046 43148 43320 43513 43548 43511 43473 43505 43355 43346 43392 43450 43502 43496 43429 43392 43380 43352 43389 43469 43597 43701 43777 43788 43723 43667 43568 43466 43473 43471 43521 43540 43552 43498 43480 43519 43584 43615 43703 43811 43926 43969 43954 43879 43793 43658 43566 43644 43790 43916 43984 43914 43802 43686 43698 43705 43718 43856 44011 44021 43932 43772 43585 43427 43262 43162 43197 43370 43453 43405 43290 43114 42953 43024 42921 42905 43039 43225 43350 43329 43178 42942 42775 42637 42538 42586 42756 42932 43047 42954 42780 42573 42496 42410 42475 42678 42922 43176 43225 42913 42594 42289 42042 42056 42160 42286 42410 42539 42473 42207 41936 41801 41769 41914 42153 42373 42539 42581 42388 42022 41734 41489 41444 41509 41660 41803 41952 41992 41819 41542 41319 41225 41372 41702 41984 42255 42439 42330 42038 41733 41489 41625 41727 41814 41951 42098 42090 41932 41559 41444 41273 41387 41920 42387 42780 42999 42769 42437 42055 41777 41746 41813 41990 42182 42272 42251 42188 42143 41988 42002 42107 42229 42378 42551 42594 42521 42423 42313 42130 41994 42010 42077 42155 42212 42135 42053 42027 42020 42049 42163 42314 42528 42707 42820 42719 42625 42541 42395 42256 42259 42290 42332 42378 42405 42343 42340 42292 42238 42233 42296 42462 42637 42779 42736 42672 42593 42548 42557 42605 42687 42768 42841 42896 42808 42811 42767 42822 42856 42897 43048 43458 43738 43719 43691 43576 43488 43490 43446 43417 43383 43355 43240 43154 43071 43010 43070 43148 43238 43332 43490 43516 43428 43344 43204 43173 43203 43259 43287 43273 43294 43266 43229 43170 43145 43247 43549 43689 43730 43704 43629 43495 43408 43328 43292 43322 43453 43516 43526 43523 43429 43314 43255 43238 43326 43509 43724 43721 43679 43577 43387 43235 43132 43150 43304 43416 43548 43581 43471 43210 43044 42870 42806 42834 42941 43080 43121 42967 42741 42484 42334 42243 42220 42295 42339 42508 42698 42660 42462 42252 42177 42182 42409 42781 43072 43360 43566 43512 43159 42838 42571 42415 42346 42373 42458 42633 42691 42431 42081 41746 41557 41614 41900 42406 42814 43073 43001 42666 42407 42272 42250 42319 42429 42662 42851 42819 42581 42265 42007 41877 41838 41916 42064 42223 42308 42281 42001 41689 41454 41355 41440 41596 41716 41841 41906 41877 41580 41300 41105 41120 41295 41449 41621 41745 41705 41437 41069 40775 40746 40826 41083 41308 41417 41476 41425 41170 40940 40975 41177 41414 41728 42017 42190 42207 42257 42155 42001 42362 42804 43067 43325 43449 43544 43576 43627 43439 43256 43102 42938 42924 42961 42960 42876 42708 42424 42250 42093 42063 42107 42194 42297 42448 42702 43089 43323 43512 43663 43712 43748 43798 43672 43453 43272 43131 42968 42886 42887 42963 43017 43007 43072 43038 43000 42845 42724 42652 42716 42815 42883 42889 42784 42693 42656 42652 42680 42720 42813 42997 43075 43152 43206 43217 43181 43088 43060 43082 43147 43231 43252 43204 43062 42987 42963 42922 42875 42863 42935 43028 43104 43163 43178 43158 43113 43030 42988 42962 43020 43103 43094 42942 42887 42913 42924 42915 42885 42969 43090 43164 43118 43119 43116 43104 43153 43153 43131 43170 43232 43269 43152 43013 42948 42955 42938 42902 42905 43008 43123 43192 43161 43147 43104 43082 43021 42953 42951 43062 43060 42974 42880 42867 42863 42873 42814 42762 42820 43003 43131 43189 43175 43120 43213 43258 43230 43273 43354 43298 43130 42957 42898 42913 42998 43056 43113 43148 43134 43194 43170 43136 43087 43175 43259 43142 43054 43109 43173 43011 42828 42726 42720 42803 42885 42911 43013 43112 43199 43213 43231 43216 43309 43426 43419 43330 43347 43356 43247 43076 43006 43027 43127 43268 43310 43306 43270 43313 43237 43256 43236 43273 43468 43571 43545 43552 43520 43393 43207 43121 43146 43215 43357 43433 43452 43454 43458 43440 43457 43423 43494 43735 43890 43887 43922 43935 43835 43622 43478 43472 43528 43600 43735 43803 43727 43686 43665 43710 43694 43779 43892 44012 44104 44126 44031 43814 43617 43546 43597 43715 43790 43908 43929 43804 43720 43598 43552 43513 43590 43818 43910 43938 43866 43747 43545 43387 43287 43284 43348 43498 43636 43739 43725 43659 43580 43554 43507 43532 43646 43723 43852 43971 43956 43703 43482 43344 43341 43420 43498 43636 43774 43755 43623 43483 43363 43302 43293 43489 43681 43773 43801 43749 43544 43287 43063 42966 42954 43023 43065 43188 43239 43089 42950 42905 42870 42881 42992 43168 43272 43372 43353 43145 42930 42771 42727 42771 42851 42969 43091 43187 43089 42917 42818 42764 42687 42745 42894 42868 42870 42828 42621 42434 42251 42175 42156 42167 42292 42416 42546 42452 42304 42157 42074 41963 41987 42241 42318 42424 42553 42467 42222 41983 41864 41842 41913 42022 42147 42308 42328 42245 42116 41989 41922 41953 42075 42265 42416 42562 42448 42109 41819 41704 41682 41773 41905 42077 42241 42266 42140 41979 41886 41776 41768 41904 42085 42194 42323 42278 42042 41784 41641 41617 41651 41733 41853 41982 42048 41921 41752 41605 41544 41603 41847 41987 42120 42242 42252 41990 41775 41655 41675 41784 41927 42144 42395 42521 42447 42331 42223 42151 42160 42310 42499 42601 42822 42941 42747 42463 42349 42334 42416 42499 42555 42705 42796 42744 42662 42580 42487 42519 42719 42941 43101 43241 43214 42954 42750 42655 42676 42757 42871 43059 43308 43401 43348 43319 43245 43166 43165 43420 43651 43796 43897 43831 43555 43282 43162 43144 43197 43287 43403 43516 43554 43438 43263 43157 43055 43093 43258 43361 43485 43633 43584 43298 43028 42859 42831 42861 42932 43041 43138 43189 43066 42916 42821 42761 42796 43029 43159 43279 43460 43457 43176 42947 42788 42773 42805 42912 43050 43205 43306 43211 43014 42877 42770 42819 42991 43163 43271 43457 43348 43004 42688 42514 42491 42547 42664 42850 43010 43027 42810 42566 42380 42224 42292 42627 42784 42935 43123 42987 42624 42374 42309 42335 42440 42681 42864 43001 43097 42972 42862 42735 42619 42693 42925 43101 43244 43441 43292 42899 42634 42530 42551 42664 42831 42966 43128 43182 43087 42968 42812 42712 42785 42966 43100 43228 43334 43203 42874 42635 42541 42566 42625 42679 42841 42942 43010 42931 42805 42709 42637 42720 43043 43203 43317 43443 43309 43024 42794 42694 42688 42791 42945 43080 43196 43214 43096 42926 42840 42799 42811 43055 43273 43510 43636 43531 43263 43065 42978 43025 43063 43199 43354 43455 43437 43337 43208 43144 43087 43119 43261 43401 43548 43689 43601 43310 43095 43013 43047 43107 43212 43347 43465 43435 43231 43042 42946 42874 42915 43136 43246 43376 43498 43280 42910 42679 42563 42526 42594 42662 42792 42926 42875 42727 42560 42476 42414 42422 42524 42673 42841 42934 42740 42441 42199 42065 42057 42106 42226 42363 42493 42444 42323 42112 41980 41873 41883 42039 42250 42457 42591 42404 42062 41761 41614 41547 41614 41746 41923 42104 42048 41785 41552 41375 41279 41268 41457 41729 41979 42074 41797 41411 41197 41124 41135 41279 41506 41699 41850 41764 41619 41479 41403 41329 41383 41586 41768 41970 42114 42029 41754 41496 41347 41374 41448 41570 41706 41852 41813 41719 41573 41446 41371 41396 41657 41833 41946 42079 42007 41666 41395 41284 41276 41293 41398 41517 41677 41656 41575 41485 41495 41524 41575 41726 41935 42071 42156 42067 41898 41780 41784 41934 42068 42202 42357 42489 42468 42370 42207 42128 42125 42133 42276 42496 42650 42718 42627 42409 42236 42175 42204 42326 42376 42493 42553 42504 42410 42358 42375 42456 42497 42701 42948 43065 43114 43162 43005 42802 42726 42741 42782 42836 42856 42992 43013 42907 42843 42839 42875 42906 43079 43362 43540 43646 43629 43446 43305 43223 43192 43250 43319 43350 43429 43370 43321 43272 43206 43256 43281 43363 43563 43721 43801 43751 43605 43484 43470 43460 43466 43530 43703 43818 43817 43699 43600 43575 43540 43534 43641 43771 43966 44078 43992 43752 43544 43428 43359 43393 43491 43630 43734 43699 43547 43372 43245 43184 43116 43196 43498 43653 43694 43570 43296 43112 43006 43007 43067 43175 43332 43454 43468 43366 43217 43056 42970 42953 43025 43189 43309 43455 43391 43093 42790 42571 42505 42538 42629 42778 42953 42957 42755 42555 42407 42332 42269 42347 42552 42650 42818 42763 42463 42225 42125 42097 42134 42255 42408 42578 42641 42500 42279 42142 42054 41974 42033 42165 42404 42580 42568 42338 42054 41839 41740 41720 41786 41907 42077 42152 41982 41786 41583 41506 41490 41498 41760 41980 42065 42059 41925 41715 41534 41456 41447 41514 41651 41815 41956 41908 41843 41815 41732 41702 41685 41756 42010 42217 42293 42321 42143 41900 41753 41703 41707 41764 41856 41982 41879 41776 41694 41615 41614 41611 41661 41858 42041 41952 41871 41791 41652 41573 41578 41624 41696 41792 41996 42046 41960 41875 41811 41850 41871 41879 42085 42246 42294 42274 42211 42093 42005 41917 41879 41904 41994 42180 42208 42141 42129 42082 42047 42074 42018 42099 42361 42450 42394 42361 42277 42165 42149 42146 42263 42328 42455 42458 42351 42310 42303 42320 42408 42409 42527 42841 42809 42753 42820 42762 42600 42555 42567 42597 42691 42860 42888 42774 42699 42713 42757 42809 42831 43020 43189 43267 43261 43154 42967 42864 42800 42806 42895 43037 43131 43156 43039 42929 42821 42785 42867 42911 43069 43391 43459 43504 43435 43186 43030 42972 42960 43008 43109 43286 43318 43219 43172 43073 43040 43030 42985 43122 43359 43468 43511 43417 43173 43037 42981 42953 43005 43130 43281 43392 43308 43145 43005 42854 42811 42770 42830 43086 43187 43071 42997 42827 42684 42617 42576 42590 42669 42768 42761 42659 42633 42594 42583 42616 42614 42669 42825 42991 42951 42837 42706 42543 42422 42365 42329 42386 42466 42541 42536 42494 42445 42459 42563 42628 42702 42953 43190 43115 43040 42953 42830 42808 42832 42904 43014 43099 43118 43044 42955 42989 43030 43094 43098 43115 43271 43413 43423 43386 43302 43184 43081 43053 43036 43170 43299 43399 43466 43413 43298 43215 43146 43135 43132 43284 43530 43530 43498 43400 43252 43203 43187 43206 43258 43335 43381 43326 43255 43214 43191 43227 43264 43283 43400 43545 43566 43507 43510 43396 43349 43308 43294 43402 43523 43585 43587 43516 43514 43461 43422 43399 43367 43424 43538 43612 43611 43579 43501 43481 43504 43477 43545 43632 43659 43594 43530 43500 43497 43480 43585 43580 43622 43756 43796 43748 43732 43663 43592 43544 43520 43592 43691 43810 43789 43744 43737 43686 43614 43651 43694 43720 43823 43917 43881 43872 43847 43780 43753 43721 43705 43757 43834 43726 43613 43609 43630 43683 43698 43746 43748 43854 43975 44037 44023 44021 44028 43893 43828 43780 43761 43809 43785 43719 43664 43649 43672 43591 43644 43670 43679 43791 43775 43693 43711 43676 43538 43492 43395 43342 43372 43376 43264 43175 43169 43162 43140 43089 43069 43022 42981 42913 42812 42779 42865 42892 42802 42753 42693 42738 42707 42569 42509 42535 42606 42716 42749 42774 42716 42689 42630 42529 42494 42598 42685 42653 42600 42521 42499 42514 42485 42462 42435 42467 42571 42577 42519 42463 42382 42288 42188 42155 42198 42276 42293 42251 42193 42193 42169 42090 41967 41913 41864 41915 41929 41842 41796 41721 41552 41516 41535 41633 41814 41856 41785 41680 41621 41579 41494 41425 41458 41545 41672 41750 41760 41755 41727 41673 41659 41657 41785 41939 42013 41977 41910 41859 41856 41804 41747 41748 41821 41892 42062 42077 42100 42158 42155 42186 42155 42224 42380 42479 42425 42389 42339 42302 42261 42183 42162 42254 42386 42496 42578 42651 42697 42566 42518 42537 42634 42773 42890 42881 42836 42821 42769 42630 42579 42580 42650 42742 42851 42913 42942 42985 42840 42764 42843 42948 43103 43285 43376 43367 43244 43122 43036 43012 43051 43094 43199 43325 43344 43356 43312 43160 43032 43065 43180 43301 43410 43418 43331 43254 43084 42944 42856 42855 42894 43010 43121 43134 43149 43126 42957 42871 43043 43166 43235 43307 43275 43205 43179 43023 42882 42773 42750 42819 42968 43069 43179 43159 43093 42865 42744 42826 42981 43163 43356 43459 43449 43372 43121 42891 42790 42768 42861 42969 43122 43177 43145 42957 42651 42418 42455 42643 42777 42921 43047 43026 42911 42609 42394 42314 42332 42466 42629 42757 42919 42976 42871 42644 42369 42294 42399 42555 42761 42936 42970 42765 42411 42120 41987 41998 42091 42209 42369 42460 42451 42163 41790 41544 41499 41642 41857 42057 42214 42245 41913 41471 41176 41065 41102 41197 41362 41568 41703 41658 41391 41038 40763 40788 41000 41217 41440 41604 41601 41287 40904 40679 40577 40642 40771 40960 41108 41256 41132 40812 40491 40296 40315 40558 40872 41137 41342 41371 41062 40697 40440 40372 40429 40581 40896 41177 41437 41552 41418 41339 41260 41305 41514 41721 41945 42167 42232 41989 41720 41579 41573 41675 41815 41949 42129 42270 42184 42041 41946 41918 41931 42069 42254 42488 42701 42703 42481 42198 42095 42103 42206 42274 42392 42507 42525 42417 42275 42235 42216 42266 42414 42596 42768 42920 42840 42634 42489 42404 42459 42580 42675 42827 42973 42962 42863 42722 42686 42658 42688 42822 43032 43234 43324 43282 43041 42902 42880 42880 42903 43000 43081 43213 43169 43091 43051 43012 43008 43026 43195 43418 43560 43520 43433 43258 43108 43016 43026 43104 43194 43247 43254 43143 43080 43069 43110 43108 43116 43238 43413 43503 43460 43398 43306 43232 43197 43241 43369 43443 43496 43451 43369 43303 43213 43180 43163 43139 43224 43428 43491 43462 43373 43213 43162 43150 43196 43338 43437 43509 43411 43237 43104 43015 42956 42903 42856 42927 43087 43026 42964 42908 42804 42722 42675 42661 42674 42752 42671 42546 42497 42576 42600 42600 42545 42499 42610 42633 42533 42541 42722 42716 42633 42572 42556 42575 42651 42626 42541 42574 42681 42709 42643 42516 42434 42426 42472 42387 42405 42486 42467 42430 42399 42461 42525 42586 42545 42459 42391 42366 42420 42431 42375 42327 42286 42221 42194 42227 42305 42309 42250 42184 42114 42116 42025 41871 41783 41797 41892 41962 41909 41882 41797 41617 41564 41628 41761 41918 42015 42009 41944 41914 41910 41819 41683 41659 41718 41844 41982 41982 41945 41843 41628 41531 41600 41698 41868 42030 42055 41976 41907 41818 41745 41690 41711 41857 41973 42049 42009 42020 41904 41680 41584 41676 41825 42011 42158 42195 42132 42061 41871 41735 41618 41640 41699 41832 41969 42033 42093 41959 41728 41631 41763 41910 42110 42290 42353 42334 42252 42049 41894 41855 41921 42053 42200 42344 42463 42507 42435 42243 42181 42324 42506 42700 42880 42926 42906 42752 42559 42413 42441 42507 42617 42738 42879 43020 43013 42866 42661 42546 42618 42800 42967 43143 43301 43229 42955 42712 42556 42537 42592 42691 42832 42961 43013 42820 42615 42385 42245 42496 42690 42801 43003 43167 43021 42716 42435 42296 42292 42348 42465 42617 42774 42893 42737 42516 42282 42145 42194 42418 42647 42832 43014 42860 42505 42189 42114 42086 42172 42266 42383 42534 42557 42316 42052 41791 41630 41604 41735 41968 42228 42326 42092 41803 41498 41351 41369 41418 41534 41705 41799 41624 41421 41242 41206 41140 41154 41375 41568 41747 41792 41672 41490 41344 41292 41351 41422 41506 41652 41665 41481 41430 41449 41432 41435 41407 41570 41750 41898 41847 41689 41450 41250 41158 41134 41164 41241 41290 41134 40974 40918 40891 40865 40865 40776 40918 41156 41173 41200 41265 41278 41242 41221 41262 41378 41490 41533 41534 41457 41441 41417 41444 41469 41448 41534 41653 41677 41690 41701 41745 41734 41670 41654 41624 41630 41526 41414 41390 41482 41606 41643 41685 41685 41731 41848 41918 42021 42209 42298 42294 42286 42339 42463 42589 42553 42555 42565 42606 42647 42732 42809 42841 42848 42816 42810 42893 43007 43087 43100 43036 43007 42995 42985 42913 42813 42785 42832 42931 43001 43041 43059 42969 42968 43043 43175 43365 43473 43494 43439 43400 43431 43412 43388 43420 43453 43534 43701 43817 43837 43858 43814 43792 43827 43914 44021 44121 44081 43957 43893 43818 43691 43586 43619 43652 43744 43865 43896 43915 43913 43779 43753 43815 43911 44016 44143 44067 43998 43883 43782 43698 43618 43657 43693 43787 43877 43888 43843 43704 43412 43261 43297 43436 43649 43838 43831 43683 43467 43187 42973 42780 42758 42904 43026 43147 43200 43148 42846 42461 42315 42422 42625 42869 43027 43033 42929 42676 42388 42182 42148 42218 42376 42468 42622 42739 42705 42439 42139 42050 42168 42316 42528 42739 42827 42638 42172 41752 41491 41401 41483 41638 41783 41952 42047 41835 41372 41006 40921 41144 41286 41477 41721 41851 41685 41241 40874 40675 40671 40816 41011 41232 41436 41521 41264 40866 40589 40611 40797 41030 41287 41520 41538 41098 40616 40307 40166 40169 40335 40544 40730 40842 40696 40288 39906 39703 39778 40030 40311 40582 40820 40777 40301 39861 39587 39490 39587 39832 40087 40336 40498 40287 39924 39604 39424 39556 39882 40233 40520 40690 40372 39898 39575 39452 39464 39564 39807 40045 40226 40019 39617 39303 39069 39053 39369 39702 39984 40241 40347 40042 39712 39506 39399 39418 39519 39770 40039 40229 40042 39771 39623 39528 39511 39745 40111 40464 40761 40755 40462 40205 40138 40093 40201 40345 40533 40800 40770 40534 40288 40110 40094 40044 40123 40477 40767 40840 40803 40700 40612 40526 40424 40380 40374 40476 40505 40490 40506 40520 40591 40702 40726 40849 41182 41346 41396 41457 41442 41404 41403 41329 41250 41257 41361 41399 41400 41417 41478 41492 41529 41447 41477 41670 41801 41918 42006 42043 42027 41959 41797 41624 41589 41534 41530 41574 41715 41805 41879 41952 41941 41969 42087 42211 42348 42503 42590 42593 42635 42747 42867 42910 42898 42959 43060 43143 43175 43211 43249 43215 43148 43266 43339 43467 43563 43585 43518 43453 43375 43248 43103 42993 42992 43080 43208 43337 43369 43442 43308 43135 43194 43287 43435 43600 43674 43624 43584 43560 43458 43332 43317 43419 43501 43621 43704 43769 43757 43585 43455 43489 43635 43793 43949 43949 43833 43695 43424 43181 43078 43097 43171 43289 43359 43329 43262 42965 42580 42330 42532 42645 42794 42961 43031 43010 42740 42399 42167 42074 42213 42457 42683 42812 42894 42696 42291 41826 41658 41984 42178 42409 42728 42859 42621 42128 41684 41487 41503 41648 41843 42045 42223 42174 41741 41263 40853 40734 41015 41283 41570 41800 41800 41368 40854 40538 40398 40449 40663 40889 41079 41253 41117 40776 40535 40360 40415 40734 41063 41314 41528 41480 41069 40695 40465 40352 40396 40568 40807 41128 41317 41103 40809 40609 40483 40497 40856 41156 41397 41569 41345 40962 40713 40591 40560 40608 40758 41001 41107 41042 40887 40740 40716 40711 40775 41090 41364 41555 41592 41496 41304 41212 41180 41101 41072 41163 41413 41592 41649 41649 41729 41860 41906 41983 42186 42400 42443 42436 42405 42279 42164 42139 42160 42213 42311 42352 42285 42254 42142 42070 42041 41978 41991 42255 42424 42421 42457 42551 42575 42556 42547 42567 42595 42591 42565 42573 42641 42706 42787 42882 42893 42904 43185 43381 43430 43495 43533 43468 43415 43360 43291 43184 43029 42990 43060 43155 43299 43312 43360 43416 43397 43468 43519 43501 43609 43748 43797 43826 43802 43802 43679 43545 43556 43600 43736 43889 43952 43988 43982 43881 43785 43936 44099 44259 44288 44258 44209 44194 44135 43950 43775 43742 43835 43916 43987 44037 44144 44077 43860 43766 43719 43776 43885 43947 43939 43890 43812 43598 43382 43241 43258 43388 43558 43689 43827 43940 43858 43630 43463 43464 43587 43745 43913 43899 43759 43566 43297 43079 42996 43069 43184 43350 43476 43498 43367 42915 42510 42347 42478 42688 42914 43070 43031 42799 42357 41990 41822 41781 41885 42066 42219 42345 42372 42075 41619 41238 41165 41339 41574 41806 42024 42097 41735 41241 40889 40742 40788 40937 41158 41374 41584 41527 41146 40710 40410 40434 40687 40964 41244 41485 41460 41023 40625 40390 40366 40513 40743 41018 41254 41394 41254 40820 40449 40195 40234 40526 40866 41130 41386 41231 40834 40462 40244 40207 40341 40567 40823 41053 41134 40827 40428 40183 40012 40042 40239 40625 40946 41146 40960 40680 40531 40499 40546 40684 40893 41125 41301 41292 41117 40958 40918 40864 40985 41255 41535 41778 41864 41671 41457 41338 41316 41369 41501 41603 41777 41918 41893 41893 41931 41993 42054 42150 42360 42589 42770 42768 42623 42422 42345 42367 42423 42495 42589 42680 42662 42593 42534 42493 42590 42630 42799 43049 43209 43212 43181 43055 42958 42941 42964 42973 43000 43080 43110 43106 43103 43106 43144 43206 43255 43357 43564 43718 43740 43729 43635 43577 43571 43574 43645 43703 43864 43954 43963 43885 43829 43824 43916 43941 44015 44214 44285 44251 44241 44091 43993 43977 43970 43969 44027 44075 43976 43854 43801 43754 43803 43843 43789 43889 43996 43933 43855 43859 43770 43703 43645 43610 43618 43698 43659 43598 43566 43593 43578 43654 43652 43661 43759 43833 43803 43786 43781 43743 43709 43649 43662 43758 43871 43804 43754 43663 43663 43572 43536 43528 43467 43541 43606 43538 43507 43535 43586 43497 43402 43373 43409 43365 43203 43061 43052 43059 42995 42944 42903 42832 42804 42798 42710 42726 42810 42795 42753 42689 42616 42639 42499 42355 42299 42370 42471 42416 42326 42173 42030 42011 42041 42064 42164 42319 42331 42293 42276 42333 42464 42421 42400 42370 42340 42348 42257 42243 42257 42211 42108 42036 41975 42003 42082 42086 41976 41852 41829 41828 41678 41564 41602 41740 41894 41813 41820 41711 41596 41500 41456 41515 41644 41738 41665 41601 41511 41513 41389 41220 41198 41282 41432 41596 41618 41617 41580 41475 41448 41480 41606 41800 41933 41977 42023 42070 42177 42151 42117 42132 42223 42268 42387 42435 42483 42451 42373 42320 42309 42453 42637 42744 42745 42697 42668 42635 42557 42481 42496 42586 42705 42797 42787 42856 42791 42639 42703 42841 43012 43175 43189 43167 43144 43105 43021 42920 42931 42991 43054 43245 43383 43367 43447 43334 43194 43235 43399 43576 43761 43818 43805 43734 43730 43675 43657 43688 43785 43852 43997 44073 44143 44195 44094 44013 44128 44239 44363 44479 44496 44392 44331 44225 44113 44009 43950 43973 44044 44164 44208 44230 44148 43966 43861 43949 44053 44204 44294 44303 44282 44219 44036 43838 43668 43682 43747 43836 43969 44040 44011 43893 43611 43490 43591 43739 43890 43993 44030 44065 43990 43805 43679 43575 43587 43687 43797 43896 43978 43972 43750 43504 43352 43466 43661 43841 43964 43959 43827 43543 43250 43056 42925 43000 43157 43310 43441 43439 43148 42755 42384 42278 42500 42732 42948 43043 43001 42795 42352 41971 41940 42147 42353 42633 42920 43071 43220 43038 42660 42420 42418 42599 42828 43023 43213 43341 43153 42664 42263 42090 42100 42226 42416 42608 42715 42719 42293 41838 41508 41418 41608 41852 42107 42357 42507 42138 41565 41246 41180 41223 41377 41614 41776 41859 41520 40939 40448 40131 40176 40486 40750 41019 41263 41093 40522 40034 39781 39721 39899 40198 40471 40776 40966 40654 40199 39856 39777 39976 40347 40669 40937 41073 40734 40272 39947 39844 39939 40132 40404 40698 40949 41056 40764 40420 40140 40108 40315 40648 40982 41243 41314 40883 40448 40245 40189 40292 40423 40660 40899 41028 40872 40503 40297 40155 40180 40422 40754 41009 41229 41076 40735 40448 40281 40277 40426 40579 40826 41077 41108 41069 40942 40864 40866 40974 41210 41495 41761 41933 41855 41654 41489 41465 41511 41670 41816 42031 42149 42119 41994 41809 41764 41743 41851 42074 42351 42533 42550 42412 42262 42168 42235 42311 42431 42555 42693 42638 42628 42564 42564 42563 42642 42864 43148 43328 43411 43288 43052 42898 42893 42930 42982 43091 43226 43248 43251 43268 43166 43203 43271 43391 43680 43882 44026 44032 43859 43663 43561 43599 43640 43712 43828 43854 43791 43771 43675 43549 43502 43577 43764 44097 44174 44107 44030 43897 43815 43753 43793 43860 43927 44045 44029 43981 43936 43803 43738 43725 43817 44015 44249 44252 44168 43969 43732 43602 43615 43657 43763 43888 43929 43785 43627 43544 43450 43371 43381 43462 43745 43896 43760 43624 43456 43277 43123 43099 43122 43179 43214 43044 42955 42926 42959 42950 42912 42881 42943 43096 43002 42906 42872 42893 42884 42771 42725 42747 42857 42770 42677 42651 42628 42804 42879 42848 42784 42664 42458 42371 42376 42459 42631 42679 42553 42425 42380 42274 42027 41994 41987 42054 42202 42132 42032 41971 41820 41752 41742 41807 42027 42225 42153 41996 41934 41937 41830 41771 41755 41814 42016 42139 42119 42030 41981 41815 41821 41931 42101 42315 42350 42167 42046 41990 41855 41700 41678 41707 41801 41971 42018 41915 41813 41549 41429 41565 41721 41990 42182 42170 42105 42115 41996 41827 41825 41956 42081 42195 42404 42390 42325 42080 41920 41971 42149 42349 42613 42699 42639 42517 42369 42190 42034 42098 42252 42394 42523 42625 42602 42428 42090 41941 42135 42308 42538 42755 42844 42803 42583 42346 42180 42036 42179 42294 42489 42824 43128 43174 42926 42678 42626 42795 42941 43149 43359 43383 43189 42916 42727 42651 42708 42845 42946 43096 43249 43228 42898 42616 42450 42558 42817 43040 43270 43387 43238 42864 42601 42459 42425 42617 42789 42945 43178 43234 43002 42711 42455 42477 42728 42920 43094 43330 43358 43052 42711 42564 42605 42678 42936 43184 43299 43431 43256 42851 42480 42289 42383 42608 42868 43061 43224 42842 42334 41997 41863 41897 41996 42185 42373 42538 42378 42014 41662 41453 41388 41613 41887 42117 42352 42373 42025 41681 41576 41650 41755 41972 42189 42363 42294 42056 41810 41566 41444 41408 41588 41928 42169 42195 42025 41721 41513 41460 41499 41566 41730 41945 41892 41698 41656 41533 41391 41254 41158 41297 41571 41500 41461 41468 41398 41378 41373 41380 41496 41625 41578 41362 41262 41224 41304 41648 41809 42001 42124 41912 41666 41458 41440 41592 41884 42178 42488 42700 42534 42245 42033 41927 42041 42331 42617 43008 43228 43183 42950 42699 42632 42657 42795 42969 43252 43542 43597 43461 43276 43184 43259 43339 43572 43726 43979 44086 44120 44107 44070 44022 44093 44167 44299 44439 44436 44437 44453 44359 44333 44307 44236 44356 44373 44391 44471 44441 44466 44484 44432 44387 44481 44512 44545 44625 44653 44694 44674 44622 44701 44855 44828 44549 44366 44206 44257 44357 44413 44398 44488 44700 44829 44807 44925 44951 44891 44844 44802 44781 44778 44646 44638 44726 44880 44957 44939 44888 44797 44677 44450 44393 44500 44687 44808 44849 44798 44771 44700 44439 44246 44336 44542 44732 44913 44975 44973 44827 44531 44258 44106 44224 44423 44608 44676 44654 44638 44537 44272 44011 43643 43612 43612 43687 43808 43810 43443 43093 42913 42898 42959 43159 43272 43277 43223 42870 42496 42261 42239 42339 42642 42913 42965 43034 43052 42994 42929 42823 42953 43058 43421 43725 43872 44042 44200 44177 44337 44579 44771 44769 45016 45153 45157 45081 45002 45149 45644 46140 46431 46698 47037 47036 46695 46043 45668 45431 45316 45315 45229 45107 44649 43838 43173 42818 42727 42715 42750 42738 42535 42131 41695 41376 41295 41371 41510 41695 41849 41910 41564 41114 40708 40545 40699 40884 41070 41307 41391 41023 40530 40162 40039 40105 40275 40545 40767 40985 40886 40396 39929 39550 39489 39801 40007 40251 40510 40506 40033 39615 39440 39416 39570 39866 40132 40356 40361 40074 39742 39525 39358 39480 39777 39976 40197 40374 40241 39903 39681 39658 39749 39916 40199 40541 40728 40533 40333 40064 39892 39765 39803 40082 40382 40483 40437 40296 40038 39923 39947 40005 40128 40322 40524 40419 40308 40238 40140 40128 40062 40146 40446 40531 40399 40436 40520 40370 40296 40342 40441 40560 40784 40796 40691 40738 40820 40845 40868 40891 41008 41156 41167 41166 41283 41275 41139 41112 41176 41293 41421 41460 41430 41361 41414 41517 41534 41579 41601 41689 41804 41720 41703 41832 41886 41830 41726 41750 41847 41876 41899 41930 41989 42120 42256 42282 42345 42351 42331 42337 42397 42541 42735 42756 42683 42681 42753 42786 42736 42747 42771 42878 43010 43066 43148 43189 43080 43015 43094 43123 43260 43429 43467 43386 43307 43276 43191 43108 43191 43347 43444 43585 43708 43760 43690 43507 43446 43512 43637 43814 43989 44026 43944 43850 43684 43638 43555 43655 43775 43967 44061 44053 44056 43823 43599 43552 43711 43816 44014 44192 44162 43920 43522 43211 43052 43067 43207 43344 43472 43610 43640 43312 42912 42607 42583 42819 43073 43285 43459 43415 42980 42525 42237 42234 42368 42567 42834 43043 43191 42885 42427 41990 41782 41868 42131 42352 42643 42797 42326 41721 41315 41192 41251 41432 41749 41993 42095 41828 41446 41170 41045 41123 41399 41620 41919 42217 42144 41659 41235 41071 41119 41270 41442 41749 42001 41968 41701 41400 41221 41196 41267 41452 41757 41985 41874 41520 41165 41004 41014 41127 41185 41396 41556 41477 41323 41204 41156 41195 41264 41424 41681 41849 41829 41742 41607 41463 41401 41434 41476 41610 41822 41877 41827 41824 41882 41879 41890 41928 42023 42193 42159 42115 42206 42274 42222 42190 42230 42334 42451 42324 42271 42230 42242 42357 42426 42468 42493 42498 42640 42596 42684 42841 42995 42914 42849 42829 42858 42767 42692 42764 42871 42980 43145 43266 43341 43326 43272 43321 43391 43562 43774 43853 43729 43673 43635 43563 43450 43572 43763 43903 43964 44084 44118 44009 43812 43762 43839 43950 44130 44316 44283 44142 43978 43768 43597 43516 43640 43750 43881 44077 44113 44021 43822 43670 43743 43890 44072 44287 44487 44434 44168 43835 43666 43584 43657 43816 44018 44126 44210 44094 43830 43600 43481 43722 43871 44023 44207 44304 43918 43505 43193 43031 43008 43120 43320 43547 43748 43674 43354 43029 42851 42831 43086 43274 43460 43666 43536 43086 42740 42574 42560 42642 42807 43047 43215 43094 42738 42386 42217 42093 42152 42436 42634 42738 42577 42232 41894 41738 41677 41779 41908 42153 42348 42238 42070 42031 41983 41970 41967 42089 42340 42422 42320 42233 42069 41957 41920 41950 42033 42117 42193 42064 41935 41913 41973 41937 41911 41898 41947 41874 41678 41631 41776 41827 41776 41704 41686 41746 41580 41530 41566 41671 41843 42061 42047 42045 41942 41793 41752 41743 41896 42137 42265 42232 42175 42143 42032 41942 41960 42044 42188 42392 42489 42400 42274 41957 41788 41858 41981 42218 42494 42566 42494 42315 42052 41852 41818 41919 42132 42381 42647 42736 42571 42266 42034 42155 42347 42508 42739 43016 43113 42962 42677 42503 42467 42510 42761 43055 43295 43552 43606 43371 43109 43024 43130 43306 43487 43698 43885 43672 43324 43066 43008 43035 43163 43298 43468 43608 43567 43349 43173 43097 43161 43424 43606 43777 43977 43860 43522 43275 43177 43221 43310 43396 43577 43734 43636 43592 43536 43460 43439 43527 43767 43930 44077 44036 43900 43678 43564 43533 43567 43645 43737 43900 43846 43760 43727 43710 43702 43707 43767 43946 43993 43862 43803 43778 43674 43606 43556 43578 43606 43516 43414 43408 43512 43645 43721 43703 43699 43716 43647 43505 43480 43592 43714 43671 43576 43510 43511 43460 43430 43444 43535 43698 43852 43822 43719 43579 43230 43002 42947 43007 43210 43426 43383 43219 43009 42571 42193 42088 42257 42507 42740 42962 42996 42736 42243 41842 41863 42026 42259 42514 42739 42753 42388 41873 41575 41493 41631 41907 42203 42459 42647 42462 41857 41315 41069 41190 41430 41661 41941 42173 41748 41020 40525 40295 40365 40617 40908 41219 41422 41241 40741 40380 40199 40319 40592 40837 41054 41335 41185 40760 40389 40220 40177 40318 40616 41000 41303 41182 40886 40522 40361 40262 40381 40621 40850 40935 40812 40529 40264 40108 40048 40055 40276 40563 40734 40642 40567 40567 40475 40525 40575 40805 41106 41139 41036 41019 40912 40817 40801 40810 40851 41035 41150 41107 41073 41069 41131 41134 41162 41206 41384 41389 41188 41167 41335 41474 41513 41483 41512 41610 41514 41418 41523 41715 41933 42205 42309 42346 42201 42055 41951 42025 42202 42376 42544 42649 42582 42502 42382 42268 42329 42532 42748 42951 43183 43190 42983 42626 42446 42458 42589 42771 42956 43246 43304 43112 42801 42652 42753 42951 43190 43352 43513 43721 43565 43289 42947 42880 42981 43074 43170 43324 43489 43351 43069 42807 42669 42664 42814 42970 43253 43525 43590 43349 43089 42828 42751 42877 43011 43176 43287 43191 42937 42695 42558 42472 42470 42606 42791 42945 42903 42881 42839 42718 42711 42643 42886 43127 43209 43115 43058 42977 42855 42759 42650 42529 42580 42711 42700 42644 42695 42760 42724 42616 42544 42625 42695 42614 42577 42688 42747 42648 42507 42329 42162 41978 41823 41890 42041 42316 42621 42699 42671 42581 42357 42228 42203 42352 42633 42942 42928 42745 42570 42255 42079 42109 42280 42550 42804 42997 42962 42749 42279 42026 42063 42127 42267 42560 42711 42588 42194 41638 41205 41001 41150 41553 41899 42175 42437 42145 41510 40973 40823 41130 41381 41619 41918 42148 41844 41316 40881 40666 40781 41157 41519 41846 42144 42106 41563 41097 40844 40921 41228 41475 41736 42061 41869 41338 40899 40713 40746 41021 41389 41723 41951 41879 41663 41365 41277 41236 41420 41677 41866 42031 41991 41827 41670 41637 41668 41867 42054 42341 42516 42448 42315 42317 42235 42157 42116 42311 42444 42528 42467 42449 42367 42250 42171 42138 42230 42346 42468 42451 42447 42484 42533 42501 42503 42487 42644 42526 42429 42503 42717 42867 42840 42764 42688 42711 42612 42693 42849 42979 43278 43461 43534 43498 43390 43312 43243 43280 43415 43621 43864 43842 43718 43616 43538 43432 43476 43588 43769 43981 44157 44182 44096 43874 43775 43818 43933 44160 44354 44481 44352 44059 43708 43527 43461 43634 43831 44004 44159 44270 43959 43534 43205 43213 43393 43541 43743 44061 44038 43541 42958 42652 42537 42672 42937 43239 43475 43717 43510 43093 42646 42499 42644 42842 43043 43257 43483 43129 42564 42146 41975 42071 42330 42678 42983 43129 42845 42454 42045 41834 41743 41941 42201 42358 42336 42152 41924 41625 41402 41287 41316 41530 41898 42061 41913 41849 41784 41732 41713 41668 41850 42031 41893 41620 41428 41404 41471 41475 41360 41433 41643 41708 41653 41587 41567 41659 41511 41328 41249 41288 41276 41067 41096 41448 41632 41486 41331 41159 40989 40855 40862 41034 41227 41460 41643 41577 41517 41241 41031 41113 41204 41404 41775 42022 41958 41806 41496 41165 41057 41188 41437 41675 41866 42012 42019 41848 41450 41335 41468 41727 41972 42234 42532 42497 42072 41631 41419 41438 41641 41923 42197 42425 42671 42498 42204 42001 42093 42324 42596 42815 43094 43130 42814 42471 42290 42312 42505 42740 43032 43274 43363 43208 42965 42806 42758 42890 43147 43332 43498 43607 43485 43173 42879 42748 42735 42806 43044 43290 43388 43313 43270 43218 43290 43315 43480 43694 43859 43878 43760 43844 43787 43734 43680 43742 43799 43990 44093 44113 44125 44130 44154 44130 44073 44105 44205 44058 43976 44036 44285 44250 44119 44014 43945 43766 43551 43540 43679 43910 44063 44224 44200 44200 44108 44025 44098 44216 44419 44692 44532 44245 44022 44054 44170 44183 44296 44454 44623 44758 44893 44908 44689 44347 44121 44105 44215 44415 44615 44646 44472 44021 43568 43291 43263 43380 43642 43849 44029 43991 43518 43024 42739 42812 43006 43201 43416 43665 43532 42955 42425 42161 42136 42289 42590 42849 43069 43048 42623 42161 41856 41732 41873 42169 42339 42509 42490 42153 41746 41469 41303 41333 41462 41709 41987 41977 41828 41604 41398 41265 41228 41389 41697 41998 41933 41818 41621 41426 41380 41432 41510 41698 41992 41879 41597 41525 41529 41536 41524 41557 41715 41753 41637 41606 41639 41585 41470 41425 41421 41585 41669 41569 41461 41505 41564 41566 41621 41535 41640 41628 41496 41580 41787 41968 41996 41909 41866 41873 41736 41679 41725 41875 42087 42229 42325 42388 42352 42232 42194 42271 42430 42687 42865 42828 42699 42626 42492 42373 42339 42485 42677 42814 42989 43106 43076 42771 42633 42757 42922 43127 43375 43604 43607 43454 43211 43100 43078 43175 43333 43515 43694 43849 43825 43657 43529 43502 43677 43917 44092 44247 44385 44150 43833 43612 43531 43619 43750 43956 44136 44236 44160 43931 43906 43923 43993 44160 44387 44444 44499 44505 44428 44259 44134 44111 44191 44255 44400 44491 44488 44412 44257 44256 44295 44313 44464 44721 44758 44681 44556 44419 44326 44250 44214 44255 44369 44373 44259 44249 44299 44309 44372 44430 44481 44552 44465 44336 44385 44512 44544 44530 44484 44482 44488 44450 44395 44375 44458 44622 44659 44693 44676 44553 44416 44351 44351 44491 44647 44677 44587 44444 44264 44069 43942 43976 44056 44173 44341 44394 44366 44058 43598 43468 43526 43678 43894 44120 44161 44041 43678 43264 43025 43011 43187 43473 43682 43889 44006 43696 43248 42848 42887 43098 43266 43509 43783 43782 43305 42705 42257 42168 42251 42460 42716 42939 43092 42732 42193 41821 41595 41715 42046 42297 42503 42651 42281 41818 41498 41341 41360 41493 41733 41968 42135 42004 41712 41434 41332 41306 41398 41682 42045 42160 41957 41652 41328 41186 41196 41274 41365 41545 41585 41387 41276 41178 41150 41204 41218 41369 41620 41579 41425 41453 41547 41520 41457 41358 41320 41430 41481 41437 41410 41523 41676 41643 41669 41640 41596 41650 41590 41580 41729 41923 42078 42006 41879 41832 41593 41384 41417 41565 41795 42016 42075 42154 41999 41642 41593 41753 41933 42183 42465 42576 42555 42482 42187 41918 41847 42058 42263 42503 42745 42898 42844 42629 42428 42449 42677 42956 43194 43375 43403 43179 42844 42611 42545 42652 42856 43057 43294 43425 43415 43221 43016 42868 43051 43320 43497 43675 43882 43775 43478 43256 43174 43254 43380 43554 43721 43932 43944 43736 43638 43584 43579 43709 43993 44190 44376 44411 44113 43879 43767 43691 43672 43771 43910 44068 44005 43938 43879 43813 43894 43890 43985 44269 44234 44077 44072 44056 43991 43914 43852 43866 43917 44001 43981 44002 44025 44061 44105 44194 44192 44250 44317 44267 44214 44280 44368 44371 44337 44260 44160 44143 44046 43961 43960 44056 44162 44156 44195 44149 43914 43773 43701 43757 43945 44104 44088 43999 43916 43710 43486 43409 43495 43647 43848 44056 44009 44004 43609 43233 43175 43305 43543 43785 43919 43863 43720 43401 43137 43004 43081 43311 43532 43613 43790 43607 43103 42473 42066 42210 42501 42760 43032 43218 43043 42388 41668 41302 41294 41505 41838 42120 42399 42410 41796 41217 40873 40796 41204 41525 41746 42047 42117 41621 41011 40608 40474 40577 40836 41191 41517 41617 41372 41029 40754 40631 40732 41009 41337 41642 41717 41543 41217 40970 40902 40897 40921 41108 41364 41390 41098 40975 40971 40966 41021 41023 41212 41442 41344 41235 41263 41349 41451 41414 41391 41418 41491 41483 41350 41315 41504 41715 41721 41629 41538 41536 41473 41466 41594 41811 42034 42163 42050 41979 41977 41839 41776 41797 41892 42181 42339 42318 42272 42042 41876 41866 41928 42115 42371 42542 42546 42436 42278 42104 42054 42175 42361 42535 42845 42978 42989 42769 42433 42359 42404 42571 42798 43117 43276 43267 42990 42672 42447 42364 42479 42743 43021 43229 43357 43245 42945 42662 42626 42882 43154 43374 43604 43716 43384 42989 42738 42621 42704 42827 43093 43339 43463 43305 43041 42788 42653 42756 43125 43403 43694 43885 43682 43285 42983 42866 42952 43141 43467 43780 43912 43745 43499 43266 43200 43174 43283 43536 43720 43854 43679 43329 43098 43001 42953 42981 43108 43231 43382 43213 42998 42876 42803 42869 42852 42989 43233 43166 42967 42868 42822 42795 42795 42780 42788 42864 42893 42791 42699 42731 42872 42851 42905 42820 42911 42982 42800 42756 42847 42917 42856 42704 42619 42616 42731 42708 42707 42700 42801 42976 42914 42938 42865 42616 42423 42354 42447 42644 42874 42868 42707 42597 42326 41923 41762 41811 42015 42274 42501 42518 42436 41941 41456 41465 41734 42020 42300 42436 42390 42123 41632 41194 41056 41230 41531 41826 42120 42286 42210 41763 41221 40986 41207 41537 41878 42203 42348 42197 41601 41015 40674 40733 41072 41422 41666 41875 41909 41372 40817 40338 40396 40859 41142 41438 41758 41854 41420 40888 40594 40562 40758 41073 41447 41735 41932 41788 41347 41043 40837 40892 41238 41527 41823 42125 41909 41395 40941 40744 40700 40799 41055 41393 41597 41487 41217 40919 40864 40867 40987 41325 41593 41828 41803 41664 41448 41253 41214 41222 41291 41501 41775 41863 41810 41781 41752 41827 41936 42016 42197 42391 42325 42240 42203 42199 42169 42089 42020 41948 41998 41970 41955 42033 42163 42274 42295 42377 42426 42551 42541 42573 42662 42821 43008 43068 43039 42996 42932 42755 42740 42850 43009 43221 43438 43528 43577 43480 43254 43214 43241 43393 43625 43852 43896 43805 43689 43361 43111 43082 43178 43363 43650 43925 44103 44114 43820 43508 43462 43636 43783 43953 44182 44403 44270 43857 43491 43257 43305 43474 43749 43986 44221 44389 44148 43733 43388 43324 43546 43733 43980 44166 44229 43788 43290 42925 42814 42876 42992 43233 43470 43662 43453 43206 42945 42877 42865 43017 43387 43507 43530 43300 43013 42924 42958 43059 43196 43425 43578 43823 43745 43428 43288 43234 43136 43036 43009 43155 43070 42822 42668 42620 42554 42512 42503 42523 42549 42456 42225 42155 42217 42382 42538 42591 42529 42423 42204 42028 41971 42066 42355 42537 42504 42356 42212 42002 41872 41838 41921 42109 42346 42477 42378 42246 41827 41456 41440 41602 41911 42218 42305 42212 42035 41612 41230 41083 41207 41460 41720 41928 42036 41886 41262 40613 40487 40776 41123 41474 41793 42126 42114 41434 40727 40336 40362 40631 41016 41434 41726 41939 41573 41054 40735 40693 40919 41224 41486 41758 41888 41428 40800 40304 40029 40150 40465 40809 41084 41287 41001 40596 40317 40157 40118 40391 40889 41123 41331 41226 41027 40827 40671 40606 40597 40803 41178 41424 41309 41222 41166 41195 41257 41261 41426 41682 41691 41506 41458 41515 41426 41244 41055 40961 41056 41104 41048 41055 41102 41295 41422 41436 41403 41384 41376 41350 41451 41617 41886 41991 41907 41740 41636 41562 41572 41728 42015 42273 42472 42572 42511 42429 42157 42077 42118 42230 42496 42732 42803 42714 42548 42182 41931 41977 42229 42484 42740 43080 43250 43055 42627 42346 42384 42756 42982 43229 43436 43514 43329 42922 42452 42219 42353 42634 42926 43234 43483 43467 43170 42904 42714 42814 43167 43467 43692 43900 43749 43339 43011 42816 42747 42848 43020 43301 43532 43484 43201 42936 42855 42829 42906 43248 43422 43511 43403 43290 43233 43205 43173 43150 43147 43345 43530 43453 43396 43361 43326 43402 43441 43433 43614 43721 43583 43518 43599 43730 43671 43478 43392 43398 43341 43102 43052 43190 43343 43552 43633 43631 43596 43377 43235 43155 43254 43432 43585 43637 43623 43595 43351 43035 42898 43031 43279 43536 43760 43970 44029 43606 43147 43006 43135 43303 43566 43785 43910 43737 43100 42459 42057 42019 42358 42717 43036 43267 43462 43014 42526 42135 42167 42391 42632 42855 43078 42943 42557 42096 41761 41665 41752 42032 42389 42696 42769 42569 42362 42229 42197 42204 42379 42649 42867 42946 42711 42401 42229 42167 42259 42440 42635 42914 43017 42785 42568 42321 42301 42255 42153 42331 42628 42548 42393 42364 42338 42300 42238 42208 42316 42515 42463 42367 42282 42352 42446 42382 42449 42459 42535 42436 42401 42451 42618 42781 42814 42733 42697 42633 42371 42227 42232 42404 42619 42755 42721 42684 42403 42131 42151 42270 42499 42834 43148 43264 43283 43082 42772 42550 42601 42786 43013 43186 43284 43383 43250 42830 42593 42694 42800 43016 43277 43455 43419 43158 42741 42464 42490 42576 42835 43095 43294 43455 43284 42883 42515 42346 42589 42881 43146 43397 43553 43341 42861 42472 42248 42275 42497 42774 43007 43164 43236 42890 42561 42351 42294 42470 42735 43056 43334 43392 43076 42718 42507 42517 42584 42736 43014 43252 43339 43107 42861 42643 42599 42520 42625 42914 43147 43097 42960 42796 42618 42465 42394 42364 42482 42778 42835 42637 42601 42622 42609 42686 42681 42810 43060 42991 42908 42940 42993 42986 42923 42844 42802 42895 43004 42956 42878 42856 42962 42944 42967 42925 42952 42952 42805 42753 42902 43056 43095 42961 42818 42724 42611 42408 42332 42495 42730 42966 43107 43181 43105 42811 42570 42539 42680 42924 43203 43349 43255 43086 42820 42533 42379 42458 42632 42809 43031 43159 43059 42742 42164 41849 41979 42204 42559 42849 43052 43100 42598 41904 41487 41404 41672 41988 42310 42567 42807 42597 41996 41472 41249 41493 41883 42276 42582 42795 42571 41927 41410 41146 41187 41426 41798 42079 42285 42185 41653 41247 40998 40920 41200 41634 41903 42182 42146 41660 41217 40997 40965 41088 41347 41675 41983 42020 41726 41402 41182 41164 41216 41463 41831 42121 42196 42015 41760 41559 41547 41574 41716 41995 42272 42423 42173 41910 41695 41595 41617 41667 41853 42125 42155 42024 41966 41865 41733 41646 41503 41518 41757 41857 41704 41647 41685 41741 41810 41828 41819 41975 42007 41969 42022 42189 42352 42378 42366 42279 42209 42072 41965 41978 42107 42344 42600 42601 42653 42612 42416 42323 42393 42579 42826 43091 43185 43123 43045 42821 42525 42442 42466 42626 42848 43092 43186 43212 43043 42690 42589 42706 42931 43195 43470 43603 43566 43373 43052 42829 42803 42921 43137 43358 43551 43700 43672 43330 42959 42849 43047 43262 43489 43731 43844 43676 43167 42751 42501 42543 42752 43014 43248 43409 43445 42992 42546 42238 42270 42580 42821 43036 43272 43408 42999 42492 42176 42020 42066 42446 42788 43071 43219 43143 42625 42320 42076 42042 42350 42614 42870 43102 43088 42573 42154 41944 41887 41914 42071 42321 42588 42769 42522 42238 41941 41855 41842 42035 42298 42532 42715 42609 42238 41894 41716 41681 41753 41954 42234 42417 42114 41817 41576 41389 41380 41349 41447 41761 41872 41609 41467 41491 41466 41425 41372 41433 41578 41814 41797 41548 41409 41370 41310 41306 41296 41397 41638 41645 41464 41460 41530 41484 41369 41295 41297 41433 41551 41429 41309 41202 41368 41386 41268 41212 41199 41089 40974 40920 41101 41408 41502 41391 41328 41309 41209 40949 40890 40905 41082 41293 41421 41437 41442 41366 41168 41038 41126 41426 41765 41919 41866 41728 41675 41441 41312 41384 41523 41719 41837 41888 41832 41681 41262 41066 41133 41373 41689 42003 42132 42036 41772 41309 40911 40873 41064 41362 41644 41993 42154 42079 41697 41223 41105 41357 41664 42009 42335 42579 42561 42173 41709 41417 41391 41601 41899 42169 42426 42635 42326 41841 41414 41290 41561 41897 42194 42453 42637 42363 41836 41465 41318 41393 41602 41899 42179 42371 42412 42032 41667 41395 41418 41821 42121 42384 42659 42794 42487 42036 41750 41676 41821 42084 42380 42641 42754 42509 42054 41757 41704 41761 42023 42323 42533 42658 42492 42184 41895 41703 41637 41664 41930 42253 42507 42443 42287 42140 42065 42075 42161 42396 42707 42825 42742 42706 42666 42602 42552 42495 42555 42685 42836 42747 42635 42527 42498 42454 42429 42371 42442 42606 42501 42442 42532 42671 42759 42795 42793 42710 42770 42726 42660 42712 42806 43101 43116 43046 42969 42927 42830 42806 42858 43017 43295 43327 43171 43038 42904 42627 42424 42431 42589 42809 42961 42980 42926 42796 42374 42177 42234 42384 42616 42911 43164 43155 42975 42511 42088 42106 42326 42622 42977 43183 43337 43321 42956 42460 42281 42421 42669 42952 43271 43428 43300 42749 42211 41906 41972 42280 42595 42819 43012 43195 42793 42136 41592 41511 41865 42153 42395 42697 42881 42613 41950 41420 41149 41242 41569 41890 42199 42449 42451 41875 41385 41068 41080 41388 41717 42020 42330 42522 41951 41280 40875 40832 41022 41245 41587 41906 41888 41387 40963 40739 40700 40815 41172 41447 41686 41898 41645 41272 40968 40814 40824 40974 41276 41642 41877 41629 41266 40828 40603 40443 40416 40663 41066 41277 41068 40821 40590 40442 40385 40388 40598 40918 41067 40829 40571 40460 40470 40475 40515 40643 40988 41040 40802 40752 40874 40803 40694 40653 40648 40743 40902 40827 40714 40670 40706 40682 40648 40684 40867 40963 40934 40955 41050 41088 40937 40796 40739 40931 41155 41140 40973 40986 41146 41155 41183 41123 41089 41194 41115 41074 41165 41386 41537 41573 41577 41670 41841 41648 41624 41682 41824 42037 42121 42102 42044 41967 41878 41885 41987 42242 42474 42452 42295 42206 42090 41905 41834 41918 42089 42267 42430 42402 42346 42176 41922 42098 42192 42335 42610 42762 42829 42875 42778 42435 42253 42358 42597 42836 43036 43294 43268 43118 42721 42454 42652 42904 43132 43476 43574 43429 43210 42755 42451 42480 42749 43054 43235 43418 43511 43350 42900 42386 42267 42554 42842 43141 43386 43546 43478 43003 42570 42334 42379 42612 42937 43195 43389 43555 43199 42714 42380 42302 42482 42818 43098 43318 43360 42730 41997 41514 41267 41362 41715 42090 42396 42533 42132 41619 41246 41115 41219 41579 42000 42310 42569 42253 41727 41262 41083 41085 41235 41588 41960 42221 42062 41731 41363 41228 41186 41165 41437 41765 41891 41734 41503 41307 41204 41216 41245 41300 41480 41632 41413 41241 41233 41254 41322 41390 41357 41500 41648 41461 41436 41549 41586 41505 41450 41434 41443 41537 41494 41410 41398 41503 41576 41515 41352 41245 41142 40978 40902 40994 41274 41624 41702 41550 41374 41069 40733 40667 40772 41017 41343 41589 41602 41533 41243 40844 40793 40978 41287 41573 41741 41635 41417 41075 40644 40536 40712 40999 41345 41594 41809 41863 41688 41212 40980 41065 41319 41640 41966 42277 42310 41954 41338 40841 40748 40961 41301 41656 41955 42184 42050 41584 41096 40894 41262 41600 41890 42167 42440 42295 41798 41371 41177 41219 41549 41904 42195 42431 42603 42334 41954 41714 41728 41974 42329 42589 42889 42935 42562 42211 41947 41866 41935 42136 42395 42651 42688 42475 42296 42220 42296 42318 42558 42870 43009 43009 42885 42727 42570 42505 42501 42518 42720 43106 43393 43364 43151 43152 43232 43305 43348 43454 43621 43592 43427 43351 43332 43310 43240 43152 43034 43042 43074 43023 42999 43022 43138 43223 43223 43264 43375 43243 43175 43239 43397 43582 43631 43490 43346 43186 43127 43081 43162 43300 43419 43566 43563 43532 43493 43337 43245 43208 43357 43582 43775 43740 43588 43359 42928 42506 42419 42584 42858 43118 43327 43462 43397 42920 42422 42232 42393 42714 43019 43254 43193 42851 42172 41496 41360 41690 42077 42435 42622 42676 42426 41747 41087 40871 41056 41577 42064 42419 42595 42344 41734 40951 40519 40530 40841 41287 41684 41956 42086 41592 40955 40465 40526 41011 41285 41587 41954 42023 41363 40566 40062 39941 40220 40643 41030 41378 41683 41361 40725 40237 40023 40307 40770 41120 41448 41742 41405 40783 40398 40232 40290 40534 40937 41270 41591 41557 41024 40561 40308 40344 40614 40950 41316 41626 41482 40925 40357 40064 39895 40000 40347 40826 41169 41032 40708 40342 40131 40090 40104 40441 40858 41067 40957 40774 40530 40358 40256 40135 40100 40408 40777 40811 40768 40800 40873 40867 40810 40767 40944 41244 41228 41149 41206 41259 41164 41037 40998 41119 41434 41517 41429 41398 41524 41649 41785 41788 41788 41935 41842 41737 41783 41969 42059 42039 41947 41887 41825 41679 41637 41714 41937 42153 42268 42304 42279 42268 42184 42142 42188 42392 42669 42822 42858 42906 43064 43105 43019 42999 43007 43074 43160 43186 43199 43077 42817 42699 42715 42806 43064 43359 43409 43248 43041 42684 42430 42539 42668 42872 43124 43277 43315 43254 42910 42700 42736 42926 43187 43476 43599 43573 43408 43078 42751 42702 42832 43074 43317 43506 43614 43528 43136 42712 42601 42774 42967 43172 43401 43638 43468 42883 42319 42018 42036 42327 42634 42883 43120 43172 42725 42144 41746 41749 42067 42479 42818 43126 43198 42647 41995 41495 41329 41550 41936 42304 42629 42889 42615 41965 41486 41183 41230 41665 41905 42154 42394 42138 41544 41034 40697 40628 40836 41195 41564 41787 41521 41106 40791 40685 40571 40706 41123 41386 41690 41668 41344 41048 40873 40842 40944 41186 41496 41846 41653 41306 41125 40924 40911 40826 40909 41179 41299 41053 40935 40831 40714 40607 40551 40547 40782 40992 40837 40695 40712 40739 40682 40750 40793 41017 41183 41047 40977 41075 41172 41104 40941 40847 40946 41157 41171 41083 41097 41269 41165 41093 40920 40865 40787 40801 40878 40994 41213 41348 41239 41146 41121 41054 40871 40880 40979 41191 41485 41539 41668 41640 41574 41437 41398 41525 41767 42026 42112 42085 42013 41858 41736 41697 41781 41969 42161 42353 42402 42293 41993 41842 41858 41972 42200 42532 42825 42801 42608 42252 41854 41708 41800 42047 42342 42544 42726 42768 42582 42203 42058 42250 42559 42858 43078 43329 43334 43039 42566 42198 42225 42464 42729 42994 43265 43405 43091 42631 42268 42221 42466 42837 43083 43293 43414 43054 42739 42559 42542 42688 42924 43155 43348 43460 43229 42874 42725 42576 42693 43046 43301 43495 43723 43529 43134 42932 42881 42887 43011 43291 43546 43725 43424 43115 42845 42721 42634 42729 42982 43159 43243 43121 42864 42587 42366 42331 42353 42512 42765 42832 42716 42573 42615 42683 42710 42700 42762 42990 43044 42844 42704 42779 42784 42739 42667 42661 42801 42938 42753 42575 42561 42534 42468 42373 42281 42342 42307 42081 41948 42005 42357 42455 42355 42081 41908 41716 41573 41611 41807 42060 42300 42330 42299 42225 41919 41712 41715 41885 42189 42443 42527 42416 42243 41814 41563 41582 41694 41905 42106 42387 42420 42348 41844 41323 41160 41286 41492 41755 42063 42337 42494 41961 41374 41063 41151 41474 41798 42135 42476 42564 41968 41360 40963 41033 41363 41585 41862 42163 42264 41724 41073 40607 40555 40859 41248 41593 41889 42122 41748 41139 40730 40497 40628 40966 41176 41368 41508 41203 40846 40577 40423 40373 40495 40782 41167 41362 41133 40912 40730 40776 40747 40738 41087 41408 41487 41288 41176 41148 41123 41000 40935 41076 41340 41508 41391 41279 41355 41321 41359 41325 41356 41634 41698 41533 41472 41546 41579 41544 41458 41392 41439 41566 41405 41370 41405 41580 41728 41772 41845 41805 41685 41610 41552 41711 41949 42094 42161 42106 42051 41945 41835 41802 41914 41984 42184 42329 42374 42398 42175 41934 41978 42219 42545 42797 42944 42960 42875 42532 42078 41977 42177 42498 42767 42950 43158 43138 43081 42732 42581 42691 42985 43288 43560 43773 43811 43578 43151 42819 42723 42887 43077 43322 43531 43721 43556 43129 42733 42569 42767 43130 43393 43680 43856 43660 43142 42694 42501 42611 42880 43157 43443 43656 43775 43420 43032 42714 42692 42947 43236 43476 43740 43895 43546 43100 42708 42553 42656 42849 43041 43307 43488 43255 42785 42483 42304 42284 42544 42809 43023 43169 42956 42487 42090 41830 41778 41879 42169 42499 42766 42763 42452 42031 41732 41618 41628 41911 42184 42411 42468 42230 41983 41766 41697 41673 41722 41893 42159 42116 41751 41546 41439 41380 41400 41359 41512 41811 41625 41404 41343 41325 41422 41472 41408 41384 41625 41961 41907 41724 41640 41720 41675 41724 41659 41639 41748 41490 41223 41268 41485 41641 41636 41479 41411 41450 41273 41108 41082 41220 41390 41484 41513 41403 41338 41227 41107 41162 41354 41620 41722 41596 41400 41300 41213 41117 41150 41399 41636 41912 41974 41918 41791 41506 41222 41151 41279 41557 41815 41927 41873 41798 41669 41245 41024 41215 41508 41810 42138 42310 42312 42190 41713 41493 41522 41718 42003 42238 42335 42312 42251 41905 41597 41557 41757 42080 42392 42677 42911 42936 42582 42169 41998 42101 42308 42569 42893 43088 43086 42688 42146 41813 41820 42041 42374 42663 42908 43185 43214 42982 42765 42615 42692 42862 43069 43284 43501 43414 42959 42515 42298 42334 42578 42882 43160 43421 43598 43307 42903 42621 42581 42789 43054 43315 43582 43797 43471 42982 42550 42318 42395 42639 42940 43181 43345 43218 42790 42425 42250 42235 42472 42796 43065 43283 43264 43048 42739 42472 42278 42303 42573 42814 43149 43358 43285 42983 42700 42578 42538 42716 42890 43099 43162 42930 42748 42529 42302 42077 42116 42419 42733 42917 42687 42476 42376 42297 42314 42283 42453 42671 42626 42378 42223 42252 42290 42273 42280 42403 42601 42792 42622 42394 42225 42140 42029 41988 41921 42069 42270 42117 41945 41971 42048 42154 42085 41933 41848 42017 41951 41816 41793 42070 42252 42338 42332 42282 42391 42224 41969 41874 41972 42222 42444 42396 42214 42100 42130 42005 41932 41971 42131 42261 42330 42147 41971 41828 41606 41594 41752 41971 42191 42209 42159 42176 42293 42147 42024 42008 42093 42243 42358 42290 42193 41915 41490 41288 41330 41606 41873 42120 42216 42036 41741 41180 40942 41081 41422 41766 42047 42247 42245 42130 41716 41415 41370 41587 41897 42220 42435 42447 42270 41842 41384 41237 41420 41745 42048 42203 42427 42454 42142 41673 41403 41502 41781 42110 42421 42629 42643 42224 41580 41072 41002 41279 41651 42013 42233 42490 42310 41723 41248 41066 41278 41649 41949 42210 42455 42362 41693 41094 40686 40698 41105 41486 41843 42081 42284 41885 41429 41089 40996 41271 41587 41914 42192 42463 42142 41547 41066 40722 40658 41013 41429 41785 41863 41761 41214 40686 40466 40435 40707 41092 41525 41852 41756 41346 40919 40509 40185 40084 40401 40888 41342 41375 41148 40860 40659 40602 40577 40760 41080 41452 41389 41228 41073 40842 40563 40330 40315 40700 41141 41311 41152 41073 40935 40849 40925 40868 41012 41288 41351 41140 41095 41100 41018 40811 40510 40416 40715 41111 41097 41051 41139 41192 41147 41172 41138 41260 41360 41238 41146 41275 41377 41216 40872 40568 40506 40705 40757 40768 40882 41092 41224 41225 41196 41182 41257 41211 41176 41235 41461 41567 41391 41016 40688 40693 40777 40864 41054 41335 41616 41727 41745 41674 41583 41414 41438 41565 41742 42013 42075 41846 41553 41288 41208 41294 41470 41660 41850 42153 42154 42123 42028 41747 41604 41655 41816 42113 42357 42384 42244 42049 41647 41320 41351 41547 41776 42025 42245 42229 42153 41861 41378 41356 41561 41843 42118 42544 42675 42493 42176 41543 41191 41292 41568 41957 42276 42545 42586 42449 41982 41582 41635 41924 42231 42519 42817 42905 42730 42277 41805 41674 41896 42202 42460 42670 42919 42818 42314 41704 41393 41551 41960 42303 42613 42822 42802 42191 41533 41011 40995 41291 41717 42074 42420 42715 42337 41688 41195 41092 41466 41784 42094 42437 42733 42450 41708 41150 40851 40922 41251 41662 41997 42193 42251 41615 41071 40727 40815 41195 41500 41829 42144 42137 41425 40740 40254 40006 40235 40672 41099 41441 41638 41123 40454 40030 39846 40143 40577 40904 41241 41542 41085 40424 39864 39501 39503 39946 40433 40875 41194 40980 40534 40119 39999 40005 40340 40698 40992 41337 41308 40746 40275 40061 40051 40360 40828 41284 41553 41283 40809 40306 40092 40058 40140 40454 40748 40901 40766 40491 40226 39992 39824 39839 40165 40611 40917 40813 40670 40577 40463 40474 40419 40555 40851 41075 41029 40877 40730 40556 40437 40294 40222 40467 40883 40966 40835 40761 40695 40594 40581 40541 40706 40948 40863 40736 40710 40681 40548 40274 40031 40055 40391 40463 40423 40456 40518 40551 40487 40408 40349 40493 40552 40488 40603 40904 41124 41062 40882 40760 40808 40940 40999 41066 41143 41405 41417 41415 41375 41301 41258 41254 41352 41618 41906 42015 41938 41792 41652 41612 41653 41666 41784 41981 42211 42276 42246 42126 41797 41607 41690 41908 42158 42480 42629 42510 42425 42140 41884 41838 41995 42254 42484 42685 42783 42769 42449 42117 42106 42312 42608 42927 43151 43164 43062 42654 42183 42004 42118 42357 42652 42929 43110 43124 42839 42386 42129 42261 42568 42884 43174 43414 43440 43071 42587 42238 42238 42457 42764 43041 43247 43386 43083 42449 41938 41759 41973 42399 42728 43019 43197 42791 42032 41416 41177 41345 41677 42078 42415 42677 42535 41887 41364 41006 41053 41441 41765 42068 42390 42313 41667 41059 40792 40821 41046 41378 41728 42029 42042 41590 41079 40721 40609 40730 41045 41435 41753 41891 41546 41028 40666 40611 40635 40827 41162 41495 41635 41334 41004 40553 40428 40422 40579 40920 41283 41263 41023 40793 40622 40532 40562 40708 40904 41216 41194 40946 40824 40848 40662 40652 40612 40792 41110 41123 41025 41036 40922 40746 40659 40673 40788 41025 41090 40932 40858 40887 40951 40788 40747 40723 40902 40864 40673 40645 40818 40921 40829 40737 40692 40832 40762 40690 40709 40971 41258 41269 41192 41210 41185 40989 40856 40943 41244 41537 41651 41588 41481 41452 41273 41185 41242 41426 41700 41875 41894 41796 41706 41458 41378 41467 41695 42016 42203 42180 42037 41882 41624 41410 41382 41620 41939 42207 42456 42410 42241 41826 41605 41737 41956 42283 42676 42858 42801 42621 42202 41861 41797 41987 42266 42565 42919 43019 42857 42482 42177 42221 42442 42773 43085 43280 43283 43007 42509 42154 42000 42174 42474 42766 43029 43236 42991 42488 42077 41979 42259 42537 42873 43170 43438 43241 42671 42213 41983 41984 42303 42641 42957 43235 43298 42802 42289 41944 42008 42327 42582 42899 43186 42995 42359 41861 41617 41605 41739 42037 42330 42618 42558 42121 41574 41274 41200 41344 41674 41936 42167 42111 41703 41327 41107 41046 41052 41285 41708 42023 41934 41672 41389 41152 41229 41232 41428 41742 41878 41693 41531 41305 41117 41067 41034 41097 41353 41591 41451 41237 41061 40989 40870 40842 40903 41222 41061 40836 40828 40934 40960 40858 40838 40794 40856 40921 40877 40835 40871 41066 41120 41083 41054 41117 41004 40928 41009 41210 41268 41212 41045 40901 40777 40638 40561 40587 40750 40939 41041 40956 40998 40800 40509 40469 40593 40966 41376 41487 41357 41215 40972 40628 40594 40709 40937 41268 41545 41623 41438 41210 40800 40756 40907 41180 41548 41833 41845 41663 41260 40719 40424 40565 40869 41222 41595 41913 41834 41348 40848 40681 40912 41149 41496 41934 42216 42146 41631 41087 40670 40774 41152 41515 41907 42221 42449 42080 41682 41391 41497 41795 42022 42301 42618 42664 42111 41589 41289 41262 41419 41775 42076 42315 42417 42047 41584 41370 41370 41653 41968 42191 42457 42623 42237 41827 41570 41401 41441 41784 42150 42494 42621 42438 42179 41962 41963 42012 42305 42559 42724 42735 42538 42224 42061 41989 41942 41994 42244 42525 42461 42320 42233 42177 42200 42262 42349 42583 42611 42505 42554 42540 42486 42420 42281 42166 42298 42535 42586 42559 42600 42702 42686 42658 42580 42660 42684 42459 42412 42617 42782 42745 42568 42372 42305 42244 42186 42223 42370 42538 42602 42548 42499 42391 42156 42033 42092 42347 42696 42935 42836 42603 42220 41698 41564 41779 42087 42428 42672 42847 42784 42561 42065 41845 41931 42140 42454 42793 42918 42726 42145 41523 41154 41127 41424 41789 42086 42342 42428 41801 41114 40629 40718 40996 41286 41682 42074 42224 41588 40836 40337 40247 40498 40933 41345 41693 41968 41650 40930 40456 40254 40452 40782 41106 41422 41617 41111 40403 39908 39734 39826 40156 40632 41074 41115 40730 40175 39770 39644 39739 40077 40417 40793 40920 40732 40325 39996 39873 39907 39992 40315 40728 40826 40669 40599 40513 40394 40433 40396 40579 40699 40441 40294 40375 40405 40319 40269 40271 40352 40517 40429 40282 40332 40503 40479 40410 40430 40473 40507 40307 40288 40507 40785 40894 40779 40683 40619 40639 40667 40720 40833 41055 41337 41384 41297 41169 40893 40721 40739 40960 41326 41629 41664 41518 41344 40926 40604 40583 40792 41045 41415 41727 41747 41639 41215 40983 41084 41326 41635 42006 42263 42245 42069 41665 41392 41365 41613 41875 42139 42454 42649 42541 42107 41738 41711 41919 42184 42510 42894 43073 42763 42173 41752 41625 41718 41998 42276 42574 42872 42757 42232 41891 41779 42012 42270 42529 42824 43081 42949 42427 41946 41659 41639 41909 42236 42525 42809 42925 42550 42139 41915 41827 42057 42282 42481 42743 42732 42309 41841 41573 41551 41745 42074 42375 42615 42540 42320 42111 42086 42072 42232 42497 42679 42850 42754 42526 42279 42040 41847 41777 41946 42272 42549 42463 42318 42222 42083 42049 41978 42029 42175 42144 41922 41975 41922 41795 41717 41696 41785 41975 42063 41930 41797 41814 41910 41867 41827 41821 41978 41916 41781 41833 42053 42096 41979 41836 41797 41906 42051 42114 42113 42118 42251 42205 41953 41817 41637 41369 41255 41296 41515 41837 41990 41819 41535 41282 41021 40869 40947 41219 41548 41786 41838 41680 41427 40938 40712 40834 41130 41506 41833 41884 41634 41199 40693 40568 40747 41055 41375 41690 41851 41747 41358 40871 40692 40774 41046 41349 41634 41783 41616 40946 40181 39905 40098 40492 40853 41238 41510 41640 41083 40390 39909 40001 40388 40745 41081 41452 41783 41343 40625 40077 39974 40248 40722 41143 41429 41666 41459 40820 40333 40099 40217 40618 40927 41208 41438 41029 40445 40066 39897 39989 40355 40783 41247 41402 41089 40686 40332 40187 40152 40313 40708 41065 41222 41142 40781 40482 40282 40212 40275 40601 41033 41281 41194 41017 40951 40861 40876 40828 41047 41300 41186 40964 41019 41103 41009 40857 40690 40744 41033 41087 40959 40956 41010 41040 41022 40992 41005 41106 40983 40963 41106 41388 41522 41455 41309 41202 41181 41163 41233 41325 41480 41784 42125 42142 41986 41736 41554 41441 41451 41712 42034 42117 41983 41764 41536 41240 41291 41497 41687 41902 42178 42192 42121 41777 41430 41449 41606 41847 42226 42516 42531 42325 41831 41322 41210 41434 41711 42049 42359 42567 42573 42176 41684 41535 41708 42089 42367 42644 42967 43072 42796 42403 42137 42108 42317 42644 42979 43192 43420 43069 42478 41997 41877 42051 42318 42606 42886 42968 42324 41694 41319 41242 41462 41790 42060 42368 42448 41946 41437 41149 41130 41414 41771 42065 42326 42554 42102 41396 40910 40736 40799 41128 41524 41854 42105 41883 41354 40920 40691 40663 40853 41214 41533 41497 41203 40821 40362 40022 39924 40091 40462 40894 40960 40709 40467 40227 40039 39994 40077 40395 40722 40621 40493 40419 40271 40050 39960 40026 40342 40781 40929 40749 40661 40663 40585 40550 40492 40586 40793 40722 40585 40651 40748 40723 40480 40292 40214 40579 40827 40754 40791 40992 41142 41120 41030 40940 40793 40592 40547 40516 40663 41008 41226 41134 40958 40769 40544 40419 40492 40740 41085 41369 41304 41126 40727 40378 40357 40531 40781 41098 41356 41421 41262 40789 40373 40422 40598 40971 41357 41666 41810 41705 41274 40733 40675 40950 41210 41477 41780 41902 41691 41025 40432 40330 40623 41031 41425 41763 42047 42144 41780 41271 41041 41197 41494 41781 42080 42276 42248 41788 41236 40903 40992 41361 41768 42112 42381 42593 42211 41643 41224 41187 41502 41978 42265 42479 42529 42019 41432 40975 40988 41373 41775 42174 42459 42486 42086 41610 41336 41281 41493 42009 42291 42502 42596 42263 41934 41725 41600 41593 41838 42186 42460 42428 42218 42009 41911 41879 41970 42236 42442 42598 42534 42349 42167 41947 41818 41712 41797 42140 42522 42574 42454 42385 42304 42223 42177 42176 42379 42561 42410 42308 42298 42300 42166 42027 41934 41983 42179 42078 41976 41963 42081 42103 42152 42111 42219 42196 42026 41972 42124 42226 42188 42015 41884 41764 41757 41764 41810 41935 42093 42234 42172 42081 41958 41740 41613 41669 41866 42154 42274 42109 41801 41527 41312 41282 41376 41570 41775 41986 41996 41831 41603 41017 40696 40800 41033 41354 41663 41813 41691 41334 40656 40271 40378 40749 41147 41473 41761 41708 41460 40713 40240 40298 40657 41035 41364 41687 41766 41396 40610 40131 40157 40543 41012 41429 41706 41962 41631 40941 40272 40093 40359 40815 41182 41499 41787 41404 40666 40063 39872 40189 40591 41006 41378 41543 41322 40552 40000 39772 39794 40206 40588 40945 41205 40909 40312 39835 39606 39578 39798 40221 40626 40905 40669 40390 40122 40072 40083 40217 40597 40852 41021 40853 40756 40577 40435 40315 40321 40561 40955 41286 41209 40976 40953 40870 40875 40833 40880 41106 41156 40973 40950 41078 41143 41133 41013 40903 40923 40939 40811 40887 41020 41232 41427 41503 41510 41450 41339 41228 41348 41544 41867 42055 42030 41905 41759 41591 41555 41651 41894 42149 42290 42438 42426 42415 42075 41844 41897 42073 42325 42649 42834 42824 42644 42199 41758 41690 41924 42262 42581 42771 42965 42818 42336 41845 41780 42064 42415 42718 42978 43190 43045 42534 41987 41710 41791 42164 42522 42897 43123 43345 43000 42515 42201 42133 42344 42645 42909 43161 43221 42664 42116 41749 41663 41905 42208 42522 42810 42823 42391 41887 41650 41497 41537 41839 42116 42384 42532 42286 41891 41544 41437 41528 41880 42172 42539 42766 42487 42092 41703 41586 41490 41497 41674 42013 42025 41752 41519 41263 41023 40899 40867 41159 41518 41589 41365 41184 41149 41121 41150 41169 41229 41491 41532 41307 41234 41270 41218 41052 40915 40860 41156 41407 41396 41296 41265 41372 41232 41097 40995 41015 40886 40827 40813 41032 41238 41152 40918 40714 40779 40767 40605 40633 40786 40974 41095 40963 40911 40842 40687 40594 40699 40927 41277 41459 41303 41051 40802 40627 40625 40720 40940 41211 41525 41660 41534 41349 40909 40640 40684 40936 41249 41564 41581 41392 41194 40741 40383 40394 40601 40825 41131 41343 41298 41096 40486 40102 40266 40539 40857 41209 41512 41536 41310 40720 40235 40174 40488 40863 41176 41449 41670 41486 41020 40559 40441 40739 41094 41422 41740 41873 41579 40914 40388 40145 40297 40701 41129 41409 41648 41519 40901 40309 40028 40200 40645 41039 41328 41657 41577 40919 40347 40071 40051 40480 40979 41397 41656 41796 41444 41011 40708 40629 40899 41231 41576 41877 41884 41335 40808 40536 40431 40493 40903 41356 41648 41577 41251 40849 40664 40626 40713 41067 41322 41496 41365 41229 41072 40912 40824 40794 40807 41067 41443 41387 41234 41177 41101 41052 41094 41174 41464 41660 41582 41565 41636 41654 41564 41519 41395 41421 41646 41626 41523 41502 41586 41591 41616 41628 41739 41743 41637 41612 41780 42018 42111 42017 41892 41727 41442 41346 41440 41713 41997 42228 42267 42182 42074 41837 41797 41951 42220 42530 42655 42593 42380 42139 41800 41705 41855 42117 42357 42540 42613 42524 42267 41770 41510 41711 42042 42358 42668 42749 42593 42049 41351 40985 41141 41588 41977 42303 42526 42581 42195 41557 41112 41180 41696 41989 42284 42526 42515 41910 41254 40865 40968 41436 41892 42207 42456 42550 41945 41177 40573 40435 40797 41239 41578 41943 42009 41288 40543 40069 39992 40294 40806 41279 41645 41712 41227 40728 40395 40325 40505 40912 41283 41622 41605 41156 40671 40326 40135 40162 40531 40981 41366 41267 40877 40501 40143 40094 40116 40325 40711 40777 40506 40413 40241 40099 39954 39907 40111 40508 40635 40373 40217 40153 40073 40076 40072 40150 40323 40300 40260 40389 40584 40567 40402 40233 40246 40419 40573 40546 40559 40681 40789 40751 40738 40663 40630 40560 40481 40597 40929 41069 40931 40786 40644 40540 40364 40387 40478 40692 40925 40968 40876 40711 40346 40259 40441 40774 41168 41443 41470 41344 41160 40803 40587 40643 40986 41326 41609 41861 42009 41791 41286 41000 41147 41334 41609 41984 42355 42286 41697 41015 40649 40729 41137 41549 41840 42112 42232 41787 41249 40919 41057 41411 41789 42103 42479 42711 42089 41461 40956 40873 41060 41503 41879 42207 42400 42172 41751 41594 41549 41685 41996 42338 42604 42623 42182 41737 41447 41384 41435 41679 42059 42360 42301 42038 41816 41695 41740 41826 42147 42483 42457 42255 42185 42109 41981 41868 41830 41982 42312 42513 42404 42376 42356 42395 42410 42378 42379 42624 42632 42515 42524 42646 42682 42557 42430 42367 42538 42564 42512 42448 42529 42655 42754 42692 42684 42549 42316 42185 42210 42466 42751 42857 42722 42483 42222 42066 42138 42312 42504 42727 42881 42834 42662 42264 41940 41989 42162 42448 42753 42934 42813 42494 41855 41345 41286 41563 41883 42179 42448 42591 42280 41612 40985 40824 41264 41543 41834 42110 42345 41869 41073 40444 40181 40333 40764 41286 41642 41937 41772 40959 40376 40074 40132 40478 40844 41182 41502 41187 40513 40020 39771 39786 40002 40429 40856 40958 40576 40173 39778 39709 39740 39947 40275 40548 40344 40123 39907 39728 39649 39660 39770 40117 40537 40506 40274 40201 40206 40108 40149 40078 40226 40348 40177 40079 40247 40359 40249 39992 39794 39773 39778 39842 39872 40030 40295 40433 40285 40260 40059 39807 39719 39851 40173 40629 40833 40710 40470 40177 39880 39927 40175 40485 40793 41073 41101 40910 40551 40142 40159 40408 40733 41106 41477 41551 41296 40617 39974 39830 40208 40664 41032 41395 41675 41485 40827 40378 40346 40796 41096 41413 41777 42092 41830 41223 40737 40584 40720 41125 41510 41813 42118 42059 41569 41293 41129 41251 41564 41875 42176 42380 42106 41667 41366 41180 41190 41442 41840 42171 42266 42059 41810 41579 41601 41614 41834 42177 42393 42280 42295 42160 42061 41987 41997 42085 42259 42556 42490 42400 42412 42411 42418 42401 42401 42594 42680 42625 42636 42796 42848 42747 42576 42452 42496 42454 42468 42474 42595 42766 42782 42732 42719 42618 42477 42473 42565 42822 43110 43203 43108 42898 42561 42279 42264 42548 42804 42975 43256 43253 43077 42649 42196 42145 42393 42691 42997 43188 43127 42706 41948 41347 41297 41668 42045 42365 42602 42728 42177 41419 40781 40602 41027 41400 41699 42032 42223 41724 40897 40277 40017 40334 40884 41311 41659 41908 41529 40854 40368 40163 40216 40575 40927 41212 41203 40756 40243 39840 39636 39580 39803 40347 40707 40471 40215 39940 39797 39767 39756 39888 40321 40448 40306 40173 40076 39998 39772 39603 39434 39598 39948 40028 40025 40165 40385 40408 40206 40008 39756 39544 39695 39915 40213 40520 40561 40348 40025 39493 39036 39207 39600 40058 40490 40870 41008 40841 40264 39632 39757 40246 40544 40819 41175 41365 41281 40811 40297 40256 40606 40919 41424 41783 42063 41894 41370 40808 40507 40653 41047 41314 41551 41856 41543 41054 40627 40407 40502 40843 41213 41623 41890 41739 41571 41327 41270 41331 41554 41905 42136 42109 41990 41885 41706 41555 41431 41406 41650 41814 41796 41748 41699 41695 41532 41423 41430 41718 41900 41884 41945 42170 42358 42300 42110 41788 41693 41654 41835 41980 42241 42506 42782 42785 42803 42550 42288 42399 42486 42663 42978 43172 43064 42748 42335 42150 42243 42585 42873 43202 43401 43628 43487 43028 42555 42431 42672 42910 43191 43465 43607 43096 42404 41820 41708 41984 42394 42724 43006 43114 42752 42212 41866 41721 42045 42382 42622 42882 43105 42584 41891 41301 41056 41223 41680 42127 42488 42537 42163 41637 41384 41235 41201 41420 41742 41883 41648 41330 41047 40698 40468 40409 40712 41172 41298 41083 40966 40894 40897 40957 40943 41076 41320 41142 40980 41083 41296 41270 41036 40747 40770 41044 41128 41114 41163 41286 41307 41144 41061 40883 40611 40487 40498 40743 41171 41323 41117 40812 40494 40040 39950 40193 40509 40879 41162 41215 41074 40679 40063 39908 40216 40620 40985 41350 41468 41229 40559 40013 39895 40205 40695 41072 41405 41600 41462 40835 40293 39974 40213 40609 40917 41230 41577 41230 40508 39896 39666 39849 40298 40762 41141 41319 41037 40640 40418 40364 40447 40763 41089 41394 41561 41335 40977 40609 40479 40502 40711 41140 41587 41653 41438 41311 41143 41171 41129 41208 41569 41681 41531 41459 41438 41396 41242 41056 40947 41036 41128 41040 41154 41326 41498 41536 41532 41500 41560 41548 41588 41690 41926 42097 41990 41746 41573 41486 41532 41717 41966 42199 42458 42642 42651 42624 42216 41931 42049 42232 42500 42809 42932 42876 42583 42022 41592 41607 41926 42238 42569 42845 42944 42685 42245 41934 42083 42430 42739 42997 43252 43339 42887 42371 41961 41912 42205 42559 42863 43088 43255 42886 42467 42147 42074 42174 42487 42858 43133 43120 42692 42266 41937 41811 41911 42262 42607 42889 42775 42359 42044 41809 41718 41713 41857 42154 42258 42099 42013 41897 41778 41570 41433 41507 41779 41752 41665 41601 41685 41685 41584 41494 41466 41583 41436 41386 41533 41884 42089 42011 41762 41516 41302 41212 41395 41665 41918 42076 42184 42080 41894 41444 41239 41266 41535 41872 42183 42245 42045 41546 40841 40585 40823 41225 41605 41855 42106 42048 41504 40809 40473 40743 41114 41454 41807 42131 42133 41429 40738 40336 40366 40731 41162 41564 41883 42051 41522 40869 40509 40472 40730 41145 41507 41823 41705 41052 40448 40170 40149 40376 40782 41136 41445 41208 40913 40608 40412 40384 40492 40813 41170 41316 41218 41029 40768 40551 40449 40462 40721 41076 41226 41133 41085 41169 41156 41185 41191 41299 41501 41438 41366 41450 41610 41564 41397 41266 41302 41382 41302 41293 41323 41501 41658 41689 41749 41692 41493 41446 41490 41747 42035 42266 42310 42189 42072 41784 41605 41672 41909 42201 42437 42645 42658 42449 42052 41856 41971 42307 42686 42981 43122 43045 42553 41996 41684 41717 41981 42320 42618 42871 42999 42522 42027 41680 41743 42193 42484 42786 43110 43177 42688 42201 41886 41824 42054 42352 42663 42943 43038 42737 42316 42043 41979 42159 42490 42788 43018 42896 42462 42067 41835 41723 41746 42022 42301 42491 42301 42068 41821 41605 41477 41455 41731 42067 42122 41991 41971 42002 41960 41869 41763 41760 41990 42067 41975 41941 42113 42234 42158 42052 42037 42137 42056 41975 42029 42188 42223 42033 41807 41664 41652 41517 41506 41582 41771 41986 41897 41766 41634 41295 41184 41263 41449 41782 42139 42287 42119 41810 41315 41025 41159 41502 41849 42208 42398 42375 42081 41445 41063 41222 41464 41786 42118 42382 42385 41691 40842 40332 40259 40612 41075 41451 41827 41994 41352 40690 40227 40197 40551 41030 41384 41691 41837 41266 40552 40038 39941 40310 40865 41360 41727 41826 41377 40671 40295 40133 40356 40712 41006 41256 41165 40755 40329 40021 39943 40094 40505 41055 41377 41109 40903 40701 40579 40574 40628 40970 41230 41261 41078 40905 40735 40523 40430 40479 40759 41213 41551 41457 41280 41309 41245 41120 41014 41005 41153 41107 40938 40962 41160 41242 41189 41102 41165 41312 41047 40933 41145 41449 41755 41849 41943 41991 41810 41526 41394 41465 41714 42068 42497 43006 43346 43433 43412 43311 43351 43473 43640 43827 44079 44263 44094 44054 43962 44089 44308 44530 44655 44937 44759 44440 44197 44028 44038 44064 44266 44496 44827 44873 44577 44546 44384 44322 44323 44295 44319 44245 43929 43631 43447 43459 43580 43804 44184 44491 44581 44494 44085 43655 43379 43256 43315 43448 43649 43561 43243 42955 42750 42649 42732 42890 43101 43206 42892 42621 42294 42132 42048 42036 42207 42383 42394 42236 42078 41912 41728 41662 41708 41887 42124 42238 42008 41773 41738 41583 41521 41453 41465 41637 41554 41373 41368 41412 41398 41239 41128 41150 41244 41144 40998 40912 41022 41161 41082 41055 40952 40761 40560 40480 40618 40935 41203 41189 41031 40851 40593 40509 40635 40910 41159 41423 41502 41387 41138 40749 40548 40768 41093 41364 41661 41777 41661 41277 40703 40358 40393 40647 40942 41242 41496 41551 41050 40421 39983 40023 40430 40833 41161 41560 41584 40849 40118 39760 39939 40288 40715 41059 41335 41464 40948 40465 40125 40242 40602 40944 41263 41608 41808 41318 40673 40282 40225 40522 40946 41296 41559 41508 41109 40694 40506 40473 40768 41108 41370 41664 41778 41439 41053 40837 40797 40849 41131 41448 41739 41617 41454 41297 41087 41148 41163 41432 41755 41728 41583 41508 41371 41259 41193 41102 41289 41653 41666 41485 41442 41477 41420 41531 41593 41862 42069 41931 41862 41950 42009 41950 41873 41795 41871 42152 42261 42276 42313 42415 42508 42442 42391 42322 42244 42139 42125 42305 42583 42591 42512 42401 42247 41948 41929 42064 42276 42511 42782 42850 42847 42660 42286 42231 42399 42589 42832 43074 43197 43100 42726 42186 42116 42358 42671 42979 43171 43378 43321 42919 42472 42238 42430 42726 42978 43237 43421 43104 42458 41820 41520 41691 42080 42449 42759 42963 42680 42005 41472 41195 41413 41764 42049 42347 42630 42358 41608 40911 40521 40568 40943 41402 41770 42081 41847 41313 40930 40816 40801 41052 41448 41749 41811 41503 41057 40664 40468 40391 40580 40998 41354 41214 40930 40681 40482 40396 40372 40499 40898 41023 40763 40642 40701 40653 40468 40287 40254 40578 40768 40717 40733 40882 41011 40950 40942 40838 40876 40787 40800 40917 41197 41391 41271 41056 40947 41036 41110 41173 41229 41366 41591 41651 41558 41483 41110 40866 40858 41088 41379 41690 41778 41588 41364 40841 40486 40547 40879 41248 41566 41835 41813 41510 40980 40670 40843 41221 41536 41870 42136 42089 41617 40927 40557 40754 41197 41629 41959 42172 42308 41915 41465 41143 41264 41701 42013 42278 42600 42596 41999 41398 40962 40907 41193 41656 42007 42288 42237 41747 41293 41106 41121 41444 41908 42198 42406 42203 41774 41427 41234 41226 41366 41891 42315 42579 42462 42229 42027 42012 42052 42118 42404 42643 42641 42562 42426 42286 42141 41929 41744 41967 42283 42296 42302 42306 42370 42413 42473 42487 42553 42574 42410 42329 42437 42652 42807 42764 42608 42412 42378 42395 42509 42730 42986 43152 43212 43201 43108 42886 42771 42792 42939 43196 43378 43355 43235 42950 42590 42520 42575 42748 43026 43313 43438 43342 42955 42332 42123 42214 42424 42737 43128 43302 43086 42369 41652 41569 41932 42324 42665 42945 43218 43102 42468 41901 41558 41710 41999 42238 42502 42796 42502 41832 41238 40903 41017 41408 41804 42158 42415 42019 41387 40809 40568 40524 40758 41134 41435 41407 41120 40731 40253 39940 39910 40133 40597 41037 40946 40702 40545 40394 40345 40316 40393 40762 40878 40673 40576 40594 40524 40295 40120 40182 40553 40826 40812 40705 40769 40810 40744 40706 40602 40575 40425 40404 40451 40740 40908 40780 40474 40235 40130 40031 40051 40277 40577 40814 40936 40820 40618 40133 39950 40148 40474 40814 41180 41270 41100 40730 40282 40182 40390 40728 41067 41399 41675 41709 41511 40980 40712 40890 41229 41512 41816 42065 41950 41402 40824 40580 40752 41088 41410 41722 41958 41774 41189 40586 40233 40369 40873 41381 41686 41987 41808 41224 40568 40211 40217 40531 40943 41363 41727 41674 41407 41144 41008 41080 41219 41556 41852 41957 41899 41762 41584 41404 41317 41380 41665 42050 42259 42169 42076 42099 42133 42180 42162 42270 42349 42190 42073 42184 42312 42283 42036 41736 41671 41723 41715 41792 41971 42205 42347 42380 42364 42322 42140 42143 42251 42465 42746 43013 42959 42758 42403 42159 42139 42305 42614 42897 43188 43282 43165 42863 42481 42374 42592 42862 43135 43455 43526 43301 42717 42152 42021 42282 42638 42899 43117 43275 43024 42433 41902 41725 42106 42366 42622 42909 43023 42612 41904 41332 41118 41368 41804 42125 42448 42663 42315 41641 41113 40845 40961 41409 41739 41983 42194 41777 41140 40646 40327 40482 40938 41390 41717 41677 41201 40695 40352 40191 40124 40553 41024 41177 41021 40773 40525 40222 40089 40099 40371 40860 41176 41022 40830 40687 40625 40593 40598 40691 41023 40947 40799 40870 40903 40839 40668 40576 40650 40899 40901 40816 40786 40859 40895 40754 40725 40687 40677 40541 40516 40760 40959 40953 40678 40387 40412 40400 40452 40622 40858 41127 41293 41167 41140 40939 40805 40791 40949 41273 41581 41638 41503 41287 40961 40781 40843 40998 41218 41476 41602 41527 41355 40843 40449 40664 41025 41384 41734 41868 41794 41368 40521 40220 40425 40870 41263 41687 42026 42181 41834 41332 40920 41013 41470 41792 42104 42400 42448 41926 41281 40865 40894 41292 41713 42048 42316 42360 41903 41442 41184 41191 41602 41955 42223 42528 42423 41827 41303 40938 40882 41146 41574 41940 42168 42005 41595 41271 41212 41287 41634 41987 42257 42377 42192 41840 41404 41104 40930 41031 41354 41740 41882 41798 41709 41593 41591 41611 41613 41922 42316 42248 42156 42060 41943 41635 41406 41339 41574 41762 41685 41694 41817 41848 41776 41776 41756 41952 42040 42018 42102 42319 42394 42238 42011 41886 41893 41828 41892 42054 42272 42496 42600 42591 42590 42354 42200 42319 42550 42848 43073 43025 42741 42423 41987 41727 41806 42082 42365 42621 42758 42711 42515 41997 41678 41894 42256 42537 42864 42949 42768 42124 41447 41089 41285 41738 42120 42461 42798 42852 42369 41838 41478 41568 41918 42274 42572 42886 42970 42387 41709 41193 41161 41492 41873 42213 42514 42561 41955 41290 40882 40868 41420 41775 42029 42289 42146 41544 40962 40594 40523 40765 41316 41757 42097 41958 41575 41086 40862 40713 40740 41107 41506 41660 41571 41257 40918 40627 40491 40560 40943 41517 41752 41470 41217 40968 40849 40864 40934 41215 41427 41233 41101 41086 41022 40853 40612 40432 40593 40862 40813 40771 40856 40962 40958 40926 40822 40867 40989 40946 40984 41154 41258 41076 40775 40577 40599 40841 40931 41042 41134 41346 41417 41328 41216 41094 40892 40919 41090 41310 41603 41676 41480 41192 40995 40706 40664 40826 41078 41383 41688 41762 41694 41428 40902 40780 41039 41383 41682 41915 41871 41574 41021 40427 40342 40704 41044 41403 41704 41941 41941 41525 40998 40794 41194 41592 41919 42210 42258 42050 41368 40811 40669 40994 41461 41808 42036 42321 42340 41804 41316 41062 41203 41604 41957 42251 42443 42089 41358 40760 40495 40656 41081 41468 41837 42135 42002 41529 41194 41010 41121 41561 41859 42068 42326 41962 41398 40948 40712 40746 41138 41644 41992 42155 41922 41533 41260 41153 41148 41408 41789 42015 42085 41940 41724 41410 41154 41031 41081 41354 41719 41822 41641 41552 41406 41377 41335 41380 41759 41972 41749 41611 41560 41492 41301 41025 40911 41152 41356 41320 41309 41404 41382 41235 41217 41163 41492 41653 41595 41659 41875 41967 41824 41510 41236 41246 41470 41550 41616 41735 41913 41913 41816 41758 41631 41511 41530 41620 41791 42007 42160 42079 41750 41336 40955 40992 41207 41519 41750 41961 41975 41994 41694 41365 41451 41633 41928 42281 42471 42381 42148 41579 41173 41207 41504 41848 42097 42333 42404 42259 41730 41223 41104 41327 41703 42051 42259 42198 41736 40894 40251 40185 40551 40963 41378 41747 42008 41702 41053 40500 40320 40659 41100 41420 41781 41984 41608 40900 40360 40144 40402 40852 41250 41586 41866 41690 41004 40472 40204 40351 40754 41126 41417 41500 40809 40057 39632 39517 39814 40378 40837 41205 41220 40795 40353 40099 40017 40243 40674 41079 41374 41392 40838 40245 39870 39734 39836 40219 40712 41112 40977 40691 40394 40242 40200 40203 40439 40804 40925 40719 40538 40352 40142 39945 39815 39928 40302 40398 40248 40239 40268 40282 40293 40244 40290 40491 40488 40460 40504 40513 40344 39979 39692 39721 40069 40278 40419 40543 40808 40983 40982 40934 40868 40750 40724 40861 41007 41306 41425 41160 40769 40524 40604 40752 40853 41037 41283 41559 41524 41575 41369 40929 40946 41098 41272 41583 41824 41780 41531 41048 40515 40364 40564 40946 41321 41660 41837 41814 41482 40968 40900 41276 41598 41942 42210 42287 42125 41567 41096 40992 41295 41672 42005 42210 42437 42342 41777 41293 41059 41284 41708 42017 42343 42556 42177 41415 40826 40629 40807 41201 41585 41910 42240 42098 41594 41113 40777 41106 41631 41875 42157 42439 42102 41511 40932 40624 40693 41112 41570 41953 42108 41847 41542 41450 41295 41225 41431 41644 41882 41820 41570 41256 40889 40617 40552 40760 41147 41467 41318 41201 41124 41053 41027 40956 41099 41438 41567 41402 41362 41305 41083 40836 40697 40695 41073 41389 41432 41350 41368 41420 41327 41291 41244 41299 41161 41033 41094 41384 41448 41248 40883 40546 40275 40219 40376 40607 40910 41273 41344 41334 41237 40862 40700 40849 41058 41384 41625 41579 41187 40767 40299 40094 40262 40655 41048 41347 41594 41597 41121 40478 40054 40182 40586 40867 40952 41270 41365 40680 39890 39467 39541 39962 40449 40880 41227 41389 40845 40186 39795 39887 40294 40716 41034 41346 41314 40583 39758 39218 39084 39399 39898 40408 40808 40940 40570 40122 39999 39991 40095 40456 40844 41068 40930 40688 40445 40187 39950 39817 39970 40325 40596 40488 40392 40340 40263 40226 40187 40393 40786 40799 40899 41017 40997 40939 40792 40532 40387 40493 40473 40561 40697 40953 41235 41269 41279 41189 41083 40973 41043 41244 41488 41611 41466 41181 40909 40721 40752 40971 41308 41594 41752 41840 41744 41510 41142 41088 41289 41649 41947 42170 42123 41824 41239 40644 40460 40719 41179 41601 41831 42034 42040 41721 41249 41058 41340 41619 41885 42179 42421 42295 41552 40801 40433 40602 41040 41419 41622 41938 41858 41277 40777 40484 40610 41071 41397 41591 41799 41501 40840 40201 39860 40017 40450 41005 41516 41834 41644 41237 40863 40705 40625 40802 41209 41563 41622 41367 40992 40613 40295 40041 40136 40496 40885 40876 40812 40814 40748 40681 40580 40523 40884 41206 41168 41071 41118 40999 40690 40447 40305 40603 41080 41259 41210 41111 41151 41124 41148 41120 41213 41270 41047 40985 41192 41270 41078 40647 40284 40298 40381 40373 40496 40706 41036 41171 41114 41017 40886 40755 40701 40855 41210 41480 41489 41161 40775 40530 40431 40493 40716 41046 41341 41471 41263 40991 40475 40245 40540 40921 41216 41401 41307 41126 40788 40197 39891 40090 40409 40721 41033 41428 41479 41327 40621 40218 40375 40709 40947 41304 41565 41540 41030 40291 39883 39948 40304 40731 41109 41448 41547 41068 40439 40033 40135 40575 40988 41281 41540 41462 40716 39885 39471 39571 40058 40588 41007 41300 41448 40996 40489 40143 40241 40625 40950 41280 41635 41780 41157 40484 39899 39722 40082 40510 40934 41287 41386 40946 40447 40223 40130 40315 40693 41086 41378 41255 40715 40140 39677 39449 39592 40102 40571 40913 40856 40700 40417 40336 40318 40320 40693 41179 41334 41183 40964 40678 40480 40388 40377 40684 41136 41430 41273 41157 41045 40950 40965 40921 41104 41376 41225 41058 41090 41177 41159 40895 40608 40548 40728 40824 40879 40918 40908 41003 40883 40857 40871 41120 41152 41214 41368 41679 41897 41741 41362 41017 40953 40984 41087 41347 41575 41730 41631 41438 41162 40923 40972 41234 41524 41909 42061 41905 41546 41134 40683 40562 40819 41146 41448 41735 41868 41815 41595 41052 40952 41313 41705 41976 42259 42406 42238 41747 41122 40842 40974 41415 41753 42008 42269 42275 41818 41246 40879 41120 41507 41787 42048 42220 42060 41216 40301 39736 39784 40225 40711 41138 41497 41717 41184 40534 40044 39927 40426 40880 41209 41488 41489 40780 39969 39377 39081 39224 39728 40220 40641 40730 40313 39814 39497 39374 39375 39918 40419 40674 40440 40002 39516 39089 38759 38749 39179 39765 40293 40247 40043 39868 39684 39671 39569 39744 40250 40448 40279 40155 39963 39660 39286 39018 39112 39619 39891 39753 39691 39725 39740 39698 39706 39694 39996 39903 39760 39858 39949 39825 39443 39081 39020 39388 39634 39780 39932 40141 40322 40286 40278 40216 40120 40104 40149 40313 40538 40618 40393 40036 39600 39357 39370 39523 39828 40146 40397 40558 40373 40202 39640 39488 39930 40218 40521 40816 40808 40489 39912 39175 39039 39428 39975 40479 40811 41138 41265 41154 40741 40377 40423 40809 41176 41525 41714 41760 41349 40595 39958 39906 40241 40618 41018 41327 41583 41097 40409 39799 39635 40149 40733 41032 41299 41442 40906 40114 39460 39371 39866 40434 40929 41323 41629 41390 40891 40551 40419 40655 41076 41398 41692 41850 41408 40829 40342 40088 40216 40622 41036 41433 41371 41079 40710 40601 40527 40639 41050 41432 41610 41404 41076 40711 40368 40052 40082 40533 41067 41465 41322 41233 41100 40967 40971 40973 41158 41524 41581 41417 41361 41312 41147 40882 40597 40728 41103 41190 41115 41043 41099 41066 41070 40999 41010 41143 41155 41131 41238 41321 41197 40893 40577 40593 40916 41016 41143 41223 41440 41565 41534 41457 41326 41193 41172 41277 41468 41766 41854 41679 41344 41058 40946 41037 41138 41311 41606 41872 41904 41856 41568 41119 41022 41240 41462 41751 42020 41982 41685 41130 40576 40481 40713 40985 41303 41579 41809 41818 41508 40867 40453 40592 40956 41304 41609 41794 41688 40986 40078 39710 39908 40331 40757 41139 41454 41576 41044 40412 39954 40179 40576 40788 41077 41427 41619 41033 40285 39770 39816 40203 40721 41176 41427 41611 40962 40327 39873 39850 40207 40638 40955 41253 41167 40376 39690 39315 39420 39915 40412 40828 41034 41039 40409 39857 39515 39566 39978 40379 40677 40979 40769 40107 39661 39450 39487 39844 40321 40746 41075 40928 40465 39993 39809 39798 39942 40186 40578 40792 40539 40098 39649 39456 39463 39579 39998 40491 40627 40298 40087 39841 39846 39902 40046 40501 40855 40858 40686 40443 40122 39934 39900 39992 40289 40616 40834 40752 40637 40582 40480 40486 40498 40653 40927 40843 40611 40495 40561 40604 40331 40205 40412 40750 40653 40638 40668 40758 40834 40756 40662 40665 40749 40715 40722 40885 41015 40823 40622 40447 40541 40848 41025 41162 41271 41362 41644 41833 42029 42012 41642 41306 41225 41325 41519 41663 41670 41546 41439 41220 40918 40896 41050 41272 41548 41666 41672 41580 41135 40970 41171 41391 41680 41925 41926 41813 41686 41383 41170 41203 41427 41727 41957 42158 42106 41914 41365 41005 41191 41505 41784 42095 42239 42147 41798 41191 40836 40835 41156 41535 41801 42078 42247 42038 41435 40933 40963 41282 41580 41805 42023 41962 41512 40866 40514 40617 40958 41321 41664 41932 42030 41392 40719 40220 40151 40499 40910 41311 41652 41660 40893 40129 39747 39787 40113 40622 41016 41310 41471 41073 40457 40009 39906 40249 40502 40728 40987 41172 40729 40194 39939 39949 40105 40373 40719 41028 41125 40688 40169 39948 40020 40152 40536 40772 40947 40807 40416 40008 39769 39699 39796 40045 40373 40752 40772 40523 40411 40224 40214 40185 40268 40609 40931 40775 40670 40499 40289 40200 40133 40212 40578 41002 40971 40762 40708 40749 40667 40521 40572 40843 40971 40732 40697 40713 40707 40618 40603 40644 40838 40887 40789 40718 40763 40854 40779 40730 40667 40805 40804 40750 40897 41250 41404 41277 41085 40867 40959 40990 40929 40925 41017 41163 41085 40961 40862 40730 40625 40711 40878 41174 41432 41336 41184 41038 40947 40836 40897 41070 41292 41558 41653 41591 41497 41303 41088 41198 41394 41642 41894 41929 41749 41584 41262 41006 41009 41165 41469 41718 41943 41914 41857 41365 40932 41144 41340 41615 41942 42179 42163 41933 41382 41061 40967 41169 41536 41878 42212 42332 42178 41670 41194 41060 41242 41593 41946 42264 42354 42052 41350 40785 40711 40921 41324 41717 41994 42255 42121 41471 40954 40763 41030 41453 41745 42064 42299 42137 41483 40915 40664 40752 41120 41521 41777 41986 42084 41392 40795 40512 40745 41088 41398 41705 41988 41522 40638 40038 39759 39881 40234 40664 41098 41368 41178 40537 40117 39906 40002 40397 40812 41160 41452 41190 40455 39902 39617 39686 40086 40551 41001 41282 40909 40441 40004 39992 40005 40210 40575 40858 40930 40649 40279 40044 39948 39927 40175 40562 40903 40803 40462 40249 40006 40076 40192 40346 40624 40886 40714 40521 40401 40240 40095 39945 39897 40145 40496 40563 40392 40234 40142 39988 39973 39988 40179 40343 40173 40119 40224 40305 40179 40022 39890 40014 40141 40136 40186 40252 40463 40523 40554 40479 40554 40453 40354 40435 40668 40870 40842 40649 40437 40307 40360 40400 40568 40773 40969 41143 40958 40866 40686 40393 40406 40620 40892 41236 41369 41191 40952 40563 40142 40151 40399 40748 41063 41381 41476 41479 41111 40668 40663 40902 41241 41588 41866 41933 41738 41264 40775 40635 40865 41207 41516 41746 41906 41657 41173 40632 40572 40938 41310 41602 41931 42129 41776 40973 40319 40110 40443 40946 41402 41702 41992 42011 41445 40973 40745 40938 41342 41669 41930 42194 42003 41430 40934 40680 40823 41274 41695 42066 42253 42071 41439 41083 40887 41008 41347 41670 41927 42063 41581 41068 40680 40463 40534 40844 41285 41586 41517 41254 40938 40799 40800 40864 41153 41500 41762 41672 41462 41233 41020 40937 40980 41226 41551 41869 41684 41329 41107 41019 41112 41159 41356 41650 41561 41303 41303 41308 41225 41066 41021 41127 41332 41361 41219 41154 41183 41076 40943 40768 40750 40905 40981 40949 41102 41272 41178 40991 40864 40925 41205 41326 41311 41231 41333 41437 41322 41240 41135 40847 40691 40860 41071 41322 41561 41627 41517 41195 40803 40635 40738 41039 41367 41718 41885 41804 41526 40961 40736 40975 41229 41568 41911 42028 41804 41366 40743 40495 40622 40980 41340 41644 41855 41802 41260 40576 40122 40381 40897 41227 41473 41814 41915 41338 40622 40215 40261 40719 41222 41616 41883 42127 41669 41105 40680 40630 40930 41296 41578 41866 41871 41158 40474 40045 39877 40081 40552 40895 41255 41196 40806 40393 40202 40125 40151 40587 40899 41053 40860 40543 40283 40211 40175 40273 40604 41028 41381 41188 40969 40832 40662 40702 40660 40800 41117 41122 40913 40855 40841 40836 40708 40537 40595 40896 40922 40812 40769 40871 40889 40865 40901 40892 40983 40853 40790 40897 41154 41253 41116 41019 40956 40995 40881 40877 40955 41121 41250 41244 41206 41121 40942 40829 40863 41125 41438 41731 41752 41615 41388 41047 40954 41035 41230 41480 41756 41798 41707 41466 41055 40903 41103 41390 41670 41980 42011 41771 41337 40874 40919 41220 41549 41861 42081 42129 41969 41505 40946 40760 40972 41352 41664 41962 42038 41842 41168 40487 40250 40514 40955 41411 41744 42003 41869 41168 40535 40292 40642 40963 41239 41531 41825 41715 40966 40235 39990 40258 40764 41183 41591 41777 41793 41082 40574 40318 40494 40841 41164 41428 41654 41167 40454 39945 39744 39899 40287 40821 41250 41365 40861 40245 39910 39830 39890 40254 40586 40931 41009 40639 40204 39818 39624 39496 39778 40305 40853 41031 40752 40550 40256 40191 40121 40154 40393 40704 40493 40328 40150 39945 39826 39674 39670 39998 40316 40198 40065 40005 40050 40046 40048 40050 40244 40179 40095 40184 40386 40506 40430 40280 40124 40124 40173 40273 40438 40621 40833 40887 40783 40716 40476 40223 40235 40380 40674 40974 41046 40882 40696 40366 39983 40029 40251 40590 40861 41065 41055 40975 40498 40075 40114 40487 40854 41191 41417 41358 41156 40610 40230 40237 40580 40959 41297 41546 41682 41459 40938 40370 40327 40636 40912 41199 41506 41710 41286 40494 39936 39833 40212 40665 41064 41392 41676 41413 40816 40369 40268 40542 41019 41385 41644 41835 41503 40946 40468 40288 40470 40868 41244 41566 41808 41562 40979 40617 40464 40528 40760 41161 41537 41568 41212 40889 40776 40673 40611 40761 41050 41348 41323 41165 40990 40803 40846 40795 40914 41309 41558 41439 41300 41112 40914 40758 40621 40781 41238 41629 41612 41337 41219 41092 40978 40933 40851 41051 41146 41017 41007 41113 41191 41107 40928 40725 40780 40803 40798 40970 41152 41392 41423 41403 41221 41063 40914 41016 41243 41458 41682 41655 41396 41093 40858 40776 40912 41088 41328 41543 41738 41621 41582 41123 40637 40647 40887 41193 41504 41713 41626 41391 40763 40116 40086 40417 40834 41218 41593 41806 41684 41139 40530 40399 40720 41119 41444 41729 41821 41547 40793 40219 40175 40510 40919 41297 41478 41728 41430 40683 40115 39891 40125 40515 40851 41130 41381 40924 40063 39389 39145 39422 39870 40296 40684 40957 40800 40107 39697 39464 39539 39868 40280 40661 40923 40581 39904 39330 38997 39010 39396 39857 40251 40593 40289 39843 39419 39172 39060 39272 39655 40186 40183 39822 39358 39107 38865 38688 38840 39278 39779 39786 39705 39765 39767 39844 39930 39940 40134 40354 40223 40089 40116 40076 39931 39727 39600 39896 40344 40411 40348 40307 40477 40463 40463 40465 40472 40354 40213 40250 40392 40626 40723 40567 40364 40188 40056 40035 40210 40480 40680 41020 41049 41101 40967 40629 40510 40589 40880 41190 41423 41457 41312 41034 40630 40550 40685 40936 41236 41504 41662 41552 41219 40685 40436 40626 40984 41311 41613 41747 41674 41250 40602 40306 40550 40932 41320 41551 41876 42097 41778 41120 40696 40714 41084 41509 41819 42052 42076 41530 40807 40393 40536 40977 41436 41834 41979 42203 41610 40938 40434 40336 40653 41082 41420 41690 41790 41100 40368 39857 39651 39959 40481 40927 41246 41351 41013 40502 40205 40040 40234 40625 40931 41233 41346 41045 40675 40426 40373 40504 40871 41250 41576 41732 41359 41091 40716 40603 40479 40522 40886 41155 40962 40771 40609 40343 40063 39762 39698 39959 40158 40074 40078 40129 40300 40205 40150 39929 40181 40523 40391 40292 40236 40407 40668 40537 40045 39946 40230 40372 40560 40758 40960 41078 40931 40812 40517 40073 39895 39942 40266 40552 40669 40566 40235 39804 39371 39345 39567 39854 40203 40534 40724 40631 40370 39683 39424 39647 40019 40432 40754 40957 40860 40461 39739 39437 39673 40107 40549 40886 41225 41344 41093 40558 40127 40067 40332 40691 41051 41400 41492 41148 40524 40040 40129 40461 40670 40917 41219 41466 41091 40517 40038 39827 40078 40453 40804 41109 41375 40925 40204 39589 39297 39346 39612 40031 40507 40767 40471 39992 39618 39480 39489 39840 40277 40609 40702 40294 39832 39562 39454 39494 39772 40215 40646 40897 40638 40449 40287 40375 40403 40618 40928 41198 41186 41000 40743 40480 40284 40064 40061 40359 40735 40704 40528 40449 40323 40275 40320 40336 40635 40716 40535 40534 40572 40521 40344 40050 39818 39969 40298 40339 40402 40495 40661 40604 40543 40426 40400 40390 40456 40564 40759 40970 40990 40743 40440 40213 40067 40204 40405 40669 40942 41049 40978 40914 40674 40354 40391 40620 40919 41233 41326 41251 40961 40529 40089 40128 40471 40865 41167 41472 41588 41518 41265 40742 40553 40779 41176 41474 41749 41807 41602 40983 40249 39970 40270 40716 41100 41333 41590 41612 41063 40319 39865 39957 40443 40825 41085 41403 41537 40989 40192 39671 39600 40026 40507 40925 41243 41537 41142 40508 40038 39950 40196 40515 40879 41212 41402 40804 40028 39555 39394 39574 40048 40418 40770 40991 40485 39763 39252 39059 39167 39696 40335 40619 40568 40064 39527 39241 39104 39205 39738 40334 40819 40878 40512 40198 39846 39811 39809 40004 40326 40643 40653 40438 40281 40049 39782 39590 39555 39853 40192 40102 39896 39855 39823 39770 39813 39831 40085 40112 39905 39833 39919 39886 39831 39660 39486 39565 39844 39959 40086 40165 40372 40432 40447 40427 40371 40334 40194 40242 40527 40832 40866 40686 40405 40227 40151 40162 40298 40575 40733 40943 40879 40768 40516 39982 39784 40135 40484 40838 41123 41074 40833 40396 39853 39777 40185 40647 40994 41197 41371 41328 41080 40459 40237 40469 40789 41094 41404 41602 41622 41245 40659 40454 40689 41074 41358 41557 41751 41872 41548 40997 40510 40497 40823 41153 41442 41733 41797 41166 40393 39930 39846 40157 40590 41011 41317 41530 41054 40326 39822 39744 40169 40726 41041 41316 41456 40904 40258 39849 39761 39990 40470 40908 41229 41394 41070 40491 40185 40054 40118 40388 40845 41174 41284 40731 40109 39680 39454 39505 40031 40604 41015 41041 40589 40190 39851 39758 39735 39919 40321 40592 40359 40136 40036 39891 39641 39333 39297 39588 39971 40070 40087 40172 40335 40314 40347 40251 40297 40435 40330 40296 40458 40512 40450 40128 39821 39889 40070 39958 39997 40161 40345 40429 40345 40271 40131 39861 39928 40011 40175 40427 40573 40526 40257 39972 39747 39816 40014 40348 40654 40902 41044 40926 40766 40297 40127 40256 40555 40919 41219 41257 41158 40854 40244 40004 40130 40423 40732 40959 41205 41210 40842 40175 39787 39966 40376 40726 41026 41239 41243 40686 39928 39470 39633 40043 40444 40771 41089 41339 41000 40398 39953 39906 40267 40697 41014 41297 41568 41139 40460 39951 39773 40015 40470 40870 41195 41446 41203 40597 40233 40073 40220 40561 40915 41205 41382 40816 40199 39817 39656 39780 40238 40722 41129 41155 40687 40136 39875 39800 39925 40316 40684 40971 40912 40551 40079 39708 39503 39482 39947 40488 40868 40835 40669 40298 40091 40077 40101 40292 40611 40949 40806 40641 40343 40159 40040 39945 40067 40490 40843 40699 40493 40395 40288 40311 40293 40308 40549 40649 40425 40413 40587 40655 40725 40751 40685 40753 40730 40600 40582 40656 40880 40847 40826 40710 40733 40608 40586 40733 40922 41012 40959 40783 40621 40495 40454 40582 40708 40865 41027 41160 41073 40995 40794 40395 40318 40554 40853 41142 41282 41182 40978 40538 39959 39877 40197 40595 40942 41242 41377 41381 41104 40542 40337 40605 40997 41340 41597 41647 41570 41158 40583 40401 40691 41116 41533 41785 41917 41941 41307 40543 40095 40211 40588 40903 41225 41455 41367 40712 39948 39530 39632 40064 40524 40893 41126 41272 40636 39974 39494 39495 39980 40388 40698 40968 41059 40373 39648 39239 39194 39436 39874 40344 40787 41036 40671 40074 39772 39673 39862 40183 40509 40867 41077 40571 39952 39624 39529 39563 39887 40330 40733 40853 40401 39965 39592 39571 39612 39814 40220 40579 40410 40149 39850 39576 39451 39401 39621 39942 40274 40273 40111 40084 39992 39946 39951 40011 40336 40640 40482 40362 40350 40321 40217 40170 40184 40382 40723 40776 40580 40425 40381 40270 40141 39990 39955 39981 39869 39847 40025 40309 40397 40180 39882 39838 39937 39798 39837 39979 40230 40411 40404 40419 40328 40178 40126 40211 40436 40806 41022 40970 40784 40620 40602 40581 40579 40656 40849 41078 41034 40830 40632 40248 40115 40345 40594 40931 41248 41308 41200 40951 40540 40244 40251 40453 40781 41117 41348 41375 41270 40736 40379 40613 40882 41252 41554 41763 41725 41520 40957 40567 40602 40947 41330 41654 41801 42003 41904 41309 40745 40773 41119 41393 41707 41932 42058 41895 41222 40654 40527 40643 41021 41413 41651 41923 42153 41590 40907 40502 40715 41113 41474 41774 42011 42033 41365 40669 40237 40292 40692 41092 41430 41654 41722 41084 40411 40049 40056 40463 40802 41044 41277 41128 40518 39939 39642 39723 40019 40404 40730 41062 41016 40662 40366 40185 40158 40300 40641 40845 41011 40961 40531 40085 39850 39818 39988 40372 40827 41219 41140 40717 40235 39940 39913 39871 40112 40476 40446 40136 39976 39930 39888 39781 39817 40052 40378 40381 40142 40000 39949 39883 39830 39787 39947 40284 40143 39971 40123 40320 40325 40135 40005 40061 40340 40470 40342 40209 40229 40303 40149 40175 40121 40145 40051 39914 40059 40352 40367 40120 39864 39825 39856 39865 39870 39826 40016 40155 40097 40004 40027 39991 39912 39956 40096 40369 40592 40500 40189 39968 39882 39912 40099 40325 40546 40829 40920 40816 40764 40393 40235 40369 40648 40963 41229 41217 40985 40734 40316 40106 40142 40432 40710 40981 41166 41105 40947 40354 40063 40335 40702 41026 41322 41492 41454 41120 40536 40132 40263 40567 41093 41537 41802 42055 42009 41518 41021 40966 41276 41561 41800 41988 42182 41857 41225 40834 40808 41078 41384 41733 41981 42158 41859 41369 41008 40699 40733 41115 41430 41605 41781 41567 40999 40494 40263 40389 40644 40903 41210 41418 41152 40799 40429 40251 40199 40428 40881 41168 41222 41042 40742 40503 40434 40458 40706 41073 41391 41592 41342 41145 40975 40876 40860 40788 40958 41259 41204 40977 41037 41095 41015 40826 40717 40921 41273 41393 41240 41162 41219 41213 41175 41031 40967 40968 40841 40786 40828 41050 41126 40973 40715 40551 40635 40569 40528 40672 40832 40846 40654 40390 40272 40173 40063 40178 40293 40619 40902 41010 41015 40927 40711 40447 40428 40650 41001 41223 41400 41439 41394 40914 40601 40658 40820 41128 41442 41637 41581 41342 40909 40535 40390 40502 40764 41016 41293 41382 41154 40544 39986 39977 40309 40585 40905 41228 41309 41065 40310 39736 39633 39890 40342 40738 41013 41266 41282 40711 40095 39815 40135 40508 40838 41132 41360 41278 40561 39890 39590 39813 40213 40593 40924 41175 41237 40541 40070 39742 39755 40113 40432 40692 40923 40931 40264 39692 39337 39319 39541 39924 40299 40639 40603 40125 39731 39633 39629 39841 40257 40541 40809 40878 40517 40141 39815 39677 39719 39987 40372 40788 40897 40534 40325 40091 40006 39922 40060 40398 40738 40549 40337 40129 39906 39767 39708 39817 40095 40414 40325 40134 40023 40046 39910 39860 39865 40150 40381 40236 40120 40230 40359 40357 40035 39712 39701 39930 40014 40080 40226 40384 40596 40516 40390 40267 40149 40017 40089 40264 40591 40800 40691 40342 40011 39765 39635 39740 40027 40335 40654 40906 40922 40953 40693 40333 40310 40476 40802 41111 41358 41379 41153 40680 40211 40206 40440 40807 41124 41330 41559 41473 41237 40785 40544 40661 41009 41305 41528 41573 41431 41004 40334 40053 40321 40658 40994 41286 41528 41785 41532 40817 40263 40359 40742 40922 41171 41452 41752 41349 40605 40053 39913 40143 40475 40893 41264 41536 41570 40958 40438 40225 40365 40676 41027 41292 41567 41214 40418 39935 39827 40125 40459 40841 41153 41381 41200 40357 39801 39415 39390 39858 40213 40469 40690 40653 40366 40070 39760 39725 39918 40227 40560 40933 41082 40706 40222 39888 39776 39851 40118 40434 40680 40547 40256 39771 39468 39312 39370 39708 40189 40659 40582 40166 39976 39744 39719 39660 39760 40231 40355 40036 39860 39763 39634 39475 39283 39400 39926 40394 40377 40205 40200 40161 40076 40066 40031 40265 40429 40201 40087 40176 40270 40196 40152 40160 40293 40550 40492 40392 40335 40418 40345 40214 40096 40159 40238 40101 40126 40394 40703 40921 40778 40637 40553 40601 40540 40568 40666 40849 40962 40828 40726 40634 40520 40401 40511 40681 40968 41141 41078 40963 40903 40963 40960 40964 41044 41169 41296 41212 41117 40961 40671 40429 40517 40689 40893 41256 41408 41315 41097 40762 40524 40520 40716 40965 41230 41379 41370 41317 40790 40421 40591 40847 41135 41435 41687 41664 41480 40860 40410 40482 40749 41114 41438 41705 41797 41669 41061 40430 40358 40727 41014 41266 41511 41684 41604 40969 40314 40148 40368 40806 41197 41493 41807 41896 41379 40765 40395 40573 40883 41151 41447 41753 41744 40999 40313 39967 40064 40461 40877 41214 41469 41514 40735 40111 39652 39674 40025 40455 40737 41044 41137 40464 39898 39546 39531 39924 40422 40845 41121 41267 40863 40232 39952 39826 40009 40332 40607 40954 41086 40559 40020 39796 39770 39862 40175 40582 40882 40738 40316 39844 39586 39553 39564 39745 40288 40409 40130 39916 39725 39547 39461 39337 39520 40046 40496 40497 40302 40282 40104 40039 40028 40000 40204 40363 40158 40091 40161 40170 40106 40036 39957 40098 40268 40117 40010 40035 40138 40078 40039 39973 39949 39856 39775 39913 40205 40495 40482 40268 40161 40178 40105 40157 40332 40571 40791 41009 40954 40976 40788 40344 40249 40350 40584 40905 41173 41232 41027 40766 40417 40420 40554 40742 41001 41201 41346 41220 41040 40461 40165 40309 40695 41025 41375 41598 41604 41223 40537 40157 40270 40685 41104 41480 41664 41794 41325 40684 40304 40360 40797 41204 41537 41795 41897 41414 40645 40143 40086 40484 40946 41355 41615 41886 41612 40977 40487 40373 40633 40990 41273 41543 41714 41142 40449 40027 39978 40295 40765 41187 41513 41610 41147 40449 40051 39888 40084 40577 40963 41257 41340 40764 40175 39840 39702 39857 40253 40769 41177 41342 40933 40409 40065 39969 40032 40297 40662 40955 40945 40635 40205 39842 39669 39573 39705 40077 40591 40554 40233 40005 39760 39787 39748 39840 40272 40394 40231 40155 40094 39923 39788 39660 39624 40014 40603 40669 40484 40451 40416 40326 40367 40395 40552 40615 40394 40322 40418 40394 40252 40027 39820 39929 40096 40021 40031 40094 40221 40251 40210 40103 40015 39881 39889 40086 40368 40650 40640 40396 40160 39990 39963 40067 40271 40479 40674 40818 40740 40635 40411 40076 39998 40248 40560 40855 41000 40881 40672 40309 39847 39757 39979 40338 40604 40847 40910 40858 40449 39908 39848 40167 40617 40975 41294 41354 41180 40692 40144 39975 40177 40555 40940 41236 41452 41490 41022 40379 39980 40113 40592 40946 41261 41483 41356 40586 39875 39573 39783 40238 40677 40949 41207 41191 40652 40166 39810 39858 40309 40665 40979 41284 41258 40605 40021 39690 39654 40014 40521 40917 41246 41336 40935 40466 40268 40216 40385 40708 40972 41172 40964 40647 40241 39927 39735 39808 40131 40511 40734 40549 40407 40257 40146 40150 40152 40363 40784 40884 40696 40619 40525 40428 40290 40148 40249 40621 40843 40829 40764 40824 40825 40810 40747 40709 40763 40620 40603 40669 40840 40800 40614 40306 40078 40137 40045 40130 40342 40601 40861 40910 40864 40694 40404 40251 40356 40612 40899 41043 41014 40803 40560 40310 40280 40425 40688 41004 41230 41395 41289 41069 40367 39961 40094 40474 40818 41132 41404 41443 41115 40423 39913 39859 40174 40596 40974 41257 41465 41194 40428 39853 39775 40141 40562 