42487 42475 42476 42469 42462 42489 42486 45489 45497 45514 45509 45534 45564 45561 45556 45547 45558 45550 45574 45535 45530 45501 45473 45472 45480 45473 45471 45459 45458 45440 45408 45378 45351 45332 45318 45296 45255 45229 45190 45172 45140 45107 45089 45146 45182 34015 34073 34145 34172 34108 34096 34031 34039 34050 34015 34023 34112 34117 34175 34207 34225 34241 34237 34289 34261 34285 34262 34248 34220 34232 34218 34199 34176 34168 34139 34122 34055 33963 33925 33930 33908 33936 33972 33980 33987 33984 34006 34011 34060 34057 34051 34010 33976 33988 33973 33993 33986 34011 34008 34041 34051 34062 34081 34107 34138 34136 34137 34088 34062 34057 34070 34084 34084 34079 34088 34117 34113 34122 34145 34160 34177 34172 34144 34100 34064 34022 33930 33877 33777 33798 33883 33997 34066 34109 34147 34128 34144 34130 34129 34101 34116 34135 34134 34172 34190 34226 34261 34277 34300 34327 34370 34386 34423 34434 34453 34446 34451 34453 34455 34479 34487 34516 34524 34526 34574 34566 34596 34600 34636 34657 34681 34700 34751 34753 34763 34750 34714 34680 34682 34658 34670 34660 34615 34546 34446 34394 34409 34380 34369 34347 34277 34196 33999 33689 33370 33050 32762 32569 32403 32246 32166 32085 32047 31956 31852 31784 31786 31790 31686 31611 31572 31615 31655 31665 31555 31350 31183 31116 31069 30907 30847 30885 30952 30999 31073 31088 31086 31029 31010 31035 31076 31086 31143 31234 31227 31139 31077 31038 30998 30952 30972 30880 30808 30792 30712 30733 30700 30771 30835 30916 30994 31040 31024 30874 30685 30672 30588 30530 30545 30588 30559 30469 30458 30456 30451 30478 30519 30537 30548 30569 30562 30460 30310 30188 30216 30187 30164 30203 30354 30471 30359 30301 30366 30433 30430 30500 30506 30523 30568 30594 30629 30585 30524 30502 30370 30360 30415 30431 30298 30210 30268 30431 30495 30549 30551 30600 30619 30622 30560 30435 30301 30292 30180 30159 30187 30289 30294 30218 30262 30354 30417 30459 30484 30483 30509 30514 30500 30433 30374 30298 30328 30245 30245 30314 30388 30290 30249 30318 30404 30368 30396 30439 30465 30506 30559 30570 30516 30478 30501 30468 30440 30486 30520 30497 30463 30453 30529 30571 30618 30669 30703 30752 30830 30894 30993 30958 30929 30849 30806 30872 30891 30880 30888 30843 30862 30933 30942 30981 31009 31047 31052 31092 31007 30993 31005 30881 30902 30942 30994 30984 31037 31152 31218 31184 31227 31285 31351 31377 31404 31386 31301 31287 31262 31334 31270 31237 31312 31269 31231 31261 31301 31298 31326 31398 31450 31489 31530 31562 31548 31538 31511 31486 31408 31411 31462 31472 31471 31463 31519 31567 31594 31624 31681 31730 31743 31758 31791 31750 31701 31678 31684 31627 31631 31686 31717 31670 31698 31764 31827 31814 31876 31880 31884 31915 31964 31981 31929 31908 31919 31914 31906 31929 31945 31899 31843 31915 31984 31984 32009 32055 32088 32106 32122 32137 32135 32112 32109 32094 32022 32039 32071 32045 32055 32118 32191 32245 32247 32283 32301 32293 32313 32326 32341 32304 32281 32260 32226 32251 32261 32268 32274 32260 32238 32225 32255 32297 32300 32318 32327 32384 32411 32397 32406 32416 32352 32389 32487 32520 32432 32476 32498 32525 32461 32518 32507 32524 32540 32564 32652 32622 32593 32584 32521 32518 32524 32527 32571 32431 32519 32597 32624 32657 32688 32689 32691 32693 32711 32731 32715 32677 32705 32631 32607 32645 32676 32618 32628 32613 32618 32659 32628 32679 32657 32656 32656 32728 32777 32759 32757 32705 32695 32686 32682 32668 32665 32621 32610 32627 32659 32707 32738 32766 32777 32774 32822 32767 32755 32716 32712 32725 32772 32707 32720 32755 32732 32740 32802 32854 32905 32915 32959 33008 33093 33038 33013 33016 32976 32959 32980 32950 32892 32825 32824 32839 32855 32868 32905 32922 32958 33009 33098 33056 33010 32960 32877 32845 32852 32876 32813 32810 32856 32919 32944 32977 33021 33043 33068 33047 33057 33071 33056 33044 33025 32964 32940 32976 32947 32881 32827 32793 32851 32872 32899 32942 32952 32965 32945 32998 32985 32987 32970 32887 32840 32831 32871 32872 32820 32798 32825 32902 32918 32927 32947 32969 32983 32980 32995 32971 32933 32925 32933 32863 32871 32907 32860 32737 32807 32863 32871 32868 32930 32925 32923 32950 32938 32958 32906 32879 32881 32774 32754 32809 32829 32727 32682 32725 32849 32901 32948 32954 32978 32949 32942 32925 32914 32913 32881 32932 32869 32833 32866 32896 32800 32732 32807 32867 32903 32937 32969 32969 32962 32933 32953 32965 32931 32893 32941 32876 32827 32850 32885 32736 32735 32803 32876 32926 32928 32944 32913 32903 32892 32959 32935 32886 32932 32865 32797 32818 32840 32767 32696 32727 32771 32848 32884 32901 32923 32915 32902 32908 32864 32820 32786 32781 32720 32686 32733 32743 32697 32706 32742 32816 32828 32842 32846 32866 32850 32826 32877 32854 32848 32858 32774 32743 32741 32769 32699 32670 32694 32726 32710 32755 32759 32769 32774 32744 32769 32769 32720 32698 32689 32633 32640 32654 32642 32585 32630 32668 32701 32704 32756 32800 32818 32819 32826 32871 32843 32847 32871 32760 32697 32727 32739 32661 32625 32696 32753 32798 32821 32870 32887 32869 32844 32830 32851 32794 32769 32801 32723 32709 32731 32743 32702 32691 32654 32691 32754 32823 32847 32872 32857 32828 32895 32854 32837 32876 32778 32728 32733 32797 32709 32632 32639 32752 32827 32887 32943 32952 32973 32952 32910 32861 32833 32795 32846 32773 32772 32831 32884 32690 32678 32745 32771 32833 32878 32897 32903 32900 32896 32900 32844 32798 32872 32770 32753 32796 32867 32805 32780 32822 32830 32871 32875 32875 32884 32848 32841 32842 32856 32832 32854 32836 32818 32854 32881 32869 32766 32746 32772 32846 32850 32914 32933 32930 32923 32891 32899 32927 32920 32846 32811 32768 32765 32843 32816 32839 32845 32851 32834 32829 32905 32906 32906 32890 32899 32977 32966 32951 32992 32949 32905 32914 32935 32849 32829 32850 32895 32949 33017 33041 33051 33041 33011 33019 33022 32973 32995 32906 32911 32962 33016 32951 32933 32926 32960 32998 33027 33069 33066 33062 33041 33035 33093 33074 33062 33008 32950 32956 32990 32981 32894 32883 32936 33001 33043 33082 33108 33115 33114 33120 33179 33126 33100 33111 33111 33111 33150 33169 33066 33028 33060 33084 33130 33134 33186 33233 33219 33249 33254 33213 33187 33189 33147 33129 33151 33147 33108 33075 33077 33127 33133 33186 33255 33268 33302 33302 33297 33327 33291 33258 33271 33208 33193 33219 33198 33054 33041 33047 33084 33099 33123 33092 33117 33108 33083 33092 33000 32920 32895 32823 32805 32824 32810 32772 32794 32761 32705 32705 32723 32707 32731 32783 32760 32896 32869 32801 32806 32742 32702 32744 32774 32719 32727 32703 32690 32695 32741 32738 32729 32710 32693 32741 32763 32687 32698 32672 32637 32676 32661 32609 32563 32503 32433 32438 32486 32456 32462 32471 32486 32614 32548 32459 32450 32370 32344 32364 32348 32337 32323 32313 32281 32283 32339 32323 32319 32320 32332 32424 32395 32319 32317 32298 32257 32291 32287 32211 32164 32144 32131 32127 32189 32146 32166 32184 32201 32229 32157 32060 32074 32010 32023 32069 32074 32047 32052 32053 32075 32122 32173 32194 32221 32228 32235 32280 32250 32203 32226 32156 32126 32180 32172 32139 32125 32122 32102 32131 32218 32222 32254 32247 32202 32280 32211 32151 32130 32091 32070 32110 32199 32185 32086 32049 32084 32111 32160 32230 32256 32247 32242 32274 32243 32133 32070 32145 32068 32105 32163 32220 32187 32147 32242 32253 32254 32267 32308 32310 32290 32326 32272 32192 32240 32240 32202 32234 32288 32321 32284 32163 32114 32119 32179 32232 32223 32207 32166 32137 32014 31991 32082 32252 32210 32250 32335 32372 32278 32137 32106 32166 32227 32252 32269 32297 32279 32243 32093 32049 32100 32294 32168 32134 32209 32266 32245 32112 32182 32310 32391 32427 32487 32577 32650 32707 32817 32794 32780 32871 32807 32789 32859 32874 32791 32698 32811 32876 32933 32950 33020 33093 33115 33095 32996 32854 32876 32934 33051 32974 32970 32993 32906 32856 32824 32789 32810 32840 32859 32834 32798 32799 32827 32894 32906 32916 32888 32850 32842 32808 32758 32802 32775 32770 32752 32743 32706 32698 32725 32767 32854 33042 33200 33276 33310 33387 33507 33578 33677 33746 33767 33799 33832 33867 33903 33960 34006 34055 34111 34132 34177 34213 34252 34297 34345 34364 34412 34432 34442 34472 34520 34552 34620 34587 34620 34672 34640 34648 34652 34641 34590 34576 34489 34392 34361 34382 34392 34394 34394 34395 34390 34365 34358 34319 34184 34072 34051 33888 33848 33873 33885 33755 33588 33533 33529 33507 33458 33377 33353 33358 33332 33345 33265 33036 32847 32804 32622 32549 32596 32600 32480 32466 32442 32427 32374 32347 32336 32312 32321 32316 32401 32319 32164 32073 31889 31743 31715 31751 31689 31636 31620 31608 31589 31604 31568 31516 31525 31521 31579 31464 31360 31280 31229 31153 31105 31195 31153 31155 31105 31047 31022 30997 31081 31079 31111 31104 31117 31126 30996 30940 30928 30879 30882 30956 30950 30964 30944 30906 30902 30894 30970 30990 31025 30999 31037 31129 31063 30955 30938 30813 30789 30846 30908 30888 30913 30913 30957 30972 31026 31082 31127 31150 31168 31228 31284 31244 31239 31312 31242 31255 31307 31321 31234 31230 31244 31349 31364 31441 31476 31503 31511 31502 31531 31523 31479 31470 31387 31418 31492 31486 31471 31431 31378 31392 31399 31445 31460 31495 31504 31549 31605 31578 31495 31574 31500 31481 31540 31620 31554 31554 31606 31702 31730 31783 31843 31876 31888 31917 31974 31915 31849 31870 31879 31841 31857 31902 31831 31828 31823 31834 31835 31891 31967 31990 32013 31990 31989 32010 31971 32008 32070 32028 32043 32107 32074 31995 31960 31996 31997 32013 32105 32172 32185 32189 32228 32276 32185 32156 32239 32189 32218 32202 32175 32185 32185 32184 32232 32284 32303 32374 32398 32434 32492 32531 32514 32545 32577 32591 32593 32632 32574 32460 32393 32450 32487 32482 32508 32499 32455 32465 32454 32515 32479 32500 32532 32475 32514 32538 32483 32278 32273 32345 32352 32372 32430 32392 32422 32393 32432 32431 32379 32318 32252 32237 32261 32291 32260 32132 32227 32338 32354 32320 32315 32297 32287 32313 32355 32376 32351 32320 32333 32247 32277 32311 32303 32131 32134 32152 32209 32236 32265 32297 32301 32290 32320 32369 32307 32263 32283 32236 32201 32274 32387 32342 32290 32247 32237 32342 32408 32479 32514 32528 32533 32549 32516 32454 32451 32403 32360 32391 32420 32349 32341 32330 32381 32412 32449 32499 32524 32539 32531 32551 32602 32540 32531 32477 32415 32385 32449 32397 32369 32369 32394 32468 32501 32564 32614 32614 32615 32622 32631 32579 32532 32577 32504 32480 32537 32529 32430 32386 32364 32388 32453 32500 32534 32540 32523 32536 32604 32536 32478 32478 32389 32396 32434 32444 32393 32412 32439 32418 32401 32412 32421 32434 32410 32449 32494 32488 32475 32469 32368 32335 32366 32405 32324 32365 32374 32431 32480 32520 32609 32635 32674 32634 32645 32649 32610 32569 32587 32553 32536 32595 32499 32404 32420 32471 32479 32475 32553 32553 32563 32538 32545 32521 32464 32435 32484 32439 32440 32506 32423 32438 32409 32376 32392 32407 32428 32420 32425 32400 32409 32450 32393 32418 32418 32351 32364 32438 32359 32372 32368 32406 32409 32469 32493 32515 32503 32479 32479 32496 32459 32519 32433 32468 32532 32473 32465 32463 32483 32512 32561 32632 32640 32643 32605 32637 32620 32562 32520 32544 32516 32540 32567 32480 32502 32444 32415 32436 32487 32507 32519 32479 32470 32491 32520 32494 32516 32489 32455 32492 32491 32447 32415 32414 32429 32427 32517 32502 32456 32471 32472 32509 32496 32466 32525 32462 32484 32504 32394 32393 32388 32365 32393 32444 32510 32483 32460 32452 32429 32487 32487 32502 32565 32567 32554 32533 32526 32514 32537 32514 32535 32573 32596 32571 32523 32527 32543 32648 32630 32628 32624 32619 32628 32625 32575 32614 32579 32596 32601 32681 32711 32693 32636 32654 32752 32784 32758 32756 32736 32753 32755 32696 32715 32701 32721 32725 32750 32817 32787 32777 32788 32758 32871 32856 32846 32852 32818 32811 32848 32762 32782 32740 32675 32696 32730 32766 32745 32695 32695 32731 32801 32743 32733 32683 32655 32667 32693 32673 32640 32623 32612 32621 32681 32676 32666 32647 32671 32759 32753 32712 32806 32737 32863 32998 32972 33044 33023 33040 33030 33066 33034 32993 32985 32968 32977 33019 32978 33032 33010 33044 33082 33035 33033 33017 33029 33063 33109 33105 33097 33049 33108 33156 33156 33136 33169 33114 33130 33152 33133 33109 33095 33080 33108 33153 33210 33186 33200 33172 33195 33199 33160 33181 33188 33149 33137 33118 33007 32978 32981 33039 33064 33138 33181 33177 33147 33153 33139 33184 33133 33165 33077 33056 33067 32980 33017 32960 32939 32895 32897 32925 32975 32992 33013 33027 33002 32945 32868 32881 32817 32809 32807 32691 32726 32725 32717 32722 32763 32761 32739 32736 32721 32754 32775 32710 32756 32702 32652 32676 32626 32587 32583 32596 32577 32603 32601 32628 32664 32707 32812 32867 32824 32838 32819 32718 32708 32726 32641 32546 32474 32475 32497 32539 32590 32566 32549 32506 32553 32577 32541 32543 32567 32530 32504 32560 32469 32474 32477 32512 32564 32680 32693 32721 32716 32773 32898 32971 32992 32990 32873 32834 32851 32881 32827 32779 32862 32901 33006 33049 33128 33255 33370 33460 33496 33517 33538 33619 33507 33505 33491 33454 33356 33332 33397 33466 33542 33663 33790 33923 34073 34151 34172 34132 34110 34016 33914 33886 33963 33949 33916 33970 34048 34116 34188 34263 34298 34378 34396 34410 34390 34301 34305 34173 34106 34157 34229 34178 34194 34216 34241 34307 34355 34382 34409 34473 34566 34540 34548 34523 34518 34350 34267 34287 34388 34345 34364 34421 34495 34551 34557 34541 34517 34481 34444 34412 34355 34327 34355 34228 34184 34227 34191 34140 34198 34284 34333 34361 34396 34389 34363 34333 34296 34218 34130 34135 34042 33956 33954 33998 33984 34003 34033 34073 34026 34033 33995 33985 34063 34153 34123 34045 34081 33861 33736 33743 33796 33655 33647 33703 33700 33707 33672 33674 33666 33639 33661 33701 33649 33558 33601 33472 33422 33438 33446 33302 33253 33226 33227 33217 33200 33148 33153 33105 33084 33056 32988 32949 32989 32951 32935 32958 32976 32872 32895 32914 32889 32853 32882 32836 32823 32769 32810 32887 32824 32760 32733 32560 32544 32611 32584 32522 32520 32565 32593 32644 32635 32656 32665 32654 32674 32735 32729 32687 32724 32633 32591 32616 32556 32478 32465 32468 32497 32516 32570 32541 32529 32521 32504 32521 32461 32407 32469 32349 32325 32366 32385 32259 32210 32252 32187 32191 32267 32278 32289 32337 32379 32422 32376 32359 32391 32284 32291 32384 32317 32317 32330 32384 32430 32463 32526 32601 32769 32933 33159 33263 33205 33139 33110 32961 32924 32987 32904 32952 33044 33152 33208 33263 33313 33368 33468 33684 33731 33674 33632 33592 33413 33362 33419 33454 33368 33352 33409 33472 33513 33484 33427 33380 33400 33346 33452 33410 33255 33109 33097 32993 32957 32980 32893 32904 32969 33056 33091 33079 33106 33072 33050 33055 33075 33066 32946 32892 32876 32819 32801 32828 32708 32685 32685 32673 32694 32705 32720 32702 32630 32625 32567 32570 32482 32366 32375 32283 32304 32328 32297 32252 32185 32234 32349 32382 32476 32587 32779 32868 32987 33068 33197 33128 33237 33009 33008 33113 33178 33082 33082 33033 33132 33118 33222 33229 33267 33314 33328 33392 33477 33346 33283 33282 33200 33223 33276 33241 33406 33439 33503 33453 33452 33448 33417 33436 33448 33581 33615 33609 33632 33642 33520 33521 33634 33619 33601 33653 33759 33785 33724 33714 33673 33656 33617 33612 33618 33556 33528 33504 33388 33421 33535 33600 33503 33427 33453 33517 33501 33566 33656 33724 33832 33910 33963 33907 33894 33834 33706 33737 33832 33770 33794 33796 33766 33832 33872 33913 33926 33897 33926 33945 33967 33876 33792 33690 33554 33494 33564 33506 33532 33536 33502 33442 33393 33407 33388 33478 33540 33549 33666 33597 33616 33608 33622 33653 33636 33662 33658 33564 33625 33783 33870 33894 33927 33933 33901 33870 33815 33724 33706 33555 33517 33541 33614 33484 33447 33427 33488 33487 33464 33441 33402 33400 33441 33482 33389 33287 33150 33084 33069 33076 33185 33150 33175 33131 33089 33118 33153 33113 33090 33100 33085 33130 33092 32961 32885 32722 32672 32689 32705 32604 32609 32613 32635 32642 32691 32687 32687 32678 32760 32839 32805 32732 32775 32657 32567 32669 32770 32710 32688 32693 32764 32840 32850 32914 32914 32929 32978 32975 32928 32852 32747 32546 32565 32572 32607 32476 32421 32306 32273 32306 32323 32400 32386 32407 32394 32366 32307 32175 32164 32114 32068 32098 32157 32078 32053 32029 32013 32093 32090 32168 32194 32207 32192 32178 32191 32073 31998 32009 31899 31891 31938 31942 31845 31796 31840 31890 31921 31968 32005 32044 32035 32064 32140 32088 32083 32082 32005 32013 32078 32048 32010 32038 32119 32168 32253 32323 32402 32441 32427 32449 32477 32490 32460 32507 32428 32417 32463 32531 32465 32499 32485 32538 32640 32653 32742 32753 32698 32692 32705 32722 32690 32723 32695 32654 32687 32724 32659 32647 32630 32670 32741 32780 32816 32862 32813 32819 32831 32842 32815 32811 32877 32818 32851 32906 32803 32793 32790 32792 32814 32862 32892 32928 32936 32877 32899 32899 32849 32823 32847 32784 32814 32891 32837 32885 32857 32900 33025 33074 33133 33238 33338 33454 33507 33517 33423 33351 33373 33267 33263 33329 33356 33322 33364 33474 33525 33556 33583 33625 33623 33610 33644 33615 33582 33540 33601 33472 33453 33496 33430 33439 33481 33584 33712 33693 33690 33716 33814 33952 34109 34184 34200 34179 34183 34087 34096 34115 34006 34037 34067 34144 34220 34241 34215 34181 34245 34353 34478 34612 34637 34658 34638 34580 34578 34603 34635 34613 34539 34617 34661 34672 34678 34624 34631 34623 34523 34424 34355 34320 34256 34233 34267 34146 34198 34185 34157 34106 34142 34159 34176 34196 34190 34190 34156 34041 33979 34009 33869 33853 33884 33765 33742 33725 33825 33875 33896 33928 33927 33935 33925 33848 33754 33668 33617 33480 33388 33380 33364 33244 33161 33084 33142 33199 33206 33217 33267 33349 33379 33457 33450 33371 33367 33270 33228 33211 33156 32963 32885 32867 32884 32906 32935 32961 33050 33188 33262 33300 33222 33137 33139 33047 32982 33033 33008 33022 33085 33081 33112 33162 33218 33253 33267 33312 33419 33487 33476 33443 33461 33398 33333 33361 33306 33332 33376 33426 33523 33554 33589 33626 33624 33700 33841 33901 33867 33864 33858 33768 33707 33772 33640 33685 33685 33746 33805 33861 33917 33938 34002 34072 34185 34167 34115 34078 34069 33868 33830 33860 33739 33746 33800 33950 34025 34097 34153 34160 34170 34234 34305 34359 34318 34323 34356 34290 34202 34157 34026 34002 34061 34107 34121 34149 34164 34199 34258 34258 34331 34332 34281 34249 34242 34154 34196 34251 34130 34113 34034 34003 34043 34091 34165 34212 34221 34206 34243 34190 34121 34093 34128 34061 34123 34225 34104 34122 34118 34157 34204 34213 34220 34225 34203 34245 34305 34349 34320 34359 34174 34087 34123 34190 34132 34073 34081 34171 34175 34207 34168 34131 34084 34068 34046 33998 33970 34017 33814 33800 33843 33745 33766 33793 33788 33775 33824 33847 33854 33855 33809 33822 33819 33770 33738 33771 33601 33674 33677 33586 33602 33557 33569 33606 33633 33636 33646 33615 33619 33629 33604 33491 33478 33427 33372 33399 33428 33375 33373 33289 33339 33374 33408 33438 33481 33463 33503 33590 33615 33613 33646 33483 33445 33484 33423 33475 33449 33493 33660 33799 33891 33912 33900 33985 34032 34049 34077 34038 33940 33694 33704 33750 33705 33742 33772 33842 33860 33862 33891 33891 33899 33899 33995 34028 33942 33975 33872 33762 33783 33855 33746 33744 33746 33793 33857 33919 33940 33967 33998 34161 34481 34789 34871 34930 34891 34826 34817 34802 34542 34580 34543 34538 34560 34631 34625 34657 34636 34708 34735 34724 34680 34730 34767 34768 34766 34750 34552 34505 34496 34542 34601 34618 34684 34682 34698 34706 34835 35047 35076 35153 35220 35115 35090 35113 34881 34840 34789 34731 34756 34811 34873 34844 34834 34803 34816 34835 34699 34642 34724 34627 34643 34663 34503 34554 34569 34578 34558 34571 34587 34642 34735 34896 34986 35008 34965 34938 34763 34711 34710 34603 34566 34566 34640 34699 34732 34768 34751 34749 34760 34867 34844 34816 34805 34766 34644 34648 34644 34441 34483 34481 34543 34573 34580 34627 34621 34621 34667 34733 34653 34579 34515 34498 34226 34281 34355 34174 34158 34127 34121 34137 34149 34171 34157 34148 34193 34228 34244 34178 34158 34221 34030 33999 34014 34004 33894 33846 33877 33945 34018 34005 34047 34120 34148 34231 34174 34038 33941 33931 33705 33643 33730 33721 33665 33721 33777 33848 33816 33821 33839 33872 33946 33948 33973 33915 33819 33800 33531 33495 33572 33551 33497 33532 33619 33684 33707 33747 33746 33772 33786 33808 33782 33716 33622 33612 33493 33409 33437 33437 33303 33275 33307 33372 33400 33392 33435 33457 33440 33479 33490 33452 33386 33323 33306 33133 33149 33201 33071 33062 33038 33023 33065 33071 33093 33091 33061 33056 33082 33073 33024 33000 33022 32950 32983 33011 32899 32873 32817 32809 32850 32865 32903 32951 32944 33008 33097 33118 33138 33171 33234 33099 33090 33167 33196 33068 33101 33207 33263 33360 33392 33413 33431 33479 33545 33621 33635 33608 33598 33515 33444 33431 33487 33380 33325 33284 33342 33357 33405 33434 33465 33479 33518 33523 33469 33388 33367 33335 33266 33290 33332 33202 33156 33130 33141 33173 33219 33288 33275 33258 33276 33263 33206 33085 33020 32913 32882 32891 32943 32829 32824 32804 32768 32776 32803 32827 32832 32888 32979 33005 32936 32850 32784 32711 32626 32612 32645 32579 32574 32627 32696 32756 32757 32832 32839 32824 32883 32902 32880 32791 32778 32650 32586 32587 32606 32528 32515 32575 32640 32659 32758 32771 32797 32813 32775 32755 32720 32675 32687 32573 32559 32541 32510 32413 32349 32349 32389 32410 32469 32517 32515 32474 32459 32388 32287 32254 32293 32169 32175 32219 32176 32087 32007 31983 31988 32069 32093 32112 32104 32119 32119 32052 31942 31889 31872 31833 31847 31871 31795 31790 31733 31761 31780 31813 31794 31825 31792 31811 31818 31772 31673 31593 31528 31489 31482 31483 31478 31485 31505 31509 31503 31580 31572 31618 31646 31745 31729 31700 31646 31609 31487 31448 31463 31411 31409 31437 31502 31502 31578 31647 31689 31760 31912 32148 32253 32249 32271 32225 31999 31959 32022 31979 32020 32077 32196 32292 32333 32409 32483 32615 32845 32976 33003 32956 32892 32796 32705 32696 32701 32613 32615 32674 32783 32875 32925 32945 33001 33053 33214 33270 33299 33322 33340 33344 33187 33304 33364 33269 33267 33340 33484 33589 33679 33763 33814 33872 33965 33929 33787 33674 33579 33473 33356 33378 33459 33420 33396 33555 33652 33768 33758 33828 33871 33928 33955 33977 33963 33902 33873 33751 33560 33552 33662 33554 33550 33707 33771 33834 33833 33856 33885 33896 33957 33952 33865 33780 33720 33543 33454 33465 33522 33440 33458 33585 33666 33690 33633 33577 33590 33599 33635 33592 33559 33486 33437 33392 33211 33159 33199 33050 32942 33076 33168 33170 33202 33262 33249 33280 33288 33295 33276 33181 33141 33029 32980 32971 32996 32812 32732 32793 32878 32931 33006 33148 33266 33336 33380 33393 33364 33299 33286 33301 33225 33230 33237 33115 33015 32994 32988 32989 33009 33092 33088 33098 33128 33087 33029 32954 32873 32871 32807 32809 32815 32763 32651 32631 32646 32627 32653 32686 32702 32731 32797 32844 32790 32666 32559 32492 32377 32353 32383 32304 32337 32483 32659 32770 32826 32909 32971 33043 33236 33281 33316 33283 33282 33147 33068 33131 33197 33141 33165 33249 33428 33533 33634 33666 33726 33791 33903 34031 34034 34032 34006 34027 33927 33982 34007 33874 33901 33966 34106 34190 34246 34261 34275 34292 34340 34498 34380 34303 34231 34075 33989 34001 34112 34036 34095 34186 34228 34190 34205 34253 34293 34205 34042 33972 34044 34143 34164 34205 34289 34376 34488 34635 34882 35267 35344 35577 35687 35664 35675 35723 35602 35739 35718 35757 35640 35585 35502 35473 35465 35294 35400 35633 35923 35979 35968 35966 36196 36350 36343 36260 36190 35958 35783 35730 35753 35820 36018 36149 35891 35802 35777 35576 35703 35851 35890 35867 35775 35818 35838 35809 35821 35837 35837 35858 35897 35815 35574 35515 35750 35843 35860 35905 36078 36139 36004 35871 35694 35658 35723 35686 35355 35365 35498 35695 35799 35784 35785 35818 35808 35868 35864 35858 35868 35953 36048 36222 36271 36262 36262 36194 36136 36118 36115 35937 35967 36063 36058 36079 36033 36023 36011 36007 36019 36000 35937 35773 35764 35795 35839 35823 35736 35699 35715 35692 35675 35631 35477 35325 35267 35246 35197 35228 35201 35208 35132 35053 34981 34926 34896 34904 34899 34886 34870 34845 34825 34870 34885 34908 34902 34872 34799 34790 34758 34713 34693 34681 34671 34656 34619 34615 34614 34570 34493 34448 34440 34444 34397 34368 34301 34172 34047 33990 33932 33875 33828 33777 33714 33662 33677 33723 33773 33987 34183 34313 34357 34331 34184 33992 33817 33736 33704 33739 33782 33766 33676 33506 33357 33251 33273 33326 33428 33502 33531 33497 33428 33364 33343 33376 33428 33516 33545 33579 33536 33590 33659 33754 33790 33802 33812 33758 33638 33475 33355 33228 33111 33075 33140 33338 33489 33567 33598 33631 33679 33699 33655 33690 33743 33769 33819 33760 33709 33658 33574 33523 33492 33450 33479 33479 33359 33225 33101 32978 32724 32608 32562 32399 32181 32089 32072 32011 31971 31950 31899 31875 31828 31831 31684 31506 31368 31242 31036 30968 30875 30767 30480 30497 30424 30379 30311 30319 30309 30313 30284 30227 30079 29878 29746 29634 29473 29439 29460 29320 29151 29089 28952 28921 28884 28867 28880 28910 28932 28846 28641 28439 28281 28130 28035 28031 28069 27946 27934 27838 27730 27696 27724 27782 27853 27963 28075 28095 27865 27708 27583 27386 27372 27387 27500 27410 27442 27466 27398 27397 27424 27444 27576 27726 27783 27774 27615 27457 27351 27186 27184 27242 27316 27237 27283 27431 27441 27445 27514 27537 27602 27749 27860 27907 27834 27798 27708 27535 27520 27533 27565 27525 27544 27682 27725 27765 27823 27837 27882 27925 28020 28060 27993 28020 28000 27891 27848 27890 27941 27961 27893 28040 28107 28180 28242 28313 28344 28428 28509 28526 28523 28557 28581 28562 28499 28489 28541 28583 28481 28553 28626 28711 28787 28875 28950 29014 29119 29189 29193 29164 29166 29205 29136 29152 29201 29236 29101 29181 29239 29313 29359 29454 29501 29561 29614 29638 29663 29617 29650 29712 29610 29637 29710 29739 29610 29629 29694 29734 29813 29894 29940 30018 30102 30128 30122 30092 30061 30077 30017 30032 30080 30138 30028 30011 30095 30114 30167 30203 30295 30333 30449 30487 30473 30482 30457 30465 30474 30410 30468 30516 30505 30402 30529 30507 30559 30597 30636 30669 30778 30823 30834 30835 30818 30825 30829 30758 30767 30823 30634 30646 30777 30791 30814 30821 30834 30864 30935 30986 31022 31040 31019 30993 30971 30907 30901 30949 30875 30810 30961 30967 31057 31065 31092 31100 31136 31202 31218 31294 31269 31278 31267 31183 31204 31238 31224 31120 31205 31239 31287 31306 31319 31326 31348 31386 31420 31445 31451 31462 31475 31354 31357 31378 31374 31252 31328 31361 31371 31403 31391 31359 31354 31362 31346 31391 31387 31409 31461 31350 31336 31374 31417 31297 31303 31403 31456 31500 31548 31545 31575 31590 31584 31625 31609 31621 31641 31544 31553 31594 31578 31442 31455 31565 31615 31659 31724 31715 31720 31761 31759 31778 31774 31772 31826 31708 31734 31780 31782 31628 31611 31763 31770 31838 31906 31901 31927 31999 31981 31999 31910 31926 31954 31804 31868 31924 31907 31855 31835 31881 31900 31956 31982 32004 32054 32194 32271 32346 32337 32352 32468 32550 32557 32557 32526 32561 32480 32496 32490 32463 32503 32591 32699 32798 32876 32939 32955 32962 32997 33038 33005 32998 32888 32727 32703 32682 32698 32678 32677 32619 32592 32608 32627 32693 32640 32604 32544 32538 32524 32514 32561 32598 32549 32500 32455 32404 32368 32307 32308 32340 32388 32405 32351 32331 32347 32494 32568 32665 32691 32750 32787 32816 32871 32904 32992 33057 33159 33171 33160 33102 33033 32962 32944 32983 33073 33087 32952 32954 32910 32924 32940 32993 33035 33137 33194 33165 33150 33093 33075 33087 33252 33350 33373 33305 33237 33186 33167 33217 33227 33225 33252 33237 33209 33276 33259 33263 33317 33364 33532 33653 33765 33790 33796 33682 33642 33589 33572 33559 33511 33488 33495 33525 33511 33488 33423 33392 33422 33447 33451 33392 33413 33488 33540 33638 33672 33675 33683 33679 33651 33643 33653 33608 33586 33618 33761 33856 33980 34016 34048 34121 34228 34274 34355 34493 34545 34612 34701 34825 34890 35041 35078 35183 35276 35332 35402 35495 35517 35604 35640 35737 35774 35819 35816 35830 35842 35867 35940 35969 36016 36055 36081 36104 36129 36160 36176 36197 36178 36181 36195 36222 36213 36170 36125 36091 36072 36074 36105 36135 36138 36104 36145 36175 36156 36251 36309 36258 36257 36192 36167 36143 36070 36046 35947 35890 35871 35854 35793 35815 35787 35772 35686 35660 35680 35685 35669 35621 35601 35561 35429 35368 35330 35356 35360 35312 35233 35186 35112 35096 35145 35169 35143 35140 35120 35121 35116 35064 34982 34907 34861 34811 34780 34722 34702 34649 34539 34508 34460 34373 34328 34274 34267 34184 34054 33919 33820 33753 33695 33560 33398 33334 33242 33113 33024 32960 32949 32950 32892 32834 32759 32639 32472 32301 32178 32117 32085 31992 31802 31690 31529 31406 31322 31287 31268 31279 31271 31234 31114 30941 30756 30607 30525 30489 30468 30419 30323 30204 30030 29923 29850 29938 30044 30111 30161 30198 30118 29974 29858 29761 29736 29748 29796 29774 29745 29729 29645 29527 29501 29585 29646 29710 29738 29762 29805 29738 29622 29528 29527 29552 29612 29644 29633 29518 29431 29416 29380 29417 29484 29542 29624 29669 29660 29610 29574 29531 29510 29514 29577 29634 29667 29576 29572 29613 29604 29625 29699 29784 29852 29910 29954 29916 29933 29935 29962 30002 30062 30103 30116 30126 30107 30108 30145 30204 30262 30317 30389 30432 30509 30510 30461 30492 30512 30522 30557 30632 30686 30629 30527 30595 30667 30710 30759 30827 30886 30973 31020 31045 31037 31060 31094 31131 31175 31215 31251 31177 31145 31136 31174 31188 31246 31296 31327 31398 31382 31413 31472 31486 31520 31538 31545 31554 31565 31548 31530 31497 31464 31499 31521 31563 31615 31665 31710 31739 31765 31703 31708 31730 31718 31730 31730 31750 31746 31651 31695 31734 31778 31834 31877 31904 31930 31933 32008 32026 31999 32006 32040 31970 31997 31999 31985 31951 31950 32001 32033 32085 32134 32150 32174 32159 32220 32231 32212 32236 32228 32177 32187 32210 32201 32171 32159 32182 32189 32230 32264 32286 32278 32270 32298 32293 32297 32278 32291 32248 32270 32265 32250 32178 32121 32129 32164 32170 32243 32265 32300 32290 32286 32255 32241 32228 32197 32182 32160 32155 32134 32054 32024 32015 32001 32016 32003 32026 32016 32046 32032 32077 32047 31990 32004 31952 31896 31871 31899 31853 31793 31730 31747 31739 31786 31811 31813 31870 31869 31870 31840 31786 31743 31689 31667 31642 31657 31605 31602 31558 31527 31533 31546 31547 31565 31616 31638 31667 31627 31515 31480 31444 31379 31416 31409 31370 31337 31226 31157 31088 31070 31113 31131 31171 31176 31185 31165 31114 31081 31033 31037 31034 31062 31060 31048 31057 31006 31009 30999 31063 31113 31176 31130 31189 31213 31248 31218 31196 31169 31135 31143 31173 31114 31116 31093 31055 31051 31027 31033 31051 31058 31091 31107 31131 31098 31077 31044 30979 30921 30920 30921 30948 30941 30906 30903 30888 30894 30882 30902 30911 30969 31009 31001 30961 30968 30940 30943 30935 30951 30905 30910 30886 30912 30920 30970 31013 31056 31084 31135 31153 31143 31101 31053 30995 31018 31039 31063 31009 30986 30952 30980 31013 31042 31059 31087 31111 31170 31196 31171 31156 31129 31099 31079 31102 31102 31077 31067 31102 31130 31161 31184 31229 31246 31282 31330 31355 31370 31336 31315 31271 31285 31274 31277 31252 31239 31234 31280 31315 31347 31383 31403 31384 31431 31496 31476 31456 31461 31409 31330 31321 31372 31293 31316 31305 31330 31368 31370 31377 31382 31386 31448 31479 31514 31493 31496 31486 31417 31395 31389 31386 31336 31318 31290 31311 31334 31376 31408 31406 31424 31480 31505 31479 31456 31436 31371 31300 31240 31233 31221 31259 31289 31345 31383 31436 31532 31620 31662 31694 31738 31744 31711 31694 31675 31647 31635 31602 31592 31602 31607 31630 31667 31710 31733 31701 31707 31686 31719 31711 31723 31767 31758 31775 31771 31764 31753 31745 31734 31737 31728 31759 31770 31756 31750 31720 31709 31676 31667 31693 31701 31714 31707 31675 31656 31645 31640 31664 31681 31739 31738 31734 31693 31681 31675 31672 31675 31740 31732 31762 31751 31708 31693 31669 31653 31687 31700 31744 31777 31762 31736 31701 31714 31711 31718 31764 31788 31798 31812 31787 31770 31742 31739 31769 31815 31848 31887 31900 31871 31831 31820 31813 31795 31792 31755 31746 31752 31719 31635 31542 31549 31597 31628 31663 31691 31709 31696 31717 31725 31719 31726 31703 31681 31670 31674 31685 31618 31645 31660 31667 31701 31740 31780 31786 31791 31790 31827 31816 31803 31808 31793 31767 31768 31786 31804 31716 31640 31637 31663 31695 31762 31817 31873 31922 31933 31915 31848 31797 31814 31814 31834 31853 31863 31817 31795 31778 31807 31864 31902 31943 31974 31980 32014 32000 32006 31939 31942 31953 31935 31968 32008 32029 31925 31835 31826 31822 31816 31805 31840 31872 31879 31911 31888 31834 31801 31805 31750 31756 31767 31755 31734 31712 31644 31630 31642 31719 31739 31777 31755 31805 31803 31762 31730 31695 31619 31587 31602 31612 31588 31520 31557 31561 31578 31603 31614 31654 31670 31654 31566 31522 31501 31483 31468 31457 31473 31499 31469 31478 31464 31437 31430 31417 31423 31433 31498 31551 31527 31362 31282 31221 31185 31187 31182 31209 31186 31150 31099 31102 31089 31111 31162 31217 31235 31271 31290 31307 31306 31257 31190 31161 31125 31140 31108 31117 31127 31118 31095 31110 31094 31101 31129 31164 31232 31243 31222 31200 31145 31125 31137 31194 31159 31006 31001 31080 31121 31171 31217 31245 31278 31268 31331 31382 31437 31434 31412 31433 31436 31476 31483 31338 31288 31348 31394 31435 31521 31570 31601 31633 31661 31690 31702 31705 31709 31665 31650 31681 31667 31669 31621 31719 31732 31762 31811 31821 31845 31863 31897 31906 31872 31902 31885 31853 31869 31856 31841 31841 31865 31890 31905 31957 31970 31960 31976 32000 32035 32081 32092 32072 32036 31995 32007 32061 32045 32021 31949 31934 31947 31957 31986 32002 32023 32046 32090 32111 32088 32069 32060 32042 32053 32062 31999 32002 31977 31978 31985 31999 31989 32002 32021 32026 32086 32075 32088 32104 32092 32050 32016 32008 31999 31959 31935 31977 31989 32032 32044 32022 32068 32093 32143 32168 32173 32176 32164 32110 32092 32095 32110 32078 32071 32116 32165 32164 32166 32165 32171 32177 32212 32236 32251 32263 32264 32277 32268 32285 32294 32271 32274 32293 32386 32447 32452 32427 32432 32453 32476 32508 32522 32521 32518 32508 32509 32521 32514 32502 32540 32539 32542 32589 32562 32598 32585 32616 32636 32705 32696 32697 32676 32693 32622 32602 32626 32583 32575 32508 32549 32575 32592 32589 32609 32620 32626 32649 32678 32690 32684 32665 32617 32585 32584 32564 32565 32602 32590 32600 32592 32597 32636 32615 32615 32632 32668 32685 32660 32636 32616 32569 32561 32573 32535 32526 32496 32507 32506 32491 32487 32482 32485 32481 32530 32523 32519 32495 32456 32363 32356 32352 32376 32340 32393 32454 32471 32455 32474 32444 32435 32439 32430 32453 32493 32498 32474 32412 32369 32362 32375 32325 32371 32400 32402 32423 32390 32450 32429 32426 32448 32458 32469 32426 32370 32310 32267 32247 32233 32178 32188 32191 32198 32181 32181 32166 32168 32150 32169 32199 32227 32199 32167 32124 32069 32031 32020 31983 31981 31923 31901 31875 31855 31823 31785 31806 31789 31808 31811 31812 31776 31748 31661 31604 31582 31556 31567 31568 31537 31531 31535 31515 31513 31496 31496 31505 31505 31540 31487 31441 31373 31322 31288 31285 31282 31301 31272 31231 31221 31180 31176 31137 31141 31160 31184 31232 31220 31204 31124 31055 31017 31010 31012 31003 31019 31058 31048 31028 30999 30999 30991 30995 31063 31056 31067 31018 30967 30878 30839 30830 30826 30781 30771 30772 30774 30787 30739 30748 30765 30784 30837 30861 30899 30859 30859 30804 30743 30726 30724 30724 30744 30752 30772 30788 30782 30817 30775 30806 30832 30889 30926 30964 30989 30963 30896 30843 30855 30858 30907 30958 31057 31105 31138 31131 31112 31125 31158 31207 31258 31288 31304 31282 31235 31207 31193 31200 31167 31202 31201 31232 31251 31283 31308 31327 31377 31415 31454 31471 31468 31454 31414 31376 31367 31383 31361 31385 31357 31377 31387 31382 31414 31437 31465 31501 31577 31568 31595 31575 31591 31571 31577 31582 31587 31578 31582 31596 31616 31626 31639 31675 31687 31733 31759 31797 31803 31789 31800 31762 31765 31776 31764 31748 31732 31728 31749 31761 31752 31784 31791 31804 31845 31883 31938 31933 31936 31904 31869 31850 31859 31837 31801 31760 31806 31784 31764 31775 31795 31809 31846 31895 31904 31919 31905 31879 31833 31844 31845 31880 31843 31809 31847 31859 31870 31877 31899 31931 31943 31976 31995 31984 31967 31955 31935 31922 31957 31976 31965 31919 31910 31933 31941 31951 31965 31979 31971 32000 32040 32057 32045 32039 32009 31967 31969 31943 31898 31950 31984 32000 32000 32014 32015 32005 31998 32000 32053 32078 32057 32052 32039 32040 32019 32046 32043 32034 32039 32070 32069 32045 32052 32069 32046 32085 32107 32139 32139 32122 32102 32071 32033 32002 31975 31944 31988 32009 32009 31992 31962 31947 31939 31939 31965 31988 32021 31981 31969 31890 31842 31836 31831 31792 31811 31790 31773 31738 31728 31698 31714 31707 31727 31757 31798 31743 31718 31630 31588 31548 31555 31536 31522 31518 31494 31446 31440 31404 31413 31416 31441 31471 31514 31473 31418 31344 31270 31241 31245 31232 31211 31185 31176 31138 31133 31125 31115 31134 31162 31195 31231 31177 31131 31075 30998 31006 31003 31018 31013 30963 30974 30981 30970 30993 30976 31035 31055 31101 31143 31102 31078 31028 30992 30993 31034 31023 31026 31026 31035 31052 31059 31086 31099 31140 31158 31227 31267 31263 31278 31255 31217 31229 31240 31258 31235 31242 31308 31326 31345 31370 31391 31396 31438 31466 31518 31516 31537 31483 31454 31447 31471 31461 31473 31475 31514 31561 31581 31623 31614 31624 31684 31707 31775 31800 31799 31804 31803 31805 31831 31822 31824 31772 31847 31893 31942 31952 31992 31995 32043 32093 32093 32038 32076 32103 32094 32075 32054 32069 32070 31996 31976 32064 32107 32126 32141 32185 32164 32221 32263 32297 32295 32299 32301 32283 32297 32335 32333 32271 32235 32282 32291 32295 32308 32308 32343 32332 32366 32427 32447 32456 32435 32400 32405 32444 32454 32452 32477 32500 32478 32479 32492 32484 32509 32520 32563 32590 32572 32591 32536 32501 32512 32503 32505 32443 32419 32432 32440 32428 32436 32389 32421 32446 32477 32525 32519 32509 32489 32421 32425 32434 32443 32422 32337 32358 32367 32373 32358 32358 32358 32389 32390 32433 32453 32434 32396 32354 32345 32347 32328 32360 32389 32393 32399 32410 32482 32552 32603 32613 32641 32676 32696 32702 32737 32767 32802 32842 32872 32862 32975 33036 33055 33117 33210 33241 33231 33258 33182 33024 32949 32899 32869 32802 32739 32674 32662 32519 32405 32462 32456 32443 32470 32464 32450 32426 32429 32389 32383 32283 32222 32132 32077 32067 32033 31922 31856 31847 31827 31789 31772 31895 31977 32031 32092 32112 32139 32089 32027 32006 31982 31980 32007 31978 31953 31950 31969 31974 32037 32105 32180 32261 32316 32339 32313 32294 32288 32213 32195 32191 32207 32196 32045 32028 32051 32053 32078 32149 32190 32232 32289 32313 32282 32191 32116 32041 32001 31975 31980 31975 31882 31857 31898 31913 31947 31999 32074 32158 32182 32189 32151 32063 31988 31898 31852 31840 31865 31848 31723 31647 31658 31695 31728 31771 31810 31853 31883 31890 31861 31810 31748 31688 31638 31617 31623 31594 31467 31443 31538 31602 31676 31774 31850 31917 32027 32088 32062 32020 31949 31880 31825 31816 31821 31806 31737 31689 31734 31746 31796 31879 31925 32023 32049 32052 32054 32050 32006 31975 31945 31962 31964 31977 31898 31806 31845 31881 31921 32017 32132 32225 32311 32322 32321 32260 32174 32151 32124 32122 32152 32146 32045 31962 31962 32020 32067 32120 32193 32243 32292 32359 32287 32273 32211 32152 32123 32125 32107 32110 32062 31976 31955 31962 31974 32008 32061 32118 32184 32240 32266 32267 32221 32161 32118 32111 32115 32121 32100 31954 31887 31850 31904 31917 31978 31992 31992 32030 32012 31990 31934 31891 31856 31827 31831 31813 31827 31665 31614 31654 31660 31719 31757 31794 31850 31902 31917 31921 31823 31777 31699 31675 31690 31668 31666 31542 31439 31463 31537 31590 31675 31693 31788 31824 31830 31777 31707 31614 31592 31528 31504 31517 31510 31304 31210 31169 31201 31244 31302 31363 31443 31507 31520 31503 31440 31366 31348 31294 31280 31295 31284 31065 30951 30907 30831 30721 30687 30718 30807 30905 30916 30940 30922 30854 30797 30775 30740 30698 30679 30437 30328 30367 30380 30443 30537 30598 30680 30743 30768 30781 30700 30612 30566 30515 30495 30484 30465 30251 30233 30268 30292 30337 30463 30546 30653 30729 30738 30676 30558 30483 30486 30462 30484 30507 30522 30325 30228 30208 30250 30336 30398 30474 30585 30648 30651 30621 30532 30438 30470 30413 30419 30454 30447 30312 30239 30273 30369 30417 30538 30584 30649 30730 30756 30714 30619 30535 30554 30513 30507 30530 30543 30330 30244 30274 30328 30420 30575 30683 30773 30906 30932 30932 30879 30794 30773 30728 30703 30744 30707 30568 30522 30557 30635 30740 30911 31004 31121 31163 31149 31151 31082 31047 31072 31048 31059 31104 31143 31028 30988 31001 31034 31022 31129 31210 31280 31325 31414 31468 31538 31510 31477 31396 31417 31476 31539 31449 31436 31641 31901 32061 32177 32270 32407 32556 32733 32830 32797 32721 32654 32534 32462 32457 32405 32329 32234 32163 32112 32089 32071 32078 32069 32069 32112 32117 32054 31924 31833 31815 31717 31711 31673 31598 31460 31349 31259 31181 31124 31108 31076 31078 31103 31110 31021 30894 30794 30745 30719 30702 30705 30600 30498 30400 30345 30327 30316 30363 30404 30470 30467 30456 30427 30358 30317 30273 30236 30232 30223 30182 29959 29914 30172 30375 30493 30615 30750 30782 30787 30760 30690 30610 30560 30567 30566 30529 30540 30521 30434 30402 30358 30366 30383 30477 30537 30577 30627 30614 30566 30533 30500 30524 30484 30455 30442 30460 30376 30350 30377 30399 30418 30481 30516 30536 30579 30628 30613 30605 30566 30570 30535 30529 30530 30537 30542 30620 30764 30944 31003 31112 31251 31404 31581 31741 31840 31915 31887 31872 31819 31801 31805 31857 31835 31817 31811 31841 31912 32004 32022 32085 32167 32263 32290 32326 32339 32363 32329 32311 32343 32388 32370 32248 32216 32363 32534 32592 32717 32738 32846 33063 33225 33300 33260 33223 33100 32980 32980 33025 33065 33094 33122 33269 33434 33452 33554 33688 33886 34147 34427 34522 34531 34477 34358 34074 34005 34035 34283 34434 34431 34507 34540 34560 34546 34527 34549 34593 34737 34807 34714 34708 34640 34394 34289 34357 34439 34368 34271 34393 34495 34569 34589 34630 34696 34770 34834 34773 34640 34554 34531 34430 34367 34395 34454 34225 34132 34232 34368 34416 34416 34423 34423 34365 34332 34270 34151 34078 33982 33919 33806 33799 33809 33803 33676 33767 33869 33933 33937 33933 33934 33956 33951 33954 33857 33729 33640 33510 33432 33396 33408 33329 33217 33142 33139 33138 33128 33113 33131 33097 33099 33019 32939 32816 32737 32681 32619 32586 32569 32539 32239 32119 32135 32234 32310 32409 32499 32567 32596 32629 32640 32593 32454 32420 32343 32295 32288 32280 32089 31988 32026 32087 32161 32216 32303 32458 32681 32859 32908 32736 32624 32562 32387 32340 32335 32346 32269 32242 32307 32415 32490 32564 32599 32611 32696 32847 33000 32997 32862 32832 32779 32501 32481 32543 32560 32394 32327 32391 32527 32647 32740 32818 32858 32915 33105 33252 33230 33206 33174 33090 32845 32816 32794 32862 32694 32639 32811 32970 33144 33202 33257 33298 33349 33498 33585 33622 33595 33583 33407 33322 33249 33280 33230 32988 33038 33204 33342 33455 33557 33621 33720 33843 33939 34065 34033 33988 33898 33670 33557 33535 33644 33552 33523 33657 33709 33765 33771 33843 33892 33981 34174 34258 34198 34159 34128 33865 33692 33627 33687 33656 33676 33857 33997 34058 34033 34034 34031 34090 34192 34243 34203 34048 33984 33838 33647 33571 33527 33604 33502 33386 33639 33699 33676 33650 33679 33693 33767 33812 33777 33671 33534 33430 33251 33107 33019 32998 33010 32843 32873 32997 33095 33169 33222 33265 33299 33335 33365 33406 33293 33206 33092 32950 32776 32686 32683 32729 32637 32655 32737 32836 32921 32977 33065 33185 33343 33498 33597 33668 33621 33550 33307 33223 33249 33366 33391 33346 33436 33518 33548 33616 33619 33657 33749 33799 33820 33791 33654 33544 33308 33144 33066 33103 33161 32866 33123 33393 33511 33653 33778 33914 34067 34185 34288 34446 34389 34262 34036 33689 33597 33585 33635 33705 33732 33880 33987 34132 34324 34303 34373 34410 34473 34518 34490 34352 34253 34022 33759 33735 33839 33796 33715 33730 33720 33659 33571 33494 33489 33532 33610 33703 33786 33723 33672 33577 33306 33038 33036 33094 33116 33156 33309 33359 33425 33427 33488 33573 33682 33726 33782 33833 33636 33406 33311 32996 32901 32894 32954 32904 32751 32936 32983 33022 33022 33075 33151 33281 33370 33438 33251 33019 32789 32507 32356 32370 32406 32367 32380 32498 32572 32615 32585 32613 32666 32809 32970 33117 32992 32834 32679 32417 32158 32060 32102 32106 32085 32368 32641 32757 32873 32903 32947 32964 32948 32860 32560 32348 32160 32113 31812 31715 31741 31861 31707 31483 31357 31237 31207 31256 31322 31342 31401 31393 31342 31109 30853 30699 30628 30478 30425 30407 30434 30303 30316 30429 30512 30575 30633 30729 30844 30984 31098 31148 30970 30751 30574 30402 30307 30237 30281 30325 30226 30171 30230 30311 30377 30517 30591 30708 30854 30939 30921 30685 30469 30376 30215 30165 30193 30237 30022 29899 29949 30023 30139 30235 30374 30543 30730 30892 31042 30968 30945 30923 30703 30654 30686 30790 30660 30547 30513 30580 30661 30778 30926 31008 31071 31074 31014 30869 30690 30608 30535 30489 30518 30577 30480 30422 30385 30416 30458 30514 30589 30668 30768 30805 30796 30570 30364 30251 30219 30154 30115 30146 30141 29925 29850 29931 30091 30150 30249 30399 30612 30833 31042 31169 31122 31067 30862 30771 30719 30776 30736 30684 30756 30934 31059 31101 31146 31278 31392 31557 31701 31685 31563 31429 31266 31110 31056 31065 31133 30945 30806 30823 30890 30898 30930 30965 31016 31104 31242 31269 31094 30808 30599 30469 30373 30301 30285 30380 30302 30184 30116 30149 30215 30201 30262 30283 30364 30447 30520 30348 30140 29985 29895 29836 29798 29825 29886 29891 30198 30612 30918 31088 31360 31627 31828 31936 31988 31971 31788 31635 31519 31370 31282 31294 31374 31312 31335 31628 31880 32148 32287 32488 32646 32741 32867 32838 32673 32509 32479 32299 32185 32221 32389 32425 32426 32492 32573 32691 32691 32714 32781 32898 33026 33108 33098 33018 32969 32934 32722 32681 32766 32848 32706 32650 32869 32994 33103 33160 33204 33289 33379 33420 33386 33178 32996 32906 32696 32583 32610 32680 32528 32449 32628 32819 32970 33098 33140 33232 33353 33387 33488 33293 33113 33016 32735 32604 32559 32625 32562 32354 32383 32568 32661 32721 32786 32862 32985 33120 33182 33141 32963 32790 32728 32420 32314 32300 32329 32217 32286 32457 32528 32630 32736 32931 33063 33200 33299 33298 33112 32943 32728 32439 32338 32393 32410 32213 32176 32358 32495 32619 32703 32837 32965 33087 33171 33195 32953 32794 32613 32278 32141 32102 32092 31852 31559 31431 31410 31459 31478 31483 31521 31597 31651 31615 31409 31131 30857 30721 30564 30504 30481 30512 30363 30315 30477 30626 30750 30858 31009 31135 31299 31351 31243 30851 30576 30501 30339 30201 30196 30229 30274 30113 30284 30624 30825 31011 31179 31312 31487 31671 31668 31407 31165 30969 30721 30596 30616 30707 30748 30608 30412 30245 30247 30278 30316 30369 30426 30479 30461 30343 30076 29847 29723 29620 29581 29577 29585 29498 29394 29277 29202 29193 29226 29237 29268 29292 29312 29214 29002 28797 28638 28555 28517 28485 28473 28412 28318 28144 28018 27934 27924 27952 28034 28163 28254 28174 27960 27820 27793 27851 27859 27925 27993 27871 27759 27693 27728 27818 27928 28027 28207 28388 28461 28421 28240 28128 28167 28153 28175 28221 28291 28332 28292 28293 28394 28537 28566 28815 28992 29163 29290 29339 29256 29108 29015 29022 28999 29040 29085 29075 29022 29000 29039 29131 29182 29266 29312 29363 29452 29555 29552 29462 29426 29411 29376 29364 29374 29463 29383 29336 29366 29438 29478 29558 29611 29649 29722 29802 29862 29818 29796 29800 29760 29732 29751 29811 29873 29706 29725 29709 29710 29718 29726 29733 29753 29802 29820 29778 29713 29700 29711 29669 29646 29665 29730 29662 29597 29632 29632 29604 29623 29624 29661 29729 29772 29742 29655 29622 29714 30020 30038 30236 30589 30477 30182 30114 30120 30186 30208 30320 30459 30530 30594 30579 30507 30461 30419 30431 30338 30293 30495 30644 30596 30809 31170 31379 31527 31537 31518 31510 31523 31446 31334 31252 31172 31167 31118 31097 31143 31265 31178 31078 30996 31034 31065 31132 31221 31249 31281 31207 31101 30972 30883 30858 30767 30668 30634 30672 30509 30361 30333 30313 30264 30276 30225 30210 30303 30345 30320 30219 30072 29978 29924 29825 29802 29824 29710 29697 29659 29654 29639 29630 29613 29607 29658 29771 29803 29849 29816 29781 29836 29852 29918 30017 30147 30275 30644 31084 31578 31850 32047 32285 32479 32619 32649 32530 32375 32183 32032 31789 31699 31702 31755 31559 31425 31300 31233 31234 31272 31261 31304 31300 31280 31204 31044 30901 30812 30696 30522 30459 30442 30441 30259 30164 30145 30161 30141 30133 30093 30108 30199 30207 30087 29900 29761 29723 29583 29529 29519 29531 29389 29315 29327 29344 29351 29364 29371 29383 29505 29588 29537 29345 29224 29144 29054 29008 29011 29016 28900 28857 28845 28835 28825 28805 28787 28863 29024 29099 29069 28921 28832 28766 28733 28683 28700 28709 28661 28581 28645 28683 28700 28705 28707 28740 28889 28975 28987 28867 28753 28718 28691 28670 28683 28706 28629 28640 28673 28735 28754 28780 28735 28676 28917 29464 29721 29519 29365 29278 29239 29217 29234 29267 29232 29163 29185 29378 29629 29860 30094 30339 30737 31118 31261 31180 31085 31017 30901 30826 30822 30795 30768 30547 30500 30416 30401 30436 30481 30464 30474 30566 30585 30500 30321 30258 30246 30203 30155 30156 30180 30021 29977 30042 30096 30135 30185 30222 30275 30368 30444 30446 30341 30209 30169 30147 30072 30074 30071 30000 29897 29879 29868 29901 29901 29928 29980 30032 30139 30190 30136 30015 29953 29937 29871 29878 29888 29890 29760 29752 29800 29838 29813 29821 29807 29852 29923 30021 29976 29841 29762 29728 29649 29601 29577 29591 29420 29430 29495 29497 29553 29583 29571 29629 29707 29783 29764 29687 29538 29466 29434 29362 29331 29337 29355 29256 29257 29268 29308 29357 29406 29421 29457 29590 29623 29618 29568 29509 29506 29528 29499 29541 29628 29586 29587 29617 29758 29974 30174 30521 30789 31003 31095 31149 31169 31114 31096 31119 31145 31225 31301 31303 31183 31075 31236 31430 31556 31703 31882 32100 32265 32302 32253 32183 32109 32152 32169 32241 32347 32385 32233 32127 32124 32148 32210 32213 32236 32239 32239 32298 32293 32225 32148 32073 32005 31962 31949 31915 31865 31812 31767 31747 31732 31742 31761 31778 31833 31886 31848 31752 31599 31485 31414 31350 31354 31332 31313 31301 31249 31189 31223 31283 31337 31399 31458 31480 31496 31372 31162 31032 30979 30912 30859 30905 30924 30975 31102 31338 31512 31643 31721 31814 31925 32045 32140 32027 31922 31874 31830 31703 31753 31873 31858 32029 31961 31980 32005 32086 32178 32245 32310 32309 32381 32386 32337 32363 32439 32452 32462 32497 32486 32381 32314 32248 32335 32441 32536 32584 32654 32740 32878 33075 33220 33176 33143 33125 33073 33072 33192 33257 33241 33153 33231 33299 33329 33327 33316 33349 33440 33598 33684 33519 33376 33273 33218 33076 33058 33086 32897 32728 32661 32586 32532 32531 32540 32575 32656 32645 32584 32376 32168 32014 31945 31737 31688 31760 31717 31609 31536 31612 31764 31880 31994 32065 32118 32164 32167 32069 31781 31660 31590 31450 31386 31348 31387 31238 31100 30994 30992 31024 31083 31130 31190 31234 31297 31344 31206 31097 31125 31182 31193 31276 31312 31164 30941 30935 31224 31489 31666 31824 31934 32010 32043 32079 31921 31834 31819 31896 31912 31943 31973 31979 31806 31638 31712 31859 32010 32122 32207 32314 32358 32356 32331 32308 32293 32315 32223 32109 32105 32150 32066 31986 31941 31974 32033 32175 32251 32273 32349 32401 32390 32230 32055 31983 32044 31887 31858 31947 31988 31794 31722 31694 31620 31567 31537 31500 31516 31533 31566 31578 31553 31432 31350 31237 31179 31188 31222 31136 31061 31018 30990 30990 30994 30988 31023 31078 31091 31287 31417 31399 31359 31433 31505 31446 31689 31986 32071 32136 32268 32314 32369 32419 32454 32501 32540 32557 32496 32387 32331 32346 32436 32452 32449 32459 32288 32195 32215 32278 32440 32534 32650 32757 32856 32817 32762 32687 32584 32615 32660 32622 32642 32701 32636 32642 32641 32680 32788 32870 32953 33065 33212 33375 33388 33307 33209 33183 33148 32997 32954 33031 32990 32964 32951 33113 33295 33392 33405 33445 33533 33687 33737 33669 33527 33428 33335 33303 33250 33289 33297 33302 33329 33311 33303 33350 33339 33353 33429 33483 33594 33611 33665 33592 33573 33536 33428 33460 33458 33382 33480 33495 33481 33472 33476 33504 33539 33587 33698 33734 33712 33667 33613 33528 33477 33412 33412 33393 33281 33024 33069 32801 32750 32673 32692 32712 32742 32753 32674 32416 32210 32032 31925 31868 31863 31866 31925 32019 32169 32542 32736 32929 32999 33081 33132 33067 33032 32898 32805 32672 32593 32380 32335 32406 32483 32395 32357 32526 32685 32827 32932 33019 33117 33235 33354 33403 33347 33207 33149 33084 32924 32837 32809 32871 32780 32762 32903 33090 33251 33370 33452 33557 33623 33699 33683 33551 33422 33368 33221 33148 33188 33219 33072 32963 32967 33047 33119 33168 33201 33203 33209 33158 32970 32876 32809 32836 32868 32878 32886 32920 32835 32810 32829 32917 33013 33068 33115 33141 33164 33082 32993 32850 32656 32561 32568 32530 32512 32526 32425 32245 32082 32083 32094 32125 32167 32197 32216 32179 32147 32010 31801 31672 31607 31581 31552 31549 31610 31440 31262 31024 30855 30752 30720 30707 30715 30813 30888 30765 30563 30402 30274 30170 30097 30177 30287 30374 30370 30410 30494 30567 30633 30737 30827 30914 31045 31050 31069 31109 31163 31221 31158 31102 31100 31123 30824 30708 30572 30463 30373 30336 30337 30393 30438 30493 30471 30393 30257 30174 30153 30089 30072 30071 30084 29851 29788 29744 29653 29585 29570 29524 29529 29589 29647 29584 29402 29284 29233 29231 29128 29130 29178 29106 28933 28917 28859 28805 28786 28775 28788 28862 28970 29004 28933 28772 28661 28668 28678 28688 28749 28743 28630 28646 28853 28993 29139 29241 29315 29414 29619 29924 29996 29833 29802 29879 30012 30122 30209 30263 30098 29988 29967 30046 30090 30152 30220 30274 30343 30425 30493 30394 30242 30166 30192 30192 30181 30291 30354 30286 30321 30486 30548 30630 30680 30727 30796 30835 30875 30831 30711 30624 30589 30600 30670 30710 30808 30740 30653 30773 30971 31085 31170 31242 31316 31389 31478 31481 31376 31218 31150 31179 31210 31227 31306 31358 31208 31135 31146 31189 31219 31276 31334 31385 31485 31545 31516 31383 31263 31274 31308 31326 31360 31411 31290 31246 31232 31252 31300 31340 31401 31458 31537 31627 31644 31539 31364 31275 31298 31243 31233 31313 31271 31186 31253 31321 31374 31469 31527 31625 31687 31728 31714 31567 31383 31271 31341 31289 31325 31377 31295 31266 31340 31366 31388 31440 31453 31477 31518 31592 31607 31514 31356 31239 31142 31099 31104 31106 31022 30996 31009 31026 31039 31128 31165 31216 31250 31248 31190 31080 31000 30990 30938 30905 30897 30840 30796 30753 30699 30699 30754 30759 30777 30810 30860 30899 30882 30734 30620 30544 30368 30298 30306 30278 30151 30099 30124 30142 30203 30244 30327 30358 30469 30541 30552 30395 30222 30062 30059 29931 29900 29967 29947 29908 29894 29924 30056 30150 30302 30382 30492 30560 30602 30635 30546 30431 30406 30364 30320 30350 30325 30209 30193 30263 30383 30398 30485 30582 30634 30674 30729 30715 30626 30530 30534 30520 30464 30494 30510 30405 30332 30361 30465 30556 30635 30770 30818 30898 30937 30969 30932 30863 30818 30913 30965 31024 31110 31027 30873 30907 31062 31161 31194 31273 31305 31306 31330 31341 31299 31218 31212 31238 31185 31184 31215 31159 31073 31059 31187 31331 31427 31542 31666 31744 31766 31798 31814 31729 31658 31757 31750 31809 31960 31917 31731 31718 31820 31950 32023 32128 32207 32288 32333 32304 32292 32146 32075 32159 32042 32062 32127 32177 31934 31916 31956 32051 32076 32118 32144 32177 32191 32156 32132 32039 31963 31908 31821 31754 31740 31696 31508 31443 31432 31547 31632 31746 31762 31817 31869 31877 31835 31734 31637 31566 31480 31393 31354 31324 31211 31160 31197 31262 31364 31482 31533 31577 31630 31652 31593 31528 31401 31364 31324 31249 31183 31173 31042 30958 31024 31183 31267 31430 31507 31578 31624 31655 31657 31591 31435 31401 31330 31319 31262 31230 31046 30988 31004 31091 31184 31309 31330 31369 31420 31420 31422 31289 31142 31118 31055 31052 31016 31004 30879 30816 30850 30923 31036 31203 31306 31372 31396 31448 31431 31342 31169 31102 31055 31031 30994 30976 30839 30745 30738 30811 30949 31113 31219 31288 31338 31359 31326 31225 31071 31014 30963 30948 30968 30964 30800 30687 30648 30728 30828 30988 31046 31101 31134 31120 31039 30940 30849 30784 30757 30709 30688 30692 30515 30373 30374 30481 30616 30725 30923 31030 31130 31171 31132 31012 30896 30812 30824 30749 30770 30759 30574 30384 30333 30429 30564 30723 30881 30983 31073 31036 30938 30786 30651 30569 30568 30530 30517 30516 30381 30179 30152 30255 30403 30530 30670 30762 30848 30846 30719 30550 30389 30331 30346 30305 30334 30361 30289 30150 30112 30261 30465 30631 30774 30883 30989 31025 31040 30934 30798 30683 30690 30673 30702 30764 30704 30615 30500 30513 30670 30731 30882 30927 31011 31120 31115 31022 30819 30669 30663 30596 30592 30631 30513 30454 30376 30490 30655 30737 30882 30994 31148 31412 31605 31776 31747 31849 31974 31912 31905 31993 31995 32002 31983 32008 32072 32109 32191 32285 32476 32695 32796 32820 32727 32667 32628 32533 32432 32412 32395 32421 32606 32933 33166 33419 33486 33624 33706 33751 33752 33681 33420 33321 33209 33035 32895 32925 33011 32917 33013 33140 33312 33488 33572 33672 33777 33857 33888 33896 33870 33776 33743 33585 33539 33546 33562 33404 33350 33320 33316 33347 33465 33592 33677 33733 33721 33772 33707 33535 33394 33278 33099 33061 33130 33122 33071 33180 33280 33341 33246 33189 33189 33217 33248 33295 33176 32905 32683 32632 32417 32352 32405 32450 32260 32224 32332 32502 32661 32901 33130 33245 33321 33323 33237 33143 32926 32825 32768 32576 32519 32494 32438 32272 32221 32246 32307 32361 32464 32589 32661 32677 32663 32595 32377 32100 31970 31833 31766 31756 31773 31777 31799 31697 31663 31640 31687 31713 31766 31782 31872 31888 31823 31525 31307 31179 31058 31029 31061 31014 31076 31192 31327 31359 31453 31582 31679 31812 31885 31885 31874 31605 31421 31336 31262 31258 31281 31265 31261 31234 31178 31243 31398 31608 31803 31927 31979 31997 32049 31904 31772 31708 31584 31506 31540 31451 31419 31353 31269 31178 31155 31172 31250 31345 31308 31315 31255 30956 30631 30350 30157 30050 29998 29944 29679 29666 29658 29672 29676 29640 29654 29657 29692 29752 29722 29538 29290 29184 29110 29057 29072 29003 28870 28801 28958 29191 29335 29434 29532 29614 29661 29684 29574 29355 29113 29090 28971 28947 28965 28826 28801 28794 28862 29098 29295 29463 29734 29899 29972 29920 29969 29833 29703 29523 29483 29396 29383 29401 29298 29264 29168 29144 29206 29265 29292 29311 29371 29368 29422 29402 29247 29045 28933 28879 28851 28863 28798 28750 28765 28899 29131 29194 29341 29494 29631 29665 29707 29673 29529 29352 29305 29301 29297 29351 29397 29303 29337 29406 29567 29675 29780 29910 30010 30087 30133 30112 29964 29773 29729 29726 29671 29683 29682 29558 29541 29555 29630 29754 29802 29944 30111 30243 30275 30343 30267 30131 30024 30079 30040 30032 30040 29855 29805 29785 29921 30021 30060 30247 30472 30637 30677 30724 30762 30691 30656 30730 30754 30800 30877 30847 30745 30729 30880 31064 31208 31324 31450 31606 31723 31891 32056 32029 32021 32093 32139 32191 32261 32172 32103 32036 32009 32032 31976 31963 31949 31924 31914 31941 31926 31819 31715 31635 31531 31520 31530 31514 31399 31436 31679 31894 32118 32312 32405 32551 32711 32841 32997 33096 33076 33093 33133 33147 33159 33149 33066 32863 32943 32955 32990 33009 33081 33224 33431 33604 33663 33707 33611 33523 33448 33297 33236 33246 33181 32926 32989 33131 33199 33198 33170 33215 33322 33412 33472 33453 33392 33372 33264 33120 33005 33030 32951 32808 32730 32701 32715 32749 32774 32863 32950 33106 33213 33271 33186 33095 32936 32652 32424 32348 32334 32162 32054 32193 32301 32498 32604 32746 32890 32980 33059 33155 33277 33299 33295 33306 33270 33270 33236 33188 33103 33050 33137 33156 33239 33359 33487 33628 33773 33856 33905 33917 33834 33790 33635 33521 33439 33423 33283 33298 33479 33553 33624 33640 33670 33681 33661 33664 33587 33431 33180 32826 32654 32377 32325 32407 32373 32124 32127 32144 32256 32266 32355 32408 32437 32431 32414 32406 32306 32187 32104 31920 31773 31735 31775 31595 31621 31673 31780 31857 31895 31972 32046 32129 32180 32220 32202 32084 31864 31676 31457 31388 31371 31359 31288 31284 31246 31215 31165 31205 31251 31260 31280 31366 31350 31179 30899 30676 30552 30446 30422 30452 30380 30359 30357 30308 30329 30338 30432 30620 30670 30704 30698 30683 30488 30216 30110 29993 29963 29984 30009 30030 30070 30159 30299 30394 30527 30571 30657 30767 30813 30885 30811 30600 30438 30261 30147 30119 30201 30094 30142 30215 30345 30388 30542 30649 30766 30862 30900 30991 31066 31046 30936 30860 30754 30726 30689 30615 30663 30655 30748 30826 31011 31078 31126 31122 31112 31108 31015 30832 30592 30423 30271 30168 30154 30083 30031 30029 30098 30186 30191 30268 30317 30374 30426 30467 30474 30263 29991 29792 29745 29653 29659 29662 29534 29458 29461 29488 29558 29705 29839 29974 30118 30238 30381 30435 30467 30501 30526 30457 30518 30580 30535 30646 30833 31029 31119 31100 31102 31164 31286 31562 31892 32142 32190 32116 31946 31745 31648 31661 31620 31613 31616 31624 31629 31697 31745 31873 31941 32041 32078 32050 31855 31629 31399 31174 30967 30929 31002 31114 31139 31252 31392 31520 31628 31747 31879 31920 31960 32018 31787 31367 31031 30848 30770 30597 30597 30599 30508 30408 30320 30298 30326 30424 30461 30512 30533 30525 30469 30273 29936 29703 29567 29471 29382 29384 29390 29288 29192 29211 29293 29351 29520 29663 29795 29983 30101 30090 29867 29552 29249 29125 29132 29115 29152 29183 29172 29081 29112 29252 29358 29531 29617 29719 29781 29767 29435 29047 28792 28762 28700 28679 28732 28700 28641 28537 28479 28549 28649 28738 28860 28969 29021 29031 28817 28651 28609 28664 28814 28899 28978 29051 29187 29238 29322 29423 29590 29777 29952 30121 30200 30224 30185 30084 29976 29934 29914 29902 29886 29860 29821 29765 29813 29904 29999 30101 30163 30263 30332 30371 30218 29934 29750 29625 29603 29575 29522 29488 29435 29333 29389 29552 29687 29809 29918 30083 30187 30227 30133 29888 29692 29595 29583 29553 29565 29577 29455 29391 29412 29483 29587 29680 29750 29854 29867 29936 29926 29779 29621 29554 29579 29580 29606 29637 29548 29488 29736 30040 30372 30614 30787 30967 31118 31221 31283 31071 30800 30655 30646 30587 30601 30526 30465 30349 30184 30104 30078 30101 30143 30179 30164 30240 30163 29929 29770 29686 29701 29718 29707 29782 29837 29715 29468 29356 29484 29649 29869 30035 30158 30223 30232 30146 29993 29837 29782 29776 29755 29753 29730 29709 30135 30473 30746 30950 31175 31447 31673 31808 31997 31870 31725 31587 31510 31396 31388 31504 31406 31559 31783 31877 31893 31984 32065 32157 32267 32421 32478 32417 32357 32388 32374 32316 32349 32403 32518 32451 32518 32621 32670 32732 32769 32782 32844 32940 33030 32955 32833 32748 32740 32697 32719 32727 32766 32651 32501 32387 32433 32588 32805 33112 33337 33560 33554 33165 32932 32765 32462 32384 32451 32560 32666 32679 32637 32692 32760 32793 32817 32943 33180 33344 33354 33072 32761 32606 32486 32220 32208 32380 32503 32667 32714 32829 32887 33029 33156 33251 33264 33279 33310 33094 32855 32761 32673 32545 32492 32558 32476 32429 32417 32435 32435 32435 32446 32454 32390 32352 32307 32108 31792 31612 31402 31322 31335 31359 31274 31204 30950 30691 30495 30375 30372 30397 30519 30635 30669 30492 30230 30216 30052 30004 29996 30037 29772 29811 29911 30046 30186 30429 30666 30806 30967 30990 30965 30691 30348 30138 30017 29951 29908 29892 29718 29612 29547 29724 29864 29950 30079 30273 30407 30518 30621 30443 30262 30178 30144 30037 30059 30126 30015 30090 30252 30413 30556 30678 30864 31076 31353 31697 32002 31997 31906 31826 31710 31618 31666 31746 31656 31726 31825 31905 31937 32045 32153 32321 32470 32602 32723 32775 32612 32367 32127 31804 31716 31783 31670 31707 31912 32103 32197 32311 32349 32445 32554 32604 32693 32607 32452 32342 32121 31947 31898 31951 31810 31804 32091 32417 32670 32776 32840 32947 32989 33065 33010 32945 32760 32537 32402 32127 31954 32042 31954 31965 32329 32475 32582 32658 32688 32744 32702 32685 32624 32445 32166 31977 31882 31815 31778 31778 31719 31737 31797 31932 32049 32135 32233 32353 32522 32655 32803 32896 32810 32599 32347 32034 31940 31994 32061 32206 32400 32483 32581 32627 32696 32783 32924 33093 33323 33596 33440 33296 33032 32756 32683 32674 32582 32455 32642 32739 32686 32710 32703 32756 32851 32932 32997 32667 32138 31644 31416 31130 31096 31142 31012 30883 30824 30671 30450 30268 30213 30242 30336 30464 30485 30311 29877 29448 29162 28948 28877 28892 28857 28851 28765 28578 28670 28772 28653 28716 28905 29212 29741 29901 29941 29941 29793 29736 29754 29818 29800 29951 30419 30830 31147 31434 31662 31931 32181 32379 32389 32350 31999 31682 31472 31198 31150 31188 31121 30996 30841 30573 30355 30195 30102 30051 30049 30087 30143 30050 29697 29316 28992 28819 28731 28657 28533 28567 28583 28709 28842 28935 29172 29455 29839 30128 30457 30574 30446 30277 30069 29789 29695 29699 29690 29756 29857 29957 30042 30044 30107 30182 30300 30472 30647 30861 30929 30989 30940 30774 30710 30800 30925 30946 31094 31398 31508 31480 31464 31574 31606 31628 31636 31697 31481 31161 30918 30986 31207 31338 31389 31279 31329 31382 31530 31828 32031 32258 32477 32621 32666 32696 32698 32630 32561 32363 32290 32355 32438 32406 32606 32840 32971 33088 33067 32986 32889 32820 32772 32611 32270 31814 31569 31352 31246 31254 31314 31305 31336 31340 31432 31484 31569 31622 31655 31727 31783 31910 31726 31292 30995 30762 30575 30532 30502 30390 30343 30302 30222 30184 30193 30241 30350 30429 30535 30605 30457 29993 29656 29484 29345 29266 29276 29343 29324 29322 29232 29164 29219 29345 29579 29864 30235 30544 30762 30692 30627 30539 30477 30442 30526 30534 30638 30691 30769 30846 30854 30954 31014 31143 31442 31666 31695 31584 31455 31293 31100 31022 31057 31072 31019 31056 31041 31094 31211 31399 31480 31482 31572 31862 32098 31706 31351 31062 30723 30580 30594 30568 30670 30624 30462 30418 30460 30574 30647 30810 31021 31334 31599 31280 31100 30974 30771 30678 30691 30754 30546 30405 30204 30377 30488 30553 30634 30719 30839 30993 31164 30873 30666 30588 30492 30430 30441 30538 30453 30388 30372 30537 30725 30891 31131 31378 31626 31886 32056 32097 31907 31811 31696 31521 31462 31485 31556 31334 30968 30771 30806 30884 31000 31081 31126 31266 31386 31508 31563 31518 31463 31366 31251 31192 31232 31113 31034 31086 31252 31373 31396 31486 31573 31726 31845 31974 32007 31986 31959 31965 31797 31764 31879 31818 31847 31850 31992 32128 32148 32195 32253 32353 32507 32502 32358 31899 31524 31302 31172 31070 31022 31001 30697 30517 30492 30638 30722 30827 30967 31056 31108 31150 31148 30914 30688 30609 30547 30503 30497 30525 30361 30318 30317 30436 30631 30775 30884 31026 31097 31103 31137 31074 30917 30818 30829 30801 30826 30879 30769 30702 30668 30744 30840 30922 31016 31137 31239 31250 31307 31166 30973 30813 30790 30750 30754 30806 30781 30570 30600 30805 30922 31025 31184 31244 31309 31385 31435 31223 30924 30765 30615 30313 30274 30474 30464 30324 30231 30351 30484 30538 30687 30815 30884 30858 30792 30475 30169 30031 30022 29969 29947 30013 29794 29544 29381 29320 29322 29362 29390 29417 29466 29425 29289 28984 28728 28621 28569 28526 28506 28457 28375 28287 28340 28453 28595 28703 28902 29061 29108 29128 28897 28430 28136 28066 28062 28078 28145 28220 28075 27792 27690 27698 27880 28017 28246 28530 28758 28758 28887 29095 29149 29344 29460 29449 29449 29503 29504 29427 29369 29479 29690 29875 30038 30160 30290 30431 30522 30437 30448 30557 30570 30511 30490 30479 30364 30128 29913 29806 29799 29851 29944 30059 30158 30235 30010 29631 29359 29249 29246 29233 29262 29330 29193 28996 28820 28821 28906 29000 29094 29194 29312 29408 29256 29028 28893 28872 28901 28926 28993 28980 29155 29379 29644 29956 30191 30326 30419 30614 30777 31057 31139 31025 30946 30932 30995 31014 31074 31153 31035 30990 31049 31223 31304 31453 31635 31881 32149 32386 32525 32483 32490 32474 32492 32506 32504 32451 32437 32440 32558 32715 32857 33003 33199 33417 33523 33578 33423 33354 33317 33308 33263 33220 33236 33164 32934 32901 33037 33074 33208 33339 33470 33595 33699 33721 33537 33448 33346 33336 33299 33271 33257 33149 32870 32557 32317 32252 32210 32179 32195 32214 32280 32374 32347 32217 32106 32107 32172 32144 32079 31945 31775 31452 31239 31347 31570 31865 32209 32591 32867 33025 33082 33005 32941 32753 32512 32530 32573 32669 32700 32582 32299 31946 31641 31488 31559 31679 31769 31952 32010 32073 32081 32060 31961 31954 31989 31792 31552 31549 31762 31959 32035 32117 32265 32437 32665 32853 32773 32560 32314 32169 32098 32080 32105 32095 32187 32129 31975 31874 31855 31910 32063 32355 32686 32818 32906 32741 32556 32454 32241 32129 32188 32247 32480 32691 32881 33005 33125 33210 33324 33390 33395 33430 33366 33224 33160 33185 33166 33167 33194 33105 32939 32577 32339 32279 32283 32377 32456 32592 32719 32885 32862 32789 32765 32763 32644 32583 32598 32543 32473 32620 32703 32710 32755 32846 32922 33064 33166 33207 32993 32851 32728 32685 32614 32535 32594 32606 32348 32047 31705 31649 31704 31824 31971 32075 32185 32318 32348 32382 32475 32466 32435 32290 32247 32259 32033 31796 31823 32010 32150 32213 32336 32442 32601 32651 32737 32705 32622 32612 32551 32381 32320 32392 32348 32074 31993 31993 32068 32192 32392 32688 32912 33130 33248 33246 33092 33027 32935 32739 32575 32607 32619 32474 32612 32906 33234 33487 33607 33716 33809 33818 33826 33786 33611 33494 33447 33358 33264 33303 33297 33188 33151 33213 33240 33304 33344 33368 33445 33526 33534 33540 33422 33298 33220 33155 32988 33014 33032 32887 32779 32780 32807 32864 32878 32871 32837 32843 32806 32774 32551 32165 31909 31725 31587 31591 31607 31379 31165 31035 31111 31272 31400 31493 31590 31772 31892 32032 32074 31902 31818 31625 31419 31346 31349 31208 31154 31071 31071 31127 31187 31220 31276 31356 31425 31522 31604 31447 31322 31210 31032 30953 30947 30835 30589 30470 30502 30569 30674 30748 30822 30939 31067 31185 31245 30937 30575 30437 30451 30483 30473 30351 30101 29876 29813 29972 30066 30195 30298 30376 30399 30381 30353 30178 29926 29732 29668 29654 29583 29442 29246 29152 29112 29233 29324 29506 29654 29740 29851 29894 29881 29660 29433 29228 29228 29195 29135 28985 28820 28735 28732 28821 28938 29045 29113 29157 29206 29196 29078 28814 28610 28495 28521 28466 28381 28285 28082 27988 28030 28255 28527 28896 29230 29507 29770 30187 30525 30305 30064 29842 29723 29512 29454 29492 29378 29242 29124 28987 28913 28918 28959 29004 29062 29065 29085 28955 28801 28708 28667 28501 28420 28346 28382 28406 28507 28715 28958 29143 29276 29742 30206 30657 30980 31038 31103 31106 31164 31225 31228 31152 30916 30832 30980 31215 31418 31550 31667 31790 31911 31994 32089 32048 32033 32089 32223 32305 32322 32275 32088 31969 31874 31970 32032 32106 32136 32145 32119 32053 31974 31814 31730 31763 31864 31916 31962 31955 31784 31746 31789 31915 32045 32130 32244 32400 32560 32711 32877 32878 32841 32826 32813 32796 32726 32698 32573 32583 32707 32796 32881 32954 33127 33186 33261 33294 33355 33274 33159 33084 32981 32765 32591 32527 32407 32408 32391 32387 32389 32382 32390 32427 32464 32533 32649 32640 32322 32049 31970 31902 31735 31698 31606 31397 31394 31554 31737 31861 31961 32100 32210 32387 32536 32719 32804 32773 32788 32773 32676 32635 32625 32615 32679 32831 32916 33033 33153 33240 33374 33551 33694 33537 33390 33356 33349 33298 32892 32666 32688 32602 32499 32667 32863 33022 33093 33171 33258 33384 33501 33583 33520 33449 33343 33133 32725 32532 32516 32366 32166 32065 32188 32385 32548 32744 32888 32980 33060 33080 32982 32805 32613 32565 32489 32414 32438 32456 32303 32255 32260 32391 32498 32561 32683 32762 32820 32738 32656 32393 32077 31868 31669 31538 31518 31534 31486 31548 31593 31676 31783 31896 32007 32042 32051 32015 31999 31870 31602 31313 31232 31112 31058 31092 31006 31119 31306 31564 31800 31928 32067 32241 32446 32576 32699 32803 32777 32656 32503 32353 32292 32294 32239 32226 32266 32281 32312 32290 32313 32349 32437 32533 32547 32426 32132 31808 31612 31454 31404 31426 31361 31272 31128 30991 30895 30831 30826 30887 30927 30878 30746 30438 30050 29822 29674 29556 29467 29392 29363 29302 29284 29281 29428 29562 29637 29739 29760 29751 29562 29191 28747 28585 28459 28389 28370 28308 28321 28399 28463 28479 28616 28838 29028 29168 29296 29377 29165 28867 28564 28437 28249 28191 28249 28193 28137 28169 28265 28374 28537 28840 29076 29211 29252 29323 29176 28903 28654 28543 28403 28368 28415 28362 28320 28299 28272 28277 28386 28598 28859 29076 29176 29278 29208 28912 28583 28447 28469 28445 28552 28654 28611 28635 28620 28718 28834 29049 29189 29290 29424 29534 29556 29382 29151 28990 28943 28979 29002 29029 29115 29245 29325 29434 29474 29590 29729 29877 30071 30290 30351 30259 30041 29863 29840 29864 29901 29918 29883 29907 29883 29919 29981 30132 30254 30388 30470 30588 30707 30656 30624 30666 30787 30858 30962 31040 31143 31432 31703 32011 32258 32490 32613 32763 32934 33157 33322 33296 33187 33111 33087 33066 33095 33129 33035 33138 33177 33229 33231 33246 33218 33238 33309 33416 33482 33412 33294 33209 33194 33240 33180 33201 33168 33110 33105 33222 33298 33281 33284 33296 33350 33408 33478 33454 33264 33156 33077 33029 32905 32919 32900 32692 32655 32774 32871 32883 32908 32947 33004 33032 33070 32856 32526 32307 32230 32217 32143 32178 32237 32066 31905 31915 31944 31929 31913 31965 32023 32042 32064 31856 31543 31327 31237 31317 31315 31379 31398 31238 31095 30958 30968 30968 30981 31029 31097 31142 31245 31180 30933 30719 30577 30620 30596 30597 30631 30521 30446 30349 30369 30432 30487 30567 30620 30688 30785 30661 30390 30211 30235 30335 30338 30394 30423 30357 30227 30133 30136 30161 30269 30423 30673 30977 31436 31462 31495 31548 31606 31599 31642 31708 31664 31611 31523 31442 31491 31523 31645 31754 31890 32045 32099 31846 31669 31593 31616 31495 31496 31581 31380 31181 31026 31058 31108 31136 31194 31386 31644 31822 31786 31265 30983 30819 30798 30682 30622 30698 30788 30575 30627 30876 31117 31251 31414 31541 31703 31777 31771 31629 31511 31512 31579 31591 31632 31699 31630 31651 31741 31958 32166 32279 32429 32584 32752 32876 32991 33017 33024 33079 33199 33264 33309 33323 33249 33335 33425 33539 33673 33755 33847 33908 33980 34009 34089 34127 33999 33967 34004 33910 33860 33944 33823 33911 33972 33986 34058 34064 34069 34092 34129 34181 34207 34186 33944 33739 33664 33603 33594 33613 33521 33558 33583 33719 33780 33812 33803 33799 33860 33858 33907 33778 33539 33306 33288 33293 33195 33214 33227 33115 32850 32620 32693 32793 32832 32986 33065 33099 33140 33059 32620 32221 31994 32044 31886 31891 31977 32020 31837 31695 31773 31887 31982 32068 32190 32294 32394 32422 32173 31767 31479 31511 31391 31372 31480 31520 31328 31225 31177 31164 31198 31286 31414 31607 31811 32020 31945 31777 31599 31591 31416 31389 31475 31429 31413 31368 31421 31508 31621 31689 31811 31941 32145 32354 32201 32081 32004 31982 31828 31860 31966 31924 31715 31533 31605 31689 31834 31968 32097 32201 32291 32322 32058 31637 31382 31414 31382 31390 31498 31631 31534 31488 31495 31603 31694 31798 31930 32021 32030 32097 31964 31597 31332 31383 31390 31442 31552 31637 31466 31304 31279 31395 31529 31605 31711 31804 31895 32068 32273 32237 32234 32289 32373 32413 32459 32518 32523 32522 32428 32322 32285 32376 32517 32625 32700 32741 32848 32638 32285 32026 31947 31867 31859 31973 31924 31886 31820 31835 31904 32024 32177 32325 32431 32611 32823 32724 32675 32725 32730 32750 32800 32818 32862 32859 32899 32971 33064 33147 33255 33372 33379 33449 33421 33037 32750 32753 32688 32721 32888 33008 32955 32909 32944 33016 33130 33294 33407 33626 33796 33979 34167 34188 34111 34064 33924 33937 33921 33924 33975 33980 33971 33985 34075 34126 34155 34230 34206 34344 34469 34332 34297 34208 34006 33928 33896 33811 33702 33387 33097 32900 32796 32779 32806 32845 32972 33242 33078 32995 32952 32885 32613 32614 32703 32767 32790 32818 32874 32899 32911 32950 32964 32993 33092 33296 33314 33161 33049 32855 32582 32531 32626 32627 32700 32760 32820 32894 32962 33022 33134 33226 33342 33477 33522 33376 33237 33081 32849 32785 32853 32814 32819 32774 32709 32747 32780 32837 32890 32998 33119 33270 33331 33247 33131 33070 32932 32934 33011 32927 32899 32960 33043 33105 33211 33352 33467 33550 33580 33658 33688 33494 33413 33413 33346 33370 33400 33431 33414 33342 33453 33504 33589 33684 33741 33789 33818 33794 33623 33292 33027 32893 32738 32686 32755 32842 32832 32770 32742 32802 32823 32894 32974 33089 33164 33242 33202 33020 32880 32781 32552 32499 32555 32432 32390 32304 32313 32387 32434 32497 32493 32478 32510 32568 32381 32071 31833 31746 31701 31766 31859 31685 31550 31413 31515 31551 31633 31700 31767 31782 31791 31797 31483 31050 30825 30750 30709 30806 30978 30962 30963 31133 31380 31609 31912 32218 32493 32636 32776 32850 32650 32436 32288 32040 32046 32147 32063 32064 32180 32335 32215 32006 31911 31886 31867 31970 32160 32091 31703 31231 30927 30533 30357 30481 30412 30428 30370 30252 30329 30498 30669 30801 30965 31147 31259 31290 31150 30842 30552 30414 30257 30228 30304 30290 30241 30051 29681 29393 29359 29502 29743 29914 30010 30085 29963 29557 29278 29177 29070 29075 29167 29219 29171 29265 29290 29414 29568 29806 30012 30185 30314 30407 30305 29981 29715 29646 29612 29701 29853 29899 29862 29859 30017 30245 30430 30660 30768 30814 30851 30820 30703 30276 29915 29848 29774 29745 29836 29897 29781 29666 29562 29650 29748 29927 30058 30144 30193 30191 30107 29592 29204 29073 28991 28943 29029 29125 29078 28993 28859 28884 28913 29021 29196 29404 30064 30744 31285 31428 31438 31322 31248 31298 31403 31529 31712 31839 31945 32044 32139 32231 32298 32409 32480 32653 32813 32659 32514 32394 32294 32315 32373 32395 32227 32163 31973 31887 31987 32158 32285 32373 32469 32489 32539 32339 32200 32137 32096 31921 31976 32164 32180 32215 32231 32312 32445 32536 32631 32680 32678 32683 32710 32501 32388 32415 32393 32213 32200 32275 32375 32411 32382 32480 32536 32610 32668 32727 32744 32779 32684 32156 31646 31524 31622 31541 31534 31586 31481 31339 31338 31417 31463 31592 31730 31756 31807 31780 31549 30985 30661 30578 30420 30405 30456 30409 30246 30010 29702 29751 29830 29907 30000 30070 30127 30170 30044 29511 29111 28907 28887 28793 28755 28846 28774 28729 28702 28751 28930 29023 29191 29323 29496 29593 29593 29126 28672 28436 28427 28302 28321 28441 28413 28348 28284 28315 28414 28586 28802 28954 29016 29052 29072 28653 28266 28047 28072 28121 28195 28287 28250 28172 27924 27818 27890 28096 28274 28385 28499 28595 28416 28007 27636 27474 27519 27511 27509 27526 27586 27453 27188 27013 27004 27130 27265 27475 27633 27760 27636 27286 26976 26906 26938 26939 26959 27018 27107 27075 26911 26883 26986 27214 27396 27583 27699 27735 27407 26908 26518 26458 26475 26518 26585 26659 26702 26582 26473 26510 26673 26854 27065 27283 27416 27437 27262 26934 26703 26703 26816 26892 26993 26975 27015 27061 27105 27271 27478 27660 27843 28010 28095 28094 27803 27451 27344 27310 27344 27487 27618 27617 27684 27749 27872 28029 28304 28680 28942 29073 29181 29070 28711 28346 28274 28188 28175 28254 28348 28306 28443 28879 29257 29629 29917 30187 30400 30438 30544 30538 30296 30176 30323 30530 30720 30937 30962 30929 30961 30922 30773 30728 30842 30895 30919 31117 31328 31492 31508 31487 31491 31378 31356 31436 31532 31585 31656 31779 31790 31863 32068 32371 32732 33015 33223 33215 33019 32853 32824 32817 32880 32950 33041 33118 33152 33285 33363 33471 33559 33702 33869 33971 33891 33750 33636 33373 33191 32942 32895 32849 32679 32641 32733 32928 33089 33194 33305 33416 33553 33569 33511 33298 33016 32774 32432 32059 31985 32083 31981 32027 32377 33019 33386 33702 33893 34008 34105 34082 34163 34149 33986 33792 33595 33493 33522 33635 33712 33808 33853 33900 33892 33837 33860 33970 34083 34166 34324 34425 34296 34140 33926 33800 33803 33823 33765 33757 33800 33903 34047 34139 34227 34285 34392 34455 34450 34126 33676 33159 32580 32196 32174 32299 32293 32349 32594 32824 32912 32970 33021 33122 33279 33405 33553 33599 33431 33187 32849 32455 32290 32244 32059 31996 32024 32117 32214 32369 32572 32732 32881 32923 33010 33055 32909 32674 32402 32061 31978 31987 31836 31905 32001 32141 32293 32425 32556 32684 32771 32793 32773 32679 32293 31973 31862 31711 31748 31947 31959 32037 32201 32327 32496 32587 32717 32883 33008 33127 33258 33338 33182 32983 32714 32365 32284 32224 32091 31989 31944 31991 32017 32054 32078 32093 32081 32099 32067 31774 31353 31041 30849 30751 30659 30590 30578 30688 30821 30943 31075 31157 31177 31214 31327 31329 31271 31296 31329 31503 31579 31589 31746 31962 31909 31965 31826 31933 31861 31760 31711 31738 31836 31984 32077 32077 31950 31723 31486 31317 31368 31295 31327 31609 32033 32359 32485 32667 32836 33004 33072 33067 32823 32603 32343 31915 31491 31298 31221 31065 31040 31197 31454 31607 31666 31785 31772 31679 31572 31550 31296 30888 30442 30210 29844 29727 29744 29674 29705 29683 29688 29862 29912 30003 30086 30232 30540 31002 31132 30935 30646 30361 29982 29792 29786 29793 29875 30076 30378 30696 30869 31078 31327 31551 31706 31969 31915 31773 31577 31313 31044 30969 30944 30812 30729 30693 30818 30955 31092 31170 31306 31397 31501 31458 31050 30596 29995 29592 29360 29227 29214 29320 29169 29067 29144 29359 29406 29430 29499 29634 29746 29797 29625 29029 28375 27977 27748 27624 27758 27823 27682 27610 27615 27810 28026 28140 28300 28436 28638 28857 28965 28789 28379 28131 27984 27854 27850 27804 27734 27713 27670 27700 27713 27799 28021 28306 28550 28827 28971 28671 28225 27821 27677 27625 27653 27756 27710 27702 27772 27972 28226 28460 28728 29013 29320 29655 29830 29470 28920 28521 28370 28259 28269 28344 28245 28168 28053 27936 28085 28242 28538 28799 29001 29058 29054 28773 28346 28076 27939 27904 27930 28040 28091 28027 27885 27804 28015 28141 28405 28661 28878 28990 29050 28843 28374 28043 27864 27949 27983 28039 28088 28025 27914 27762 27828 27961 28143 28271 28423 28572 28645 28530 28142 27842 27701 27733 27785 27872 27948 27899 27713 27565 27690 28012 28265 28495 28859 29473 30378 30586 30476 30488 30546 30542 30550 30563 30607 30496 30256 29915 29800 29879 29923 30000 30126 30370 30743 31001 31084 30720 30445 30270 30131 30065 30041 30095 29862 29642 29528 29870 30209 30471 30637 30717 30752 30573 30231 29970 29936 29954 29999 30046 30040 29934 29683 29282 29030 29021 29292 29513 29795 30026 30105 29984 29825 29580 29265 29067 28953 28984 28993 28985 28879 28572 28381 28448 28703 28889 29175 29371 29533 29534 29389 29237 28874 28664 28637 28694 28723 28722 28732 28613 28670 28806 29031 29319 29521 29742 30202 31038 31454 31698 31752 31727 31658 31534 31338 31115 31002 30891 30845 31055 31690 32085 32301 32473 32646 32793 32807 32976 33035 32966 32928 32871 32795 32676 32593 32459 32210 32520 32663 32867 33045 33206 33246 33260 33342 33423 33517 33428 33292 33205 33022 32782 32802 32893 32857 32838 32870 32954 32999 33126 33211 33274 33338 33433 33595 33810 33714 33610 33438 33182 33004 33109 33332 33505 33749 33970 34119 34212 34255 34267 34263 34238 34220 33758 33221 32864 32505 32040 31802 31802 31999 31761 31811 32019 32122 32289 32411 32542 32723 32847 32900 32748 32255 31791 31489 31219 31015 30999 31134 31083 31108 31194 31303 31267 31198 31139 31040 31028 31087 30924 30597 30258 29969 29753 29605 29607 29677 29536 29369 29253 29184 29020 29002 29187 29423 29677 29821 29952 29723 29325 28927 28671 28485 28475 28521 28506 28538 28762 29074 29372 29745 30102 30397 30353 30329 30388 30241 29961 29699 29553 29436 29465 29577 29521 29664 29891 30118 30235 30451 30573 30613 30660 30727 30755 30415 29825 29371 29365 29484 29638 29770 29883 29733 29543 29498 29501 29615 29774 29922 30057 30074 30080 29659 29185 28838 28819 28771 28790 29084 29363 29325 29565 29870 30039 30286 30528 30825 31269 31599 31738 31791 31570 31490 31511 31441 31488 31612 31793 31721 31867 32115 32338 32649 32835 32997 33120 33276 33405 33336 33062 32875 32812 32586 32400 32382 32367 32138 31710 31472 31401 31366 31379 31433 31426 31423 31175 30721 30215 29907 29773 29733 29813 29901 30060 30291 30317 30369 30438 30606 30751 30771 30891 30959 31095 31367 31578 31741 31562 31530 31567 31656 31735 31826 32109 32333 32363 32410 32540 32669 32819 32893 33020 33117 33118 33089 32839 32762 32649 32583 32567 32006 31486 31598 31906 32107 32373 32521 32702 32786 32779 32741 32297 31990 31915 31867 31785 31770 31756 31454 31186 31057 31149 31249 31408 31537 31642 31597 31337 31003 30630 30408 30352 30337 30269 30324 30219 29777 29421 29227 29311 29403 29584 29805 29987 30094 30038 29793 29317 28994 28876 28759 28717 28741 28663 28370 28143 28133 28332 28589 28783 29034 29206 29275 29213 29047 28682 28339 28141 28167 28162 28171 28110 27997 27845 28063 28766 29503 30057 30577 30931 31149 31315 31475 31408 31274 31128 31126 30955 30825 30783 30693 30528 30741 31026 31265 31424 31580 31726 31886 31971 32139 32041 31808 31629 31587 31414 31315 31262 31123 31054 31110 31134 31101 31085 31125 31274 31439 31509 31534 31391 31094 30844 30736 30677 30609 30585 30401 30247 30150 30179 30363 30542 30742 30912 30986 30958 30837 30552 30299 30181 30230 30190 30171 30122 29927 29695 29561 29648 29869 30099 30419 30628 30684 30738 30647 30353 30088 29997 30111 30066 30061 30008 29794 29582 29649 30001 30526 31046 31690 32126 32336 32404 32151 31704 31369 31304 31330 31251 31272 31261 31131 31088 31447 31752 31922 31997 32152 32314 32453 32518 32407 32181 32064 32076 32010 31934 31967 31861 31751 31642 31872 32244 32598 32852 33060 33166 33262 33209 33075 32789 32597 32557 32521 32354 32225 32067 31813 31524 31688 31967 32122 32251 32289 32374 32432 32460 32298 31794 31400 31317 31469 31426 31413 31309 31133 30792 30904 31353 31707 32075 32271 32510 32618 32672 32597 32284 31862 31691 31733 31670 31666 31633 31450 31063 31204 31394 31423 31416 31487 31560 31522 31351 31129 30822 30579 30438 30566 30533 30547 30497 30250 30001 30229 30834 31034 31328 31458 31629 31890 32231 32594 32736 32640 32587 32565 32562 32439 32328 32116 31732 31708 31937 32122 32273 32395 32438 32427 32287 32135 31784 31461 31297 31358 31249 31241 31225 31034 30872 31360 31794 32030 32305 32537 32706 32757 32742 32844 32922 32939 32977 32661 32549 32523 32570 32993 32799 32883 32979 32992 33071 33216 33284 33296 33214 32909 32454 32100 31945 31722 31662 31641 31504 31138 30759 30543 30583 30673 30762 30826 30910 30929 30732 30277 29828 29426 29291 29206 29234 29316 29233 29019 28798 28599 28593 28698 28832 28971 29151 29282 29167 28876 28671 28587 28550 28547 28587 28702 28859 28860 29095 29525 29906 30080 30346 30428 30455 30772 31012 30975 30811 30672 30622 30560 30467 30339 30253 30060 29895 29707 29676 29735 29898 30075 30274 30313 29858 29406 29182 29191 29279 29355 29422 29499 29367 29059 28867 28810 28868 29015 29168 29296 29463 29659 29578 29346 29160 29116 29144 29214 29348 29589 29667 29695 29720 29738 29863 30001 30069 30097 30052 29930 29906 29936 29951 30121 30316 30509 30588 30667 30755 30701 30745 30803 30932 30990 31120 31176 31298 31254 31121 31037 31023 31016 31049 31041 31113 31363 31429 31428 31456 31533 31611 31635 31680 31700 31647 31528 31455 31394 31369 31397 31428 31461 31541 31509 31478 31442 31451 31491 31539 31558 31645 31627 31452 31212 31041 30913 30894 30939 30861 30882 30835 30844 30740 30623 30610 30650 30962 31520 31866 31801 31629 31504 31427 31342 31363 31329 31267 31264 31234 31224 31381 31445 31600 31694 31833 31931 32023 31868 31740 31538 31192 31027 31102 31044 31175 31400 31760 32068 32150 32183 32238 32524 32983 33363 33424 33335 33095 32634 32243 32085 32019 31992 32072 32253 32526 32536 32407 32197 32091 32101 32229 32173 31713 31408 31086 30704 30436 30324 30297 30075 30015 29970 29973 30062 30092 30225 30362 30572 31040 31093 31220 31586 31618 31520 31507 31552 31761 32147 32281 32626 32771 32885 32899 32971 33094 33253 33339 33094 33017 33069 33109 32873 32737 32704 32482 32197 31830 31749 31996 32171 32429 32648 32800 32825 32723 32383 32282 32253 32286 32124 32066 32036 31933 31839 31890 31904 31880 31909 31962 32054 32148 32216 32203 31996 31799 31625 31526 31432 31431 31402 31344 31528 31834 32282 32568 32780 32988 33153 33238 33311 33307 33322 32993 32553 32221 32007 31907 31892 31752 31690 31588 31472 31404 31326 31275 31246 31224 31235 31426 31616 31676 31508 31390 31457 31565 31655 31756 31888 32048 32293 32513 32610 32650 32694 32879 33198 33020 32941 32925 32784 32482 32225 32029 31992 32198 32800 33216 33447 33421 33376 33392 33416 33356 33321 32998 32720 32419 32105 31887 31830 31783 31793 31898 32315 32594 32827 32790 32772 32799 32822 32852 32894 32750 32456 32076 31748 31567 31559 31611 31531 31605 31699 31816 31924 31952 32094 32193 32267 32329 32413 32468 32271 31897 31663 31596 31623 31763 31774 31846 31990 32151 32292 32416 32620 32857 33090 33350 33653 33743 33561 33227 32842 32508 32394 32389 32264 32091 31973 31679 31502 31441 31495 31687 31845 31962 32013 31896 31496 31211 31214 31294 31392 31563 31453 31360 31301 31216 31190 31171 31245 31313 31430 31595 31642 31534 30966 30463 30295 30206 30161 30214 30238 30118 30018 29852 29815 29877 30109 30287 30449 30602 30708 30643 30125 29672 29428 29462 29426 29498 29627 29511 29279 28955 28897 29062 29256 29495 29696 29891 30050 29870 29352 28893 28687 28750 28765 28858 28986 28887 28662 28334 28325 28586 28794 29050 29275 29465 29530 29238 28676 28266 28115 28261 28307 28443 28615 28508 28231 27914 27938 28308 28509 28854 29145 29388 29388 29143 28707 28474 28411 28551 28668 28794 28905 28627 28336 28195 28349 28620 28812 29118 29392 29604 29571 29384 29011 28794 28704 28838 28979 29111 29213 29031 28752 28548 28490 28715 29002 29214 29404 29565 29467 29377 29213 29174 29231 29355 29533 29634 29592 29430 29308 29268 29308 29561 29838 30086 30298 30419 30392 30276 30115 29952 29923 29969 30010 30036 29907 29686 29553 29522 29741 30096 30439 30640 30819 30764 30535 30188 29868 29726 29759 29745 29800 29838 29667 29470 29328 29392 29672 30027 30325 30540 30665 30561 30292 29996 29785 29765 29827 29891 29966 30004 29798 29617 29537 29624 29781 29998 30225 30452 30577 30484 30255 29965 29767 29779 29855 29950 30079 30051 29799 29681 29680 29977 30166 30369 30728 31020 31226 31254 30993 30749 30609 30908 31108 31362 31588 31571 31079 30865 31038 31282 31789 32262 32568 32744 32656 32255 31701 31260 31039 31128 31060 31037 31083 30809 30523 30458 30691 30708 30842 31030 31227 31332 31384 31147 30795 30550 30548 30654 30733 30809 30910 30690 30365 30189 30182 30462 30689 31003 31274 31453 31444 31266 31007 30645 30417 30459 30407 30445 30532 30387 30089 29992 30143 30416 30741 31061 31453 31652 31774 31761 31458 31072 30812 30827 30768 30769 30761 30615 30299 30112 30094 30279 30566 30852 31162 31334 31430 31271 30874 30491 30305 30394 30386 30454 30471 30291 30026 29879 30096 30448 30786 31226 31414 31475 31303 31045 30616 30214 30032 30158 30114 30181 30250 30086 29803 29592 29559 29840 30141 30422 30632 30764 30655 30533 30207 29946 29843 29944 30002 30113 30175 29904 29710 29610 29787 29976 30264 30578 30953 31206 31262 31087 30669 30376 30190 30236 30221 30255 30273 29957 29745 29677 29971 30307 30538 30785 31039 31298 31302 30914 30525 30190 30156 30189 30212 30268 30298 30054 29893 29855 30031 30331 30580 30928 31132 31311 31200 30918 30516 30225 30081 30134 30122 30127 30170 29979 29598 29604 30072 30448 30951 31555 32095 32498 32658 32434 32355 32419 32669 32618 32664 32832 32856 32426 32114 32296 32605 32869 33103 33272 33434 33574 33520 33134 32807 32650 32836 32664 32686 32791 32798 32531 32187 31944 31804 31755 31804 32008 32150 32252 31978 31344 30939 30674 30571 30429 30393 30484 30406 30295 30443 30715 30997 31209 31354 31587 31658 31776 31944 31701 31343 31151 31027 30976 31015 31169 31690 31607 31648 31781 31954 32270 32479 32525 32515 32499 32279 31814 31380 31053 30939 30907 30911 30952 30821 30508 30307 30250 30502 30804 31114 31339 31518 31554 31443 31066 30683 30442 30394 30384 30370 30397 30437 30334 30128 29932 29918 30050 30236 30396 30511 30605 30349 29775 29383 29209 29166 29177 29248 29179 29304 29225 29114 29157 29348 29616 29915 30176 30260 30263 30028 29658 29428 29343 29356 29371 29401 29515 29431 29312 29132 29046 29143 29330 29478 29700 29832 29858 29676 29445 29375 29426 29427 29476 29571 29776 29622 29497 29436 29518 29801 30059 30292 30565 30806 30800 30350 29905 29640 29588 29645 29763 29859 29888 29769 29627 29575 29714 30020 30337 30549 30694 30787 30735 30363 29918 29609 29497 29484 29535 29601 29612 29322 29164 29046 29214 29474 29699 29932 30136 30287 30227 29922 29558 29331 29239 29237 29336 29403 29444 29198 29024 28906 28979 29299 29604 29854 30032 30136 29945 29777 29405 29157 29101 29124 29221 29365 29488 29285 29165 29206 29500 29907 30253 30568 30796 30877 30750 30452 30116 29826 29719 29889 29882 29930 29872 29651 29442 29476 29622 30043 30437 30745 30922 31085 30930 30652 30401 30190 30137 30197 30250 30345 30345 30171 30129 30316 30788 31237 31602 31877 32162 32328 32222 31886 31484 31373 31412 31428 31471 31435 31213 31013 31012 31088 31159 31346 31523 31729 31854 31828 31736 31759 31628 31505 31422 31400 31450 31415 31332 31147 31059 31065 31194 31410 31604 31798 32008 32029 31892 31377 31136 31320 31728 32088 32314 32356 32130 31950 31864 31901 32031 32240 32426 32546 32487 32286 32172 32095 32102 32156 32274 32436 32556 32426 32280 32164 32136 32211 32365 32546 32713 32860 32683 32422 32265 32135 32163 32208 32316 32431 32524 32363 32230 32102 32078 32125 32279 32460 32674 32767 32522 32365 32223 32165 32224 32294 32456 32605 32691 32647 32398 32468 32761 32951 33115 33211 33354 33544 33627 33687 33820 33824 33862 33948 34022 34097 34162 34039 33599 33114 32710 32539 32482 32446 32485 32565 32644 32519 32217 31754 31343 31085 31051 31013 30949 30710 30348 30310 30514 30711 30940 31115 31293 31444 31572 31627 31443 30997 30620 30457 30426 30371 30357 30365 30230 31010 31744 32274 32522 32695 32900 33112 33274 33458 33690 33808 33911 33975 34071 34111 34091 34113 34022 33884 33563 33385 33373 33526 33834 34161 34334 34360 34001 33421 33055 32899 32643 32638 32671 32594 32217 31952 31942 32245 32481 32560 32602 32615 32542 32269 32012 31675 31449 31288 31209 31182 31239 31213 30774 30494 30389 30491 30603 30680 30788 30908 31028 31040 30776 30374 30052 29868 29740 29750 29836 29920 29720 29525 29363 29364 29499 29609 29826 29983 30106 30062 29851 29528 29227 29073 28983 29021 29109 29177 28872 28358 28187 28209 28237 28352 28457 28613 28858 28925 28730 28247 27938 27857 27975 28065 28212 28359 28340 28002 27847 28225 28811 29180 29576 29851 30008 29903 29601 29238 28878 28632 28586 28559 28630 28743 28754 28477 28296 28335 28406 28594 28722 28958 29173 29276 29168 29012 28793 28523 28433 28451 28565 28637 28649 28545 28507 28558 28621 28728 28889 29023 29182 29316 29356 29383 29404 29266 29224 29211 29168 29203 29192 29105 28964 28924 28942 29051 29278 29541 29790 29967 30040 30039 30040 29907 29829 29770 29767 29849 29865 29818 29733 30006 30466 30953 31368 31574 31783 31867 31916 31931 31837 31517 31299 31213 31252 31320 31392 31323 31018 30808 30666 30694 31045 31274 31577 31766 31846 31748 31570 31256 30992 30899 30983 30969 30980 30926 30583 30430 30284 30344 30577 30693 30961 31159 31281 31166 31039 30769 30529 30539 30568 30614 30674 30633 30365 30200 30088 30101 30281 30471 30661 30869 31006 30894 30816 30567 30384 30266 30306 30370 30440 30415 30220 30050 30019 30164 30392 30570 30747 30986 31208 31239 31097 30790 30467 30252 30204 30248 30277 30303 30240 30080 29971 30065 30267 30467 30753 31054 31212 31188 31008 30748 30456 30262 30311 30340 30348 30419 30378 30120 29981 30019 30117 30360 30566 30867 31029 30976 30770 30487 30165 29918 29803 29792 29820 29902 29856 29566 29258 29032 29024 29314 29579 29880 30149 30287 30268 30146 29747 29359 29128 29215 29163 29149 29139 28986 28925 29109 29645 29951 30252 30381 30644 30783 31068 31664 31898 31981 32058 32085 31894 31722 31540 31404 31012 30900 30836 30913 31058 31245 31502 31763 32115 32597 32678 32384 31983 31757 31722 31591 31492 31487 31205 31023 30924 30900 30923 31016 31101 31157 31245 31309 31261 30964 30743 30703 30818 30599 30422 30395 30401 30327 30683 31581 32223 32733 32986 33148 33266 33258 33246 33005 32499 32327 32442 32125 32008 32024 31962 32059 32313 32633 32840 33005 33096 33241 33408 33566 33689 33354 32925 32812 32896 33145 33193 33258 33309 33302 33229 33066 33065 33181 33273 33201 33125 33139 33188 33122 33004 32910 32901 32892 32827 32846 32882 32938 32957 32903 32932 33046 33145 33103 33044 33031 33046 32962 32779 32724 32725 32721 32677 32677 32706 32729 32718 32695 32724 32839 32910 32842 32771 32766 32748 32635 32526 32553 32667 32808 32784 32746 32814 32779 32690 32615 32595 32633 32719 32616 32558 32540 32523 32482 32337 32269 32249 32214 32044 31948 31980 31988 31967 31927 32003 32035 32099 32154 32211 32241 32373 32448 32490 32635 32745 32830 32838 32825 32848 32808 32761 32729 32794 32879 32987 33113 33113 33095 33192 33322 33578 33649 33630 33615 33423 33240 33094 33017 33149 33373 33522 33520 33479 33441 33421 33528 33688 33864 33888 33540 33131 32754 32174 31862 31703 31571 31174 31130 31131 31167 31268 31425 31540 31623 31705 31723 31535 31231 30867 30475 30132 29942 29864 29831 29737 29598 29598 29691 29998 30133 30324 30434 30492 30458 30200 29857 29510 29263 29047 28955 28950 28903 28912 28925 28941 29082 29155 29235 29287 29373 29365 29427 29381 29149 28837 28566 28335 28291 28321 28434 28380 28451 28523 28615 28610 28599 28664 28807 29002 29155 29158 28989 28690 28357 28168 28166 28232 28281 28229 28298 28328 28431 28461 28509 28607 28709 28875 29068 29136 29008 28747 28545 28456 28439 28508 28586 28567 28590 28685 28869 29002 29094 29345 29570 29765 29907 29909 29669 29275 28893 28768 28698 28669 28685 28589 28632 28673 28691 28861 29132 29508 29971 30347 30563 30677 30447 30019 29691 29588 29485 29407 29449 29388 29256 29318 29432 29611 29783 29936 30163 30331 30481 30552 30464 30098 29824 29691 29714 29697 29801 29860 29746 29702 29541 29398 29554 29775 29973 30149 30268 30369 30343 29968 29579 29345 29293 29278 29324 29468 29480 29537 29334 29100 29033 29140 29294 29531 29720 29820 29801 29457 29140 28996 29083 29108 29241 29364 29249 29148 28900 28682 28706 28853 28980 29206 29437 29635 29681 29296 28905 28663 28623 28678 28743 28875 28855 28829 28660 28548 28618 28763 28911 29070 29247 29441 29398 29127 28725 28462 28409 28466 28552 28714 28825 28716 28554 28478 28481 28640 28877 29163 29364 29607 29513 29210 28710 28252 28014 28049 28163 28294 28459 28411 28173 28033 28096 28207 28550 28848 29175 29451 29595 29515 29222 28824 28521 28401 28541 28707 28729 28642 28513 28326 28283 28262 28418 28751 28988 29179 29209 29173 29124 29041 28826 28660 28608 28686 28792 28799 28797 28961 29151 29445 29659 29915 30114 30212 30313 30451 30703 30979 31249 31425 31642 31898 31973 31909 31701 31462 31433 31438 31569 31705 31746 31836 31852 31945 31986 32043 32076 32024 31973 31948 31860 31801 31715 31494 31285 31318 31557 31871 32069 32246 32349 32517 32816 33128 33298 33166 32880 32621 32407 32258 32235 32218 32094 31994 31986 32078 32089 32068 32098 32179 32347 32444 32568 32741 32535 32287 32097 31876 31762 31757 31849 31703 31741 31819 32004 32203 32318 32407 32564 32746 32921 33064 33018 32786 32756 32889 33121 33400 33622 33693 33905 33980 34102 34216 34344 34463 34579 34621 34692 34764 34790 34912 34981 34928 34810 34804 34769 34866 34971 35085 35199 35233 35228 35110 34971 34824 34791 34815 34924 35047 34994 34930 34950 34917 34909 34966 34939 34889 34852 34828 34801 34811 34810 34828 34812 34809 34666 34244 33786 33381 33165 33024 32986 32990 32842 32518 32152 31795 31581 31522 31564 31716 31821 31868 31712 31235 30639 30171 29926 29827 29865 29888 29967 29746 29380 29083 28916 29000 29138 29283 29479 29609 29587 29362 29007 28647 28457 28382 28349 28441 28561 28517 28185 27854 27618 27676 27888 28080 28340 28526 28566 28444 28179 27834 27620 27652 27728 27796 27981 28070 27749 27602 27537 27624 27959 28231 28559 29000 29237 29325 29132 28733 28365 28193 28296 28356 28376 28253 28045 27902 27894 28033 28177 28401 28528 28707 28842 28828 28821 28661 28424 28266 28231 28262 28302 28280 28247 28223 28152 28157 28139 28204 28389 28707 29039 29369 29641 29826 29622 29442 29340 29324 29340 29310 29258 29158 29070 29086 29142 29252 29338 29525 29690 29800 29888 29932 29748 29588 29545 29772 29729 29642 29596 29409 29333 29413 29750 30145 30507 30770 31097 31357 31551 31810 31811 31681 31667 31814 32088 32239 32294 32310 32144 32128 32296 32538 32796 32873 32984 33044 33063 33134 32997 32519 32381 32496 32606 32568 32541 32476 32402 32140 32065 32209 32475 32772 32946 33084 33247 33360 33421 33044 32578 32172 31949 31758 31572 31542 31651 31742 31816 32065 32556 32858 33131 33410 33626 33860 34033 34133 33722 32999 32544 32214 32123 32014 31942 31750 31575 31418 31288 31243 31261 31397 31546 31602 31671 31678 31445 31037 30725 30587 30519 30492 30557 30473 30245 30046 29788 29682 29955 30312 30713 30948 31139 31223 31228 30528 29960 29766 29886 29879 29896 30030 30041 29984 29908 29842 29875 30002 30256 30384 30495 30605 30617 29961 29273 28984 28951 28836 28865 28991 28827 28740 28604 28701 28923 29149 29492 29798 30045 30171 30264 29690 29020 28637 28703 28763 28901 29156 29214 28919 28654 28570 28715 28942 29279 29633 29889 30027 30105 29572 28885 28606 28779 28616 28626 28767 29054 29019 28995 29092 29564 29996 30514 30941 31403 31832 32067 31822 31219 30902 30779 30725 30778 30917 31047 31159 30857 30672 30616 30682 30769 30910 30998 31242 31761 32208 32315 32372 32488 32619 32813 33032 32996 32804 32786 33015 33197 33276 33371 33437 33552 33748 33918 34328 34520 34422 34439 34496 34548 34615 34575 34382 34162 34069 34053 34087 34108 34183 34260 34322 34375 34520 34234 33764 33507 33308 33218 33254 33232 32993 32613 32349 32187 32035 31904 31823 31799 31698 31558 31458 31348 31167 31023 30943 30972 30932 30846 30739 30569 30387 30369 30439 30453 30602 30705 30822 30787 30756 30734 30622 30434 30286 30215 30287 30230 30207 30250 30091 30183 30442 30901 31205 31534 31665 31795 31926 31973 31994 31526 31155 31053 31072 31040 31009 31003 30725 30670 30639 30771 30980 31140 31322 31496 31603 31732 31725 31326 31070 31017 30972 30771 30636 30665 30604 30286 30239 30346 30487 30700 30791 31001 31110 31337 31511 31521 31104 30735 30410 30378 30252 30275 30380 30336 30436 30579 30723 30870 30911 30912 30980 31022 31061 31043 31047 30778 30409 30121 30106 30253 30470 30693 30876 30952 31160 31313 31259 31241 31311 31452 31748 32181 32576 32374 31899 31390 31118 31111 31130 31281 31291 30996 30960 31050 31108 31143 31256 31412 31653 32065 32330 32091 31950 31886 31735 31668 31721 31770 31694 31315 31065 30848 30837 30893 31028 31164 31346 31578 31670 31186 30690 30302 30210 30285 30179 30340 30421 30230 30033 29994 30106 30238 30504 30680 30903 31129 31367 31335 30316 29827 29665 29732 29578 29536 29616 29679 29420 29641 30091 30616 30889 31169 31444 31664 31819 31983 31938 31784 31590 31433 31267 31194 31194 31070 30432 30124 29940 29805 29718 29740 29775 29900 30012 29993 29785 29555 29347 29231 29225 29273 29369 29192 28932 28822 28814 28907 29071 29293 29535 29743 29760 29614 29341 29009 28766 28669 28704 28762 28809 28771 28447 28286 28295 28338 28459 28625 28813 28883 28850 28811 28767 28561 28391 28347 28432 28547 28660 28721 28653 28507 28521 28627 28751 28964 29182 29331 29343 29291 29242 29209 29063 28956 28997 29090 29124 29184 29190 29106 29107 29151 29204 29379 29568 29714 29793 29827 29842 29871 29769 29624 29562 29519 29531 29560 29685 29557 29513 29560 29607 29701 29825 29950 30064 30145 30202 30250 30179 30051 29953 29893 29866 29937 30121 30209 30044 30046 30149 30307 30338 30334 30421 30533 30654 30677 30613 30475 30295 30211 30289 30318 30427 30455 30401 30201 30175 30223 30324 30357 30520 30683 30864 31024 31092 30990 30708 30518 30423 30529 30723 30860 30924 30944 30733 30573 30404 30284 30355 30488 30622 30768 30927 31104 31027 30673 30312 30101 30094 30154 30224 30302 30188 29898 29686 29581 29661 29833 30068 30211 30302 30400 30311 29928 29584 29359 29405 29497 29601 29741 29753 29371 29152 29076 29306 29541 29840 30105 30298 30396 30118 29586 29194 29088 29252 29362 29404 29576 29628 29588 29594 29835 30218 30478 30781 31145 31660 32140 32364 31990 31323 30855 30464 30408 30452 30566 30415 29934 29612 29456 29515 29663 29894 30164 30399 30465 30476 30103 29738 29458 29384 29431 29554 29698 29597 29192 28909 28777 28907 29246 29457 29735 29951 30034 29939 29616 29314 29146 29054 29196 29296 29416 29326 28890 28694 28669 28901 29175 29360 29596 29740 29755 29585 29255 28944 28770 28760 28895 29013 29061 28995 28918 28885 28894 28957 29069 29211 29283 29387 29456 29548 29548 29301 29083 28884 28896 28903 28960 28897 28670 28597 28546 28404 28444 28704 28889 29179 29288 29366 29334 29239 29085 29009 29000 29056 29073 29069 29066 29076 29191 29277 29414 29625 30021 30348 30537 30604 30577 30507 30282 30148 30012 29919 29874 29845 29915 29998 29874 29775 29805 30193 30636 30850 31105 31378 31656 31893 32130 31978 31478 31201 31161 31131 31114 30928 30813 30810 31551 32013 32174 32285 32400 32550 32770 33019 33243 33371 33424 33370 33289 33182 33114 32988 32925 32846 32525 32388 32225 32090 31969 31914 31949 32026 32068 32082 31898 31470 31012 30812 30685 30695 30752 30733 30415 30226 30077 29935 30017 30061 30112 30213 30347 30442 30352 29813 29341 28977 28978 28951 28951 28971 28978 28865 28782 28499 28327 28393 28594 28761 29114 29442 29564 29234 28563 28130 27956 28078 28153 28382 28533 28403 28090 27769 27757 27972 28365 28655 28878 29404 30042 30655 30732 30611 30300 30093 30055 30099 30178 30050 29327 28971 28880 28955 29075 29196 29409 29590 29557 29281 28899 28370 28012 27829 28023 28220 28410 28538 28417 27958 27669 27560 27702 28000 28177 28381 28413 28302 28163 27967 27714 27535 27557 27867 28059 28115 28151 27953 27757 27618 27737 28181 28456 28708 28926 29002 28966 28758 28404 28171 28140 28497 28671 28808 28938 28736 28479 28276 28302 28594 28845 29093 29272 29353 29381 29298 29084 28945 28910 29017 29096 29084 29120 29010 28759 28619 28526 28779 29132 29438 29628 29757 29816 29660 29397 29311 29391 29761 30008 30164 30256 30214 29841 29656 29511 29692 29995 30221 30429 30560 30592 30500 30175 29993 29869 29957 30178 30153 30278 30431 30383 30262 30110 29879 30137 30276 30372 30477 30603 30651 30573 30365 30171 30020 30172 30192 30286 30368 30337 30091 30008 29902 30028 30228 30438 30664 30813 30898 30885 30700 30367 29990 30000 30204 30316 30473 30614 30346 30205 30060 30107 30350 30607 30916 31118 31208 31226 31033 30634 30152 29906 29956 30041 30127 30263 30040 29952 29835 29705 29936 30116 30436 30707 30930 30981 30950 30484 30053 29783 29901 29959 30047 30152 30164 29924 29772 29605 29687 29856 30039 30221 30349 30395 30372 29990 29515 29157 29154 29335 29447 29645 29685 29561 29464 29159 29045 29193 29401 29584 29732 29874 29980 29886 29558 29404 29452 29590 29755 29948 30193 30387 30323 30279 30405 30476 30537 30518 30470 30418 30584 30862 30861 30750 30678 30703 30774 30883 30866 30721 30474 30246 30242 30472 30737 30904 30920 30893 30713 30306 29891 29683 29654 29708 29816 29884 29807 29669 29549 29492 29630 29863 30092 30224 30239 30205 29983 29568 29207 29074 29092 29245 29417 29575 29576 29424 29183 28952 28923 29023 29177 29360 29541 29667 29579 29238 28900 28742 28771 28959 29170 29377 29599 29792 29944 29989 29982 30010 30085 30140 30241 30394 30427 30409 30278 30220 30272 30302 30364 30454 30571 30661 30690 30725 30738 30781 30844 30923 30994 31039 31104 31113 31109 31113 31160 31223 31298 31319 31372 31389 31353 31378 31373 31387 31417 31439 31498 31549 31523 31470 31460 31477 31504 31538 31562 31585 31622 31671 31670 31668 31685 31725 31758 31785 31823 31833 31847 31797 31753 31735 31742 31774 31797 31841 31882 31927 31962 32003 32036 32082 32108 32130 32139 32029 31841 32107 32164 32165 32199 32230 32254 32297 32323 32354 32370 32372 32378 32371 32404 32452 32467 32492 32512 32500 32489 32478 32492 32509 32530 32551 32570 32593 32585 32564 32546 32571 32574 32596 32600 32619 32639 32626 32610 32579 32592 32585 32639 32654 32675 32663 32682 32689 32674 32666 32677 32667 32674 32763 32831 32856 32880 32810 32585 32480 32509 32610 32668 32730 32744 32780 32738 32671 32621 32530 32349 32198 32042 31946 31877 31802 31584 31454 31325 31228 31145 31036 31005 31055 31038 30794 30562 30546 30789 31002 31262 31475 31615 31724 31706 31378 30632 30025 29978 30016 30104 30276 30419 30263 30250 30222 30239 30333 30482 30749 30937 30979 30981 30926 30335 29783 29668 29626 29669 29816 29867 29726 29648 29599 29629 29651 29707 29791 29873 29889 29849 29627 29280 28901 28824 28665 28697 28893 28837 28808 28801 28863 29097 29150 29232 29270 29289 29264 29223 28963 28668 28547 28608 28542 28685 28867 28879 28827 28819 28902 29189 29420 29650 29742 29784 29780 29737 29397 29050 28928 29061 29044 29062 29121 28971 28888 29023 29237 29536 29931 30179 30331 30314 30181 29818 29415 29136 29182 29190 29242 29345 29172 28844 28697 28792 29136 29429 29696 29868 29992 30000 29642 29081 28698 28507 28629 28706 28872 29015 28890 28518 28377 28629 29067 29501 29871 30094 30229 30347 30428 29818 29340 29089 29271 29280 29330 29498 29458 29202 28955 28810 28911 29088 29275 29443 29548 29629 29679 29413 29001 28801 28769 28851 28897 28946 29073 29310 29525 29692 29741 29740 29805 29858 29950 29882 29848 29760 29624 29724 29926 29849 30035 30243 30564 30590 30713 30793 30972 31321 31462 31487 31791 31918 31885 31745 31929 31844 31875 31680 31462 31455 31421 31412 31390 31607 31739 31851 31927 32038 32153 32218 32311 32326 32246 32118 31990 31936 31896 31697 31622 31529 31474 31616 31769 32003 32186 32316 32394 32471 32523 32585 32896 33239 33493 33733 33954 34124 34335 34517 34594 34649 34757 34888 34957 35056 35127 35163 34996 34782 34732 34717 34598 34509 34470 34252 33970 33923 33979 34107 34189 34186 34199 34151 33909 33671 33316 32992 32763 32599 32563 32594 32585 32259 31822 31496 31235 31152 31163 31271 31329 31414 31301 30946 30533 30235 30100 30214 30358 30503 30625 30848 31053 31180 31354 31560 31534 31577 31611 31675 31722 31811 31882 31879 31753 31768 31871 31888 31938 31993 32105 32090 31994 31962 31937 31879 31871 31871 31885 31928 31791 31524 31292 31156 31202 31233 31059 30859 30747 30618 30485 30385 30418 30487 30507 30565 30614 30461 30132 29818 29635 29527 29561 29596 29382 29254 29250 29361 29662 29752 29977 30041 30133 30210 30233 29994 29560 29097 28910 28774 28945 28939 28899 29002 29476 29751 29846 29996 30139 30351 30805 31370 31858 31820 31451 30927 30883 31395 31795 31831 31591 31340 31394 31268 31185 31003 30871 30807 30750 30828 30767 30507 30367 30257 30084 29804 29772 29719 29551 29513 29515 29391 29347 29338 29254 29176 29194 29240 29234 28926 28717 28542 28553 28605 28615 28686 28658 28281 28191 28196 28404 28471 28613 28665 28753 28909 28947 28718 28456 28268 28261 28132 28116 28163 28155 28099 28509 29342 29872 30209 30565 30977 31429 31921 32173 32139 31530 31152 30921 30695 30559 30535 30521 30311 30171 30217 30288 30567 30784 30817 31006 31232 31417 31421 30966 30925 31111 31403 31411 31416 31394 31474 31515 31664 31768 31811 31862 31931 32106 32365 32520 32559 32544 32342 31978 31671 31322 31194 31160 31050 30791 30625 30676 30818 30866 30883 30905 30942 30969 31014 30869 30658 30482 30221 30054 30101 30220 30257 30026 29820 29694 29731 29777 29858 30035 30288 30462 30581 30584 30383 30091 29771 29649 29595 29673 30103 30426 30455 30442 30200 29930 29771 29684 29685 29729 29774 29748 29665 29460 29117 28858 28716 28720 28896 29090 28840 28793 28791 28625 28606 28721 28843 28984 29130 29306 29194 28871 28516 28243 28022 27924 28043 28175 28115 28129 28223 28123 28068 28051 28147 28271 28467 28566 28661 28503 28280 28017 27829 27653 27790 27966 28128 28175 28307 28214 28049 27980 27944 28034 28238 28396 28511 28520 28380 28122 27961 27854 27874 28077 28271 28246 28414 28441 28269 28216 28226 28346 28484 28687 28803 28905 28730 28397 28202 28174 28351 28861 29203 28738 28503 28428 28605 28856 29135 29559 29741 29802 29772 29721 29444 29029 28726 28605 28677 28784 28853 28868 28638 28853 29498 29960 30481 30892 31335 31745 32356 32949 32999 32844 32771 32700 32636 32566 32571 32406 32128 31870 31642 31530 31467 31473 31509 31550 31625 31627 31271 30851 30505 30339 30340 30363 30439 30230 29888 29814 29789 29839 29940 30028 30053 30276 30370 30290 30059 29879 29600 29440 29642 29761 29901 29833 29566 29640 29467 29491 29627 29716 29838 29915 30002 30019 29908 29691 29390 29182 29142 29216 29286 29444 29473 29162 28868 28679 28629 28837 29057 29272 29440 29570 29305 28950 28671 28377 28187 28176 28275 28439 28636 28660 28305 28088 28044 28192 28501 28660 28826 29025 29099 28994 28812 28500 28238 28120 28137 28297 28473 28565 28249 28043 27956 27869 28096 28347 28590 28753 28820 28788 28685 28428 28148 27945 27914 28077 28199 28315 28403 28214 27993 27842 27888 28356 28781 28862 29088 29220 29368 29318 28942 28693 28498 28457 28439 28515 28703 28830 28723 28636 28686 28874 29139 29251 29603 29872 29978 29950 29798 29527 29322 29149 29079 29137 29238 29277 29032 28980 29031 29296 29610 29840 29902 30038 30166 30216 30202 29944 29830 29652 29646 29738 29850 29987 30043 29764 29631 29705 29768 29833 30075 30311 30461 30581 30495 30388 30174 29898 29755 29713 29780 29904 29951 29678 29542 29458 29612 29856 30089 30467 30691 30750 30680 30578 30257 30047 29816 29725 29457 29411 29589 29612 29602 29670 29420 29283 29240 29250 29355 29548 29716 29798 29574 29217 29027 28951 28904 28896 29069 29294 29165 29154 29107 28965 28991 29069 29193 29331 29492 29616 29395 29038 28702 28578 28427 28552 28851 29157 29096 28730 28443 28372 28415 28558 28822 29034 29214 29357 29142 28807 28574 28434 28405 28454 28653 28893 28925 28590 28298 28449 28891 29205 29601 29809 29936 29924 29724 29349 28933 28579 28387 28404 28516 28737 28888 28758 28629 28867 29150 29532 29815 30061 30370 30717 31164 31460 31491 31532 31560 31628 31662 31620 31640 31539 31258 31015 31137 31364 31523 31647 31823 31942 32069 32363 32317 32185 32120 32035 31822 31731 31865 31815 31632 31851 32067 32301 32478 32479 32525 32588 32643 32722 33007 32951 32976 33016 32969 32667 32579 32664 32606 32293 32102 31993 32063 32341 32571 32744 33027 33371 33629 33859 33852 33891 33958 33933 33903 33929 34001 33817 33826 33964 34202 34249 34354 34318 34360 34402 34464 34436 34233 33799 33537 33204 32990 32920 32930 32877 32745 32715 32815 32856 32913 32939 32988 33081 33141 33167 33035 32780 32496 32154 31960 31884 31821 31460 31401 31715 31882 31968 32011 31984 31984 32021 32094 32036 31720 31433 31076 30754 30571 30496 30554 30470 30066 29866 29937 30018 30067 30048 30070 30139 30420 30942 31455 31459 31435 31398 31337 31296 31395 31435 31367 31248 31429 31579 31572 31571 31559 31579 31594 31428 31176 30556 30380 30366 30175 29866 29749 29881 29829 29420 29277 29189 28967 28890 28897 28978 29070 29173 29181 28978 28708 28445 28313 28393 28572 28784 28957 28898 28636 28567 28627 28894 29074 29215 29366 29497 29533 29485 29168 28790 28452 28404 28559 28747 28958 29132 28952 28872 28817 28802 28848 28942 29054 29212 29350 29385 29442 29350 29171 29016 28998 29035 29186 29336 29283 29216 29059 28909 28849 28938 29091 29276 29434 29550 29494 29043 28720 28553 28627 28847 29082 29201 29098 28940 28693 28573 28715 28935 29224 29521 29794 30001 29901 29533 29297 29229 29394 29634 29809 29903 29749 29567 29349 29453 29599 29738 29833 29985 30134 30209 30060 29689 29390 29393 29653 29878 30011 30101 29915 29539 29388 29447 29599 29769 29969 30148 30331 30476 30447 30007 29670 29486 29583 29732 29867 29975 29952 29544 29477 29587 29785 29844 30021 30125 30250 30342 30393 30046 29621 29222 29213 29399 29638 29825 29764 29702 29556 29417 29386 29470 29495 29651 29854 30072 30198 30069 29482 28935 28745 28808 28907 29099 29195 29018 28750 28770 28734 28810 28964 29100 29228 29359 29398 29252 29069 28826 28709 28786 28879 29078 29254 29235 28855 28646 28477 28521 28653 28805 28975 29088 29157 29073 28822 28722 28612 28652 28846 29038 29368 29483 29333 29279 29140 29083 29115 29219 29371 29468 29584 29730 29593 29200 28847 28723 28735 28766 28954 29177 29118 29001 28868 28637 28508 28527 28637 28818 29023 29132 29049 28743 28483 28343 28380 28416 28621 28861 28852 28775 28656 28474 28442 28543 28639 28824 29031 29192 29132 28806 28471 28311 28330 28333 28475 28705 28674 28462 28421 28534 28614 28755 28898 29063 29237 29406 29402 29049 28679 28353 28195 28195 28305 28495 28513 28182 27886 27767 27785 28053 28289 28447 28614 28746 28685 27992 27614 27491 27589 27728 27825 27947 28075 27771 27520 27389 27410 27714 28130 28451 28755 28967 28959 28627 28364 28330 28437 28588 28733 28898 29031 29033 28609 28219 28007 27912 28010 28535 29063 29119 28838 28338 27832 27544 27564 27773 27982 28183 28371 28220 27684 27582 27693 28074 28413 28614 28755 28826 28812 28553 28212 27899 27788 27982 28144 28274 28427 28487 28182 28027 28104 28532 28907 29094 29320 29522 29748 29777 29375 29050 28925 29006 29248 29408 29485 29465 29011 28721 28597 28818 29153 29383 29607 29675 29678 29470 29171 28793 28493 28353 28386 28475 28623 28816 28838 28620 28512 28622 28878 29159 29447 29635 29669 29544 29201 28819 28541 28507 28697 28805 28853 28837 28735 28744 28925 29212 29479 29701 29837 30019 30303 30357 30130 29664 29330 29138 29041 29108 29248 29384 29266 29271 29525 29835 29896 29895 29905 29979 30072 30090 29789 29477 29254 29085 29055 29018 29110 29239 29024 28581 28266 28076 28204 28458 28665 28890 29018 28982 28676 28305 28101 28153 28456 28752 29060 29392 29562 29751 29899 30041 30227 30333 30464 30614 30756 30977 31274 31434 31456 31549 31457 31244 31014 30869 30758 30650 30558 30644 30634 30618 30651 30667 30729 30809 30992 31114 31158 31137 31113 31083 31102 31097 31122 31312 31374 31615 31760 31754 31793 31724 31670 31670 31579 31503 31547 31596 31520 31533 31516 31469 31338 31170 31003 31080 31291 31494 31750 31983 32094 32134 32080 31902 31581 31277 31072 30983 30998 31036 30972 30689 30433 30621 30669 30805 30980 31147 31400 31473 31400 31211 31148 30894 30758 30604 30464 30448 30399 30263 30020 29779 29918 30267 30663 31099 31456 31529 31576 31589 31524 31464 31308 30966 30815 30908 30792 30590 30459 30489 30625 30762 30916 31041 31234 31385 31546 31786 31983 31925 31607 31262 31092 30922 30768 30615 30451 30068 29667 29550 29821 29996 30154 30295 30354 30380 30493 30596 30540 30397 30273 30153 29992 29883 29767 29392 29271 29302 29465 29604 29625 29707 29878 30155 30426 30628 30473 30293 30097 29956 29785 29734 29691 29453 28878 28793 28727 