1931 1932 1937 1925 1934 2003 2567 6440 28521 41188 47943 48199 47942 47946 48203 47947 47942 47944 48196 47946 47940 48189 47929 47925 47920 47922 48174 47923 47923 47925 47925 47928 48184 47926 47931 47930 47935 47925 47924 47928 47924 47920 47927 47925 47926 47924 47927 47930 47921 47931 47924 47922 47929 47930 47926 47925 47921 47927 47926 47933 47926 47928 47924 47924 47930 47923 47929 47928 47928 47931 47928 47929 47929 47932 47928 47929 47922 47935 47932 47932 47926 47929 47922 47934 47927 47927 40588 40566 40560 40550 40552 40597 40593 40595 40624 40611 40505 40395 40343 40318 40342 40326 40309 40327 40315 40330 40340 40375 40377 40420 40427 40361 40257 40194 40184 40169 40163 40158 40137 40121 40154 40159 40189 40189 40194 40202 40134 39986 39876 39783 39739 39662 39570 39485 39401 39341 39322 39320 39357 39415 39539 39616 39630 39720 39731 39716 39686 39599 39539 39474 39411 39324 39280 39255 39240 39269 39316 39300 39248 39196 39191 39186 39184 39198 39242 39236 39178 39191 39278 39364 39453 39510 39553 39579 39616 39696 39771 39877 39904 39956 39964 40000 40094 40206 40349 40508 40698 40911 41204 41553 41898 42233 42616 42884 43117 43261 43383 43434 43463 43495 43509 43348 43251 43194 43090 43031 42928 42785 42668 42547 42463 42384 42315 42264 42184 42085 41982 41948 41944 41916 41837 41768 41703 41627 41605 41588 41584 41597 41621 41732 41868 41836 41845 41900 41926 41876 41911 41936 41884 41885 41840 41809 41772 41802 41789 41707 41727 41739 41721 41674 41708 41783 41811 41907 41966 41889 41822 41797 41789 41792 41781 41725 41813 41889 41872 41771 41726 41795 41856 41939 42018 42071 42031 41967 41902 41893 41867 41857 41863 41909 42051 42169 42128 42023 42002 41955 41985 42038 42152 42167 42081 42021 42016 41999 41989 41965 41975 42061 42111 42078 42064 42051 42056 42039 42037 42008 42106 42137 42078 42080 42067 42047 42048 42055 42060 42212 42363 42348 42365 42389 42394 42389 42437 42635 42579 42457 42404 42414 42417 42417 42392 42350 42489 42550 42501 42447 42408 42418 42458 42512 42586 42515 42466 42426 42424 42413 42380 42311 42407 42477 42400 42347 42294 42293 42302 42332 42368 42486 42501 42402 42321 42283 42270 42250 42211 42202 42376 42606 42532 42443 42413 42416 42451 42519 42577 42623 42507 42418 42378 42366 42367 42331 42292 42231 42258 42267 42305 42299 42287 42247 42220 42306 42430 42326 42262 42216 42225 42237 42235 42238 42308 42386 42274 42145 42071 42033 42032 42091 42153 42290 42341 42209 42129 42078 42052 42041 41996 42037 42048 42125 42046 42000 41978 41964 41964 41979 42034 42202 42118 42051 41954 41865 41800 41762 41749 41797 41759 41650 41604 41594 41605 41667 41724 41859 41881 41734 41593 41467 41411 41364 41329 41369 41447 41423 41346 41296 41310 41364 41430 41406 41434 41481 41383 41265 41220 41189 41162 41163 41200 41328 41341 41264 41174 41095 41058 41056 41073 41109 41256 41235 41133 41059 40986 40957 40947 40907 40992 40968 41034 41082 41060 41074 41119 41127 41152 41263 41406 41380 41297 41178 41090 41025 40970 40997 41058 41002 40874 40775 40702 40701 40777 40841 40938 40973 40890 40697 40550 40463 40457 40472 40478 40469 40468 40691 40876 40834 40792 40738 40723 40720 40742 40825 40780 40672 40584 40530 40505 40516 40500 40422 40410 40247 40157 40099 40127 40159 40211 40231 40383 40472 40382 40295 40181 40060 40006 39975 39977 40050 40057 40006 39989 40011 40097 40127 40153 40144 40231 40182 40054 39990 39985 39995 39997 40010 40129 40190 40142 40033 39991 40011 40040 40047 40117 40267 40247 40201 40167 40171 40173 40213 40241 40355 40386 40304 40219 40220 40269 40361 40437 40525 40657 40720 40671 40614 40586 40552 40551 40550 40660 40771 40746 40680 40656 40668 40745 40830 40861 40938 41010 40964 40921 40900 40899 40932 40981 41017 41083 41196 41213 41178 41121 41116 41130 41187 41249 41337 41423 41359 41348 41358 41369 41380 41348 41436 41511 41468 41389 41366 41333 41327 41398 41439 41553 41737 41695 41554 41523 41462 41438 41419 41428 41529 41612 41534 41458 41414 41436 41491 41524 41539 41655 41600 41480 41430 41402 41353 41328 41307 41459 41593 41579 41452 41404 41351 41392 41443 41509 41580 41641 41577 41483 41469 41452 41429 41368 41354 41438 41483 41405 41333 41264 41265 41267 41318 41401 41515 41514 41352 41253 41187 41169 41132 41134 41171 41283 41250 41219 41174 41134 41130 41121 41127 41176 41192 41086 41008 40956 40922 40912 40918 40950 41037 40977 40808 40718 40650 40650 40671 40719 40815 40901 40848 40798 40763 40706 40642 40585 40609 40680 40811 40873 40867 40812 40800 40826 40869 40937 41022 40995 40869 40735 40643 40574 40539 40535 40545 40663 40676 40605 40611 40558 40546 40597 40601 40624 40719 40790 40707 40641 40617 40604 40609 40558 40501 40524 40502 40395 40310 40291 40334 40414 40455 40538 40698 40604 40482 40345 40238 40170 40160 40134 40187 40295 40317 40266 40240 40243 40207 40198 40200 40329 40389 40305 40219 40165 40195 40168 40159 40180 40219 40166 39989 39804 39733 39729 39794 39861 39949 40086 40060 39998 39884 39757 39651 39591 39577 39657 39713 39709 39717 39771 39822 39908 39945 39932 39991 39998 39878 39786 39797 39794 39791 39829 39873 40008 40011 39928 39793 39728 39718 39771 39836 39939 40106 40085 40019 40021 39992 39956 39873 39843 39966 40011 39959 39887 39878 39877 39974 40076 40119 40182 40231 40161 40037 40005 39983 39991 39990 40038 40170 40268 40262 40159 40049 39985 40027 40101 40178 40235 40381 40378 40346 40319 40275 40239 40170 40161 40268 40295 40276 40252 40258 40283 40314 40345 40388 40446 40525 40397 40302 40238 40223 40200 40206 40264 40439 40500 40511 40456 40367 40310 40300 40369 40462 40598 40594 40524 40459 40471 40486 40480 40398 40469 40554 40615 40612 40560 40527 40539 40607 40686 40812 40906 40791 40628 40528 40491 40482 40502 40615 40842 41062 41022 40949 40924 40913 40896 40842 40878 41015 40935 40825 40788 40784 40776 40784 40816 40753 40720 40552 40437 40383 40346 40336 40359 40421 40597 40594 40440 40341 40223 40089 39997 39999 40047 40100 40053 39978 39957 39959 40015 40061 40109 40121 40116 39939 39896 39842 39819 39846 39886 39940 40031 40095 39989 39910 39838 39854 39902 39985 40104 40046 39961 39896 39856 39856 39840 39784 39816 39851 39814 39773 39772 39772 39798 39874 39930 40068 40176 40056 39920 39845 39828 39804 39849 39950 40045 40113 40057 40030 40041 40018 39999 39994 40048 40188 40259 40178 40119 40092 40095 40094 40138 40199 40267 40226 40172 40113 40093 40114 40186 40247 40345 40457 40494 40419 40318 40228 40187 40169 40241 40376 40451 40428 40372 40395 40383 40428 40403 40426 40467 40567 40551 40535 40505 40485 40476 40502 40554 40625 40630 40614 40579 40572 40627 40690 40723 40748 40795 40953 40902 40870 40805 40701 40661 40650 40641 40701 40815 40677 40591 40557 40606 40653 40640 40635 40638 40528 40415 40353 40338 40342 40377 40428 40516 40483 40359 40205 40082 39991 39999 40068 40198 40308 40395 40407 40346 40268 40136 40011 39946 39918 39978 40039 40041 39963 39899 39850 39823 39888 39935 39956 39983 39970 39887 39833 39794 39761 39785 39839 39879 39975 39951 39904 39833 39829 39806 39808 39835 39954 40068 40212 40208 40167 40054 39948 39876 39855 39885 39999 40102 40241 40338 40344 40370 40370 40432 40448 40492 40577 40551 40501 40482 40512 40500 40523 40595 40676 40790 40793 40758 40707 40659 40625 40666 40745 40900 40994 40958 40946 40914 40837 40782 40758 40762 40845 40884 40942 40992 40993 40966 40940 40925 40883 40951 41027 41080 41056 41036 41063 41020 41037 41054 41105 41166 41205 41192 41183 41142 41139 41102 41148 41214 41339 41435 41429 41364 41332 41258 41189 41150 41160 41202 41276 41330 41371 41353 41349 41344 41357 41365 41388 41447 41476 41417 41358 41340 41317 41306 41328 41299 41200 41111 41232 41297 41308 41306 41314 41284 41282 41360 41414 41441 41394 41347 41447 41551 41615 41692 41747 41935 42147 42350 42421 42372 42241 42060 41863 41764 41745 41711 41668 41619 41541 41526 41476 41433 41357 41219 41086 40928 40869 40863 40902 40931 40992 40992 40918 40835 40772 40650 40518 40404 40359 40333 40361 40439 40505 40511 40530 40581 40667 40678 40634 40508 40294 40153 40061 40003 39995 39991 40071 40113 40246 40398 40437 40277 40066 39946 39935 39980 40089 40196 40148 40076 40030 40014 40001 39888 39762 39715 39655 39784 40011 40107 40109 40070 40082 40120 40184 40264 40293 40130 39996 39928 39891 39851 39845 39888 39944 40007 40153 40228 40208 40106 40034 40007 40018 40070 40236 40291 40245 40219 40241 40186 40105 39992 39943 39941 39994 40174 40288 40283 40287 40280 40339 40431 40491 40423 40278 40179 40141 40099 40102 40115 40143 40196 40255 40350 40402 40366 40293 40229 40215 40236 40306 40528 40667 40654 40599 40630 40533 40424 40327 40275 40207 40187 40476 40663 40675 40672 40682 40737 40734 40744 40923 40923 40805 40722 40714 40662 40620 40587 40560 40580 40632 40686 40672 40591 40628 40677 40756 40844 41018 41032 40944 40872 40738 40574 40446 40402 40413 40465 40557 40592 40599 40615 40639 40649 40572 40542 40587 40453 40309 40223 40212 40197 40156 40179 40206 40147 40049 39939 39885 39864 39864 39894 39958 40055 40174 40146 40058 39876 39715 39585 39538 39568 39626 39663 39670 39689 39696 39739 39780 39742 39710 39689 39710 39601 39497 39443 39430 39462 39493 39580 39648 39559 39444 39343 39329 39344 39447 39589 39701 39856 39981 39885 39702 39564 39433 39347 39326 39406 39536 39543 39508 39528 39544 39544 39551 39482 39456 39558 39569 39522 39456 39469 39467 39491 39575 39615 39590 39534 39429 39326 39290 39241 39301 39426 39555 39709 39785 39696 39604 39447 39302 39210 39225 39286 39410 39399 39352 39331 39348 39367 39389 39408 39406 39450 39406 39339 39286 39261 39273 39304 39372 39450 39532 39427 39283 39193 39103 39105 39218 39340 39461 39652 39654 39628 39614 39474 39351 39274 39245 39319 39363 39360 39374 39404 39430 39493 39574 39644 39643 39699 39587 39489 39452 39477 39510 39557 39632 39750 39841 39832 39770 39689 39578 39556 39617 39749 39879 39982 40002 40001 40007 40039 39996 39977 39962 39939 39970 39953 39921 39948 40001 40045 40123 40245 40296 40258 40199 40194 40195 40189 40230 40315 40358 40416 40473 40477 40504 40470 40421 40454 40506 40561 40671 40786 40790 40821 40831 40834 40857 40859 40848 40819 40819 40835 40857 40876 40914 40956 41018 41093 41149 41178 41139 41115 41128 41141 41177 41235 41289 41289 41326 41331 41321 41324 41367 41424 41457 41502 41634 41661 41644 41676 41654 41673 41673 41654 41643 41608 41605 41570 41550 41540 41592 41614 41661 41762 41793 41712 41638 41587 41545 41542 41562 41620 41618 41656 41634 41674 41661 41702 41662 41633 41666 41767 41805 41811 41777 41782 41751 41777 41776 41754 41689 41651 41568 41563 41520 41528 41578 41593 41700 41802 41725 41593 41508 41438 41392 41381 41432 41424 41486 41495 41467 41458 41472 41445 41388 41354 41379 41473 41481 41445 41422 41439 41457 41464 41523 41478 41419 41322 41245 41225 41234 41289 41323 41379 41437 41572 41539 41401 41239 41105 41019 40983 40990 41024 41130 41354 41567 41587 41600 41636 41500 41492 41534 41544 41646 41715 41599 41568 41582 41537 41639 41788 41634 41445 41380 41380 41410 41543 41663 41934 42008 42057 42134 41902 41686 41582 41499 41588 41918 42265 42234 42259 42367 42353 42336 42432 42421 42257 42011 41708 41548 41614 41702 41867 41978 42081 42201 42263 42208 42196 42295 42380 42505 42636 42598 42660 42490 42217 42066 42046 42045 42031 41958 41948 41945 41829 41726 41608 41531 41499 41556 41516 41368 41194 41092 40842 40643 40534 40427 40343 40329 40403 40408 40356 40212 40045 39915 39844 39820 39827 39926 40040 40111 40042 39963 39783 39575 39404 39334 39303 39362 39329 39370 39585 39719 39804 39881 39868 39815 39755 39805 39773 39654 39547 39518 39556 39544 39586 39509 39490 39554 39558 39539 39512 39569 39679 39740 39858 40007 40045 39945 39728 39562 39467 39478 39518 39651 39824 39954 39968 40037 40136 40195 40204 40310 40475 40587 40700 40760 40736 40768 40805 40905 40915 40946 40923 40848 40855 40897 40977 41051 41116 41312 41500 41643 41697 41663 41599 41563 41617 41699 41824 41920 42044 42111 42112 42157 42131 42107 42119 42252 42356 42441 42542 42615 42637 42658 42723 42707 42625 42603 42634 42632 42574 42508 42384 42319 42397 42575 42809 42676 42359 42062 41897 41794 41689 41616 41532 41674 42060 42146 42051 41877 41671 41504 41362 41395 41338 41153 40957 40843 40798 40742 40632 40418 40166 40065 39997 39965 39960 39929 39929 39944 39993 40095 39808 39424 39140 38998 38967 38967 39011 38997 38998 38945 38937 38893 38733 38606 38545 38654 38774 38864 38792 38715 38696 38749 38816 38754 38595 38467 38500 38700 38829 38910 38943 39025 39167 39334 39474 39450 39187 38912 38747 38718 38705 38681 38737 38806 38874 38917 38933 38873 38828 38819 38823 38922 39006 38947 38834 38754 38754 38785 38646 38453 38354 38306 38506 38797 38970 39063 39163 39222 39320 39366 39305 39026 38789 38668 38621 38615 38660 38729 38775 38988 39276 39338 39280 39156 39101 39107 39205 39333 39240 39134 39087 39129 39078 38861 38722 38649 38796 39122 39316 39356 39405 39453 39536 39648 39606 39448 39199 39003 38970 38962 38978 39012 39127 39221 39350 39459 39465 39365 39289 39244 39323 39472 39481 39346 39254 39198 39163 39012 38825 38733 38727 38888 39133 39246 39235 39172 39200 39340 39400 39313 39152 38929 38857 38817 38845 38907 38939 39019 39068 39229 39333 39471 39391 39252 39254 39348 39418 39636 39647 39556 39508 39420 39236 39087 38975 38937 39068 39146 39089 39041 39053 39121 39253 39177 39124 39086 39074 39148 39214 39222 39284 39324 39419 39526 39613 39663 39786 39801 39751 39745 39742 39868 39958 40026 39942 39879 39695 39509 39378 39329 39349 39398 39372 39315 39299 39336 39352 39348 39325 39296 39336 39224 39196 39189 39175 39218 39304 39445 39537 39546 39578 39637 39633 39646 39782 39911 40036 40190 40219 40164 40049 39927 39766 39644 39600 39612 39793 40095 40280 40333 40352 40405 40353 40202 40154 40070 39923 39824 39735 39731 39715 39749 39836 39775 39719 39689 39731 39736 39748 39791 39867 39965 40123 40157 40067 39833 39665 39568 39450 39456 39506 39587 39649 39703 39763 39807 39773 39638 39525 39559 39526 39509 39406 39380 39425 39413 39453 39586 39594 39409 39241 39147 39110 39195 39374 39497 39631 39744 39694 39442 39118 38912 38758 38727 38772 38832 38995 39645 39893 39852 39779 39532 39331 39242 39304 39371 39226 39129 39012 38935 38940 38983 38923 38710 38684 38846 38938 39054 39085 39190 39277 39430 39594 39551 39296 39049 38898 38819 38830 38874 38965 38974 39049 39080 39164 39130 39010 38905 38934 39057 39200 39244 39159 39042 39017 38989 38785 38612 38592 38591 38728 38874 39057 39131 39193 39295 39367 39343 39254 39000 38814 38756 38710 38711 38807 38903 39023 39044 38878 38735 38586 38459 38479 38558 38689 38855 38938 38888 38835 38819 38683 38470 38431 38522 38698 38891 39152 39376 39422 39467 39527 39417 39236 39173 38961 38824 38753 38677 38671 38701 38714 38719 38679 38597 38552 38601 38579 38617 38686 38832 38986 39148 39073 38913 38681 38548 38466 38451 38496 38477 38525 38558 38589 38678 38852 38886 38838 38810 38861 38912 38817 38738 38735 38772 38855 38903 38946 38846 38791 38706 38655 38733 38901 39012 39076 39204 39353 39330 39124 38929 38847 38813 38861 38953 39104 39195 39266 39281 39316 39357 39348 39311 39307 39380 39493 39469 39456 39463 39507 39550 39593 39538 39440 39429 39427 39461 39486 39541 39658 39830 39935 40097 40124 39975 39869 39791 39791 39835 39892 39990 40059 40183 40241 40282 40258 40212 40205 40276 40355 40472 40589 40599 40612 40633 40681 40664 40631 40597 40624 40662 40710 40798 40861 40920 41025 41139 41239 41239 41148 41052 41001 41012 40997 41025 41081 41126 41261 41358 41442 41430 41348 41302 41313 41369 41489 41553 41566 41565 41572 41567 41473 41417 41360 41314 41439 41532 41541 41505 41495 41530 41531 41615 41589 41666 41720 41854 42041 42162 42347 42547 42815 43012 43273 43507 43624 43729 43840 43884 43972 44051 44015 43848 43815 43812 43716 43531 43325 43141 43060 42993 42836 42768 42771 42779 42754 42642 42520 42382 42107 41880 41741 41629 41557 41518 41585 41594 41379 41103 40862 40700 40560 40490 40526 40610 40816 40849 40773 40612 40354 40153 39991 39948 39944 39989 40039 40177 40169 40114 40097 40019 39843 39730 39784 39793 39657 39538 39443 39388 39399 39435 39358 39157 38967 38706 38612 38614 38689 38831 38983 39121 39170 38879 38534 38307 38234 38285 38376 38491 38639 38726 38753 38690 38590 38404 38361 38483 38567 38744 38807 38807 38734 38664 38641 38580 38414 38281 38249 38178 38129 38129 38145 38301 38496 38685 38796 38574 38373 38215 38202 38325 38487 38696 38835 38931 38980 39083 39030 39014 39087 39172 39267 39415 39539 39691 39778 39866 39877 39786 39702 39648 39615 39601 39592 39557 39546 39525 39621 39808 39803 39751 39662 39630 39524 39457 39438 39457 39502 39585 39625 39521 39367 39190 39162 39130 39212 39398 39530 39661 39741 39747 39639 39463 39340 39303 39343 39422 39503 39766 39922 39915 39945 39898 39812 39769 39824 39935 39985 40036 40039 40046 40054 40111 40145 40142 40109 40363 40616 40701 40719 40750 40822 40864 40913 41014 40896 40705 40569 40549 40520 40527 40683 40764 40834 40829 40807 40677 40472 40381 40375 40440 40532 40608 40567 40541 40535 40537 40418 40303 40257 40253 40237 40176 40206 40221 40265 40410 40538 40534 40393 40209 40068 40024 40052 40102 40166 40241 40305 40352 40214 40018 39875 39765 39813 39937 40045 40141 40183 40133 40056 39897 39693 39560 39538 39591 39640 39702 39694 39687 39669 39698 39723 39671 39683 39607 39545 39526 39514 39497 39559 39653 39788 39909 39879 39755 39637 39596 39615 39773 39899 40032 40174 40185 40055 39809 39626 39535 39534 39570 39700 39853 40018 40161 40290 40378 40360 40321 40279 40289 40392 40374 40265 40183 40158 40197 40150 40030 39814 39756 39754 39736 39725 39782 39915 40086 40212 40273 40008 39701 39534 39488 39496 39588 39646 39682 39705 39717 39650 39500 39377 39286 39340 39412 39555 39628 39556 39476 39489 39431 39215 39067 39014 38948 38972 38964 38972 38973 39042 39160 39276 39203 39128 39001 38872 38881 38905 38999 39102 39214 39417 39504 39382 39202 39110 39077 39134 39304 39443 39597 39624 39622 39526 39322 39121 39009 38988 39101 39185 39245 39301 39346 39430 39492 39404 39340 39367 39407 39445 39373 39334 39351 39416 39482 39589 39492 39322 39261 39270 39398 39470 39523 39603 39728 39945 40017 39889 39639 39413 39338 39356 39413 39541 39631 39689 39984 40152 40093 39932 39780 39754 39871 40062 40245 40228 40145 40111 40133 39917 39774 39762 39815 39956 40154 40272 40342 40364 40418 40514 40411 40349 40332 40255 40154 40128 40177 40187 40267 40385 40396 40215 40049 39975 39992 40014 40070 40134 40196 40277 40424 40426 40135 39810 39640 39554 39569 39633 39734 39788 39847 39943 40065 39938 39750 39623 39604 39680 39741 39705 39618 39548 39575 39608 39395 39282 39151 39168 39198 39320 39397 39478 39601 39747 39843 39681 39376 39070 38900 38881 38930 38963 39023 39158 39213 39153 38988 38864 38730 38704 38801 39026 39236 39344 39349 39305 39153 38969 38777 38665 38740 38878 39129 39568 39821 39896 39941 39988 39806 39677 39624 39557 39511 39439 39432 39490 39493 39598 39637 39480 39454 39472 39541 39611 39668 39812 39931 40055 40160 40004 39629 39291 39152 39113 39112 39200 39249 39317 39295 39210 39106 38833 38617 38659 38754 38854 38888 38856 38809 38839 38917 38867 38669 38532 38543 38662 38775 38923 39060 39170 39356 39519 39554 39423 39168 38966 38850 38887 38975 39043 39181 39287 39315 39158 38925 38793 38683 38641 38751 38935 39107 39213 39184 39181 38986 38796 38695 38722 38838 38947 39010 39010 39025 39063 39072 38955 38843 38948 39058 39108 39142 39166 39191 39251 39323 39383 39350 39237 39199 39243 39375 39560 39719 39845 40001 40119 40196 40061 39817 39613 39567 39612 39676 39762 39885 39909 39943 39900 39784 39651 39570 39617 39713 39821 39976 39977 39962 39971 40022 39903 39785 39726 39780 39887 39884 39886 39986 39996 40115 40275 40237 40212 40151 40129 40107 40134 40185 40295 40367 40457 40530 40407 40226 40060 40063 40212 40430 40642 40811 40943 41094 41016 40770 40534 40403 40411 40463 40494 40524 40576 40521 40445 40401 40368 40322 40306 40384 40505 40532 40528 40504 40535 40579 40596 40437 40276 40200 40169 40198 40271 40343 40336 40482 40649 40718 40567 40411 40242 40140 40171 40245 40334 40420 40514 40589 40696 40565 40439 40358 40360 40425 40552 40653 40774 40744 40698 40692 40549 40366 40230 40267 40342 40407 40422 40419 40457 40492 40597 40594 40509 40444 40348 40276 40266 40285 40335 40374 40398 40519 40517 40457 40392 40433 40526 40605 40683 40809 40946 41083 41146 41062 40892 40712 40672 40687 40710 40806 40831 40922 40956 40956 40958 40852 40790 40759 40792 40866 40924 40929 40943 40962 41022 41009 40904 40779 40681 40746 40787 40800 40780 40673 40703 40829 40951 40952 40883 40846 40847 40890 40940 41027 41105 41174 41239 41274 41213 41078 41030 40960 40969 41063 41252 41337 41495 41555 41509 41354 41275 41261 41281 41339 41414 41492 41591 41579 41574 41611 41553 41530 41572 41631 41780 41877 41856 41806 41803 41827 41852 41742 41613 41505 41587 41602 41612 41632 41598 41667 41789 41855 41768 41658 41551 41534 41561 41620 41655 41720 41753 41844 41807 41682 41501 41442 41412 41384 41509 41673 41770 41816 41823 41731 41521 41365 41346 41351 41433 41486 41533 41570 41558 41580 41616 41520 41404 41387 41410 41424 41376 41365 41356 41406 41483 41569 41430 41156 41002 40993 41034 41083 41120 41146 41234 41357 41367 41153 40894 40690 40600 40639 40676 40743 40806 40817 40845 40875 40701 40473 40291 40280 40386 40499 40588 40565 40460 40415 40413 40309 40115 40008 39973 40010 40002 39953 39988 40022 40046 40097 40096 39922 39812 39718 39651 39649 39684 39763 39833 39939 40024 39829 39595 39446 39359 39341 39369 39417 39563 39723 39869 39991 39827 39570 39409 39394 39457 39554 39704 39765 39782 39712 39722 39698 39496 39322 39329 39419 39580 39629 39616 39620 39666 39747 39747 39576 39400 39274 39349 39382 39445 39565 39613 39730 39876 39881 39692 39434 39284 39279 39344 39450 39532 39632 39776 39888 39907 39707 39585 39543 39558 39685 39839 40010 40122 40120 40080 39966 39782 39650 39577 39619 39749 39835 39898 39883 39884 39896 39941 39781 39687 39692 39711 39728 39729 39744 39789 39856 39988 40041 39866 39640 39635 39661 39766 39924 40145 40341 40463 40588 40621 40330 40005 39797 39803 39872 39966 40070 40224 40432 40866 41136 41093 40936 40761 40724 40736 40758 40863 40831 40736 40633 40531 40295 40068 39923 39934 39865 39990 40106 40182 40184 40208 40169 40038 39919 39896 39856 39845 39798 39798 39875 39941 40016 40051 39797 39680 39579 39604 39666 39801 39908 40057 40263 40525 40504 40150 39785 39590 39559 39674 39830 39881 39782 39655 39627 39612 39439 39297 39234 39395 39624 39809 39831 39742 39701 39708 39675 39568 39556 39512 39492 39364 39304 39328 39398 39492 39636 39725 39582 39430 39218 39062 39083 39132 39105 39155 39278 39390 39328 39445 39556 39598 39582 39602 39662 39757 39878 39910 39840 39624 39329 39155 39101 39163 39241 39285 39347 39336 39328 39374 39414 39269 39132 39104 39171 39250 39153 39120 39182 39224 39318 39273 39105 38949 38931 38959 39029 39121 39231 39353 39470 39584 39486 39185 38896 38772 38766 38869 38969 39071 39201 39253 39264 39054 38799 38651 38596 38681 38824 39079 39140 39091 39133 39201 39166 39032 38925 38915 38928 38962 38990 39067 39142 39181 39264 39264 39163 39041 39019 39010 39004 39053 39119 39202 39284 39373 39259 39042 38929 38887 38949 39053 39222 39380 39514 39693 39760 39579 39290 39099 39044 39093 39178 39296 39301 39388 39472 39548 39605 39424 39210 39189 39238 39377 39481 39418 39400 39439 39506 39540 39362 39143 39008 39030 39115 39147 39192 39268 39405 39547 39697 39647 39455 39341 39305 39404 39581 39728 39903 40021 40066 39926 39678 39551 39533 39657 39786 39985 40070 40092 40060 40064 39983 39839 39802 39944 40115 40227 40341 40337 40306 40367 40445 40441 40343 40214 40164 40176 40221 40290 40398 40559 40701 40816 40725 40473 40354 40271 40327 40483 40670 40880 41102 41416 41684 41598 41501 41596 41739 41945 42193 42387 42489 42460 42320 42270 42173 42031 41884 41804 41742 41685 41513 41328 41197 41110 41008 40668 40292 40028 39787 39729 39655 39557 39506 39411 39456 39473 39197 38905 38736 38546 38535 38553 38578 38658 38723 38815 38720 38340 38017 37865 37868 37921 38049 38249 38402 38615 38595 38320 37950 37720 37644 37707 37829 37964 38094 38064 38129 38194 38069 37736 37616 37638 37810 37951 37807 37755 37782 37836 37904 37707 37511 37418 37555 37829 38108 38380 38585 38722 38834 38930 38759 38415 38052 37895 37896 37989 38117 38239 38387 38554 38580 38354 38153 38067 38101 38155 38357 38555 38717 38882 38883 38768 38497 38277 38169 38168 38262 38427 38545 38641 38707 38755 38785 38477 38385 38343 38449 38572 38598 38559 38568 38622 38676 38654 38527 38437 38404 38618 38932 39189 39354 39519 39686 39845 39962 39887 39740 39605 39547 39566 39644 39717 39787 39829 39818 39769 39630 39584 39676 39810 39945 40144 40266 40404 40455 40441 40222 39964 39806 39741 39766 39846 39865 39929 39988 40028 39992 39834 39671 39662 39773 39899 39985 40044 40072 40130 40195 40239 40105 39925 39803 39896 39985 40073 40168 40248 40378 40551 40638 40537 40397 40262 40136 40148 40196 40259 40328 40396 40408 40544 40609 40495 40446 40498 40630 40756 40875 40982 41040 41073 40954 40696 40485 40391 40365 40441 40479 40612 40758 40796 40807 40820 40719 40663 40616 40681 40741 40714 40699 40706 40743 40774 40634 40370 40170 40157 40278 40425 40525 40566 40577 40701 40787 40639 40361 40069 39915 39881 39879 39910 39910 39950 39992 39920 39700 39465 39347 39255 39294 39393 39595 39746 39811 39796 39685 39380 39113 38920 38847 38840 38983 39075 39134 39089 39097 39012 38763 38658 38714 38812 38952 38940 38937 38948 38999 39042 38943 38663 38541 38663 38803 38853 38938 38955 39003 39171 39247 39111 38772 38495 38391 38419 38501 38544 38582 38641 38646 38835 38662 38428 38238 38130 38167 38366 38665 38883 39050 39102 39116 38948 38796 38775 38797 39038 39346 39570 39693 39710 39741 39818 39712 39586 39550 39565 39577 39539 39480 39503 39561 39644 39718 39661 39541 39452 39430 39486 39611 39781 39954 40113 40279 40347 40109 39801 39611 39563 39610 39718 39829 39922 39960 40058 39967 39757 39575 39509 39589 39727 39877 39982 39974 39959 39962 39872 39622 39453 39435 39545 39675 39760 39835 39853 39813 39853 39913 39835 39782 39815 39826 39835 39883 39956 39974 40010 40071 40062 39881 39834 39809 39859 39951 40020 40144 40292 40416 40468 40312 40027 39857 39820 39860 39897 39968 40044 40138 40137 40058 39897 39560 39315 39336 39520 39725 39903 39893 39886 39920 39931 39762 39489 39335 39287 39465 39562 39525 39522 39536 39626 39794 39768 39686 39643 39563 39564 39626 39706 39769 39831 39933 40060 40066 40132 40135 40132 40206 40340 40550 40807 41074 41184 41130 40881 40585 40381 40292 40329 40399 40489 40677 41085 41214 41198 41019 40785 40622 40576 40689 40797 40770 40729 40656 40606 40516 40279 40095 40078 40069 40116 40128 40166 40185 40175 40210 40186 40000 39816 39711 39647 39643 39642 39666 39707 39785 39898 39694 39514 39402 39364 39416 39525 39723 39975 40184 40365 40440 40125 39664 39360 39206 39263 39331 39454 39497 39602 39706 39813 39770 39667 39636 39678 39792 39904 39898 39782 39644 39562 39496 39222 38930 38809 38797 39027 39276 39441 39608 39738 39841 39889 39639 39380 39133 38938 38871 38839 38870 38942 38995 39090 39100 38825 38584 38477 38509 38662 38824 39061 39232 39378 39473 39366 38998 38686 38515 38468 38512 38689 38853 38950 38928 38918 38939 38678 38464 38444 38548 38639 38678 38616 38550 38576 38619 38586 38281 38101 38040 38160 38316 38464 38643 38795 39018 39256 39363 39109 38845 38619 38575 38606 38701 38763 38852 38977 39098 39114 38927 38854 38915 39068 39325 39680 40204 40725 40919 40756 40436 39963 39596 39415 39374 39398 39435 39457 39526 39636 39778 39806 39625 39522 39556 39660 39729 39683 39630 39569 39536 39571 39463 39190 38979 38978 39119 39268 39465 39661 39817 39978 40129 40101 39833 39458 39203 39105 39108 39172 39212 39238 39362 39414 39361 39109 38912 38838 38846 38992 39249 39451 39621 39625 39561 39291 38913 38702 38602 38606 38787 38849 38978 39033 39027 39047 38936 38792 38831 38906 39009 38926 38837 38799 38832 38896 39003 38909 38637 38536 38559 38614 38706 38763 38814 38995 39296 39463 39441 39170 38862 38716 38711 38769 38836 38868 38916 39007 39166 39027 38812 38573 38573 38737 39040 39320 39458 39423 39372 39335 39113 38849 38728 38750 38850 39011 39091 39082 39103 39111 39280 39415 39337 39304 39290 39280 39252 39220 39177 39196 39232 39328 39362 39200 38993 39001 39031 39073 39224 39485 39688 39916 40039 39953 39725 39579 39512 39530 39543 39570 39721 39917 40049 40213 40374 40341 40297 40261 40362 40545 40523 40456 40469 40496 40562 40575 40485 40280 40245 40161 40142 40351 40659 40863 40963 41064 41205 41029 40747 40494 40413 40415 40420 40452 40481 40515 40586 40599 40511 40279 40077 40102 40274 40381 40482 40576 40561 40538 40490 40438 40216 40030 39966 39960 40102 40249 40273 40287 40257 40494 40742 40736 40643 40577 40559 40553 40590 40641 40700 40752 40793 40865 40709 40592 40483 40431 40512 40668 40905 41097 41164 41265 41244 41015 40717 40491 40347 40359 40383 40444 40453 40480 40426 40424 40330 40205 40166 40237 40325 40359 40255 40171 40146 40154 40134 39997 39752 39685 39719 39766 39829 39881 40018 40124 40343 40455 40371 40135 39860 39659 39584 39562 39586 39645 39737 39866 39988 39969 39766 39594 39511 39503 39625 39786 39971 40117 40216 40280 40361 40207 40055 40018 40230 40512 40944 41339 41688 42097 42353 42519 42699 42750 42795 42763 42809 42912 42983 42935 42855 42778 42669 42295 41882 41574 41267 41148 41195 41317 41484 41626 41747 41761 41560 41314 41213 41178 41237 41336 41464 41590 41629 41642 41666 41578 41430 41319 41377 41486 41624 41702 41736 41813 41886 41905 41831 41731 41659 41626 41635 41613 41592 41589 41621 41730 41853 41761 41598 41477 41471 41528 41631 41712 41785 41882 42013 42026 41858 41637 41485 41417 41436 41555 41725 41839 41930 42026 42112 42069 42005 41977 42025 42115 42236 42233 42233 42192 42199 42238 42163 42090 42103 42129 42207 42322 42413 42460 42511 42592 42629 42587 42451 42356 42359 42346 42373 42339 42430 42500 42621 42685 42569 42456 42419 42419 42475 42595 42698 42777 42862 42916 42905 42706 42528 42383 42373 42451 42574 42654 42728 42791 42859 42887 42767 42617 42564 42581 42656 42697 42693 42661 42611 42634 42626 42418 42249 42139 42102 42229 42297 42316 42352 42412 42492 42559 42518 42246 42105 42019 42012 42029 42025 42082 42222 42283 42381 42241 41912 41646 41528 41533 41600 41673 41754 41792 41860 41866 41875 41734 41665 41628 41711 41773 41836 41802 41798 41778 41781 41756 41406 41110 40846 40715 40701 40824 41127 41438 41619 41812 42080 42080 42064 42126 42280 42388 42443 42432 42397 42337 42219 42115 41890 41603 41423 41372 41322 41419 41558 41693 41795 41839 41912 41852 41662 41556 41522 41498 41418 41319 41254 41267 41337 41399 41409 41248 41147 41140 41145 41232 41368 41465 41545 41618 41652 41553 41202 40739 40476 40480 40638 40800 40972 41139 41338 41483 41527 41331 41094 40976 40946 40991 41122 41209 41307 41401 41446 41492 41405 41194 41144 41123 41258 41347 41302 41258 41223 41234 41297 41292 41084 40937 40901 40916 40934 40940 40897 40955 41163 41293 41397 41169 40850 40666 40623 40668 40790 40916 41092 41226 41371 41368 41122 40858 40658 40638 40777 41039 41178 41125 41032 40992 41013 40832 40567 40467 40471 40571 40713 40805 40853 40915 40959 41056 41123 40920 40660 40418 40327 40358 40429 40513 40593 40692 40808 40814 40704 40454 40255 40239 40347 40523 40675 40816 40884 40854 40803 40554 40290 40189 40240 40370 40517 40511 40542 40539 40591 40673 40543 40225 40030 39989 40093 40229 40356 40438 40553 40668 40815 40892 40652 40312 40093 39992 40055 40177 40385 40563 40696 40760 40755 40401 40009 39873 39878 40030 40240 40361 40397 40397 40373 40383 40328 40266 40234 40251 40297 40309 40345 40346 40373 40468 40609 40532 40359 40217 40147 40295 40298 40343 40444 40567 40708 40784 40603 40197 39992 39827 39851 39964 40068 40179 40272 40329 40337 40224 39866 39556 39367 39467 39558 39804 40056 40319 40595 40669 40539 40257 40018 39903 39963 40029 40166 40283 40810 41521 41698 41680 41509 41400 41429 41484 41671 41918 41836 41636 41485 41514 41443 41061 40760 40538 40668 41197 41915 42065 42075 42135 42376 42588 42349 42150 42080 41846 41633 41581 41602 41585 41596 41670 41551 41476 41636 41745 41726 41731 41895 42180 42381 42453 42607 42487 41896 41292 40961 40846 40856 40912 40922 41006 41290 41542 41690 41479 41343 41379 41423 41451 41662 41661 41467 41290 41189 41151 40822 40552 40397 40444 40799 41140 41459 41607 41772 42006 42116 41917 41595 41121 40766 40603 40544 40523 40552 40668 40798 40831 40766 40739 40709 40662 40664 40842 41030 41204 41419 41432 41177 40663 40254 40075 40016 40072 40182 40270 40531 40768 40940 40963 40657 40241 40060 40095 40162 40224 40135 40105 40116 40172 40152 39794 39453 39351 39529 39937 40360 40661 40924 41082 41175 41213 40846 40323 39967 39811 39819 39900 39972 40072 40233 40341 40401 40160 39984 39887 39894 40072 40374 40561 40738 40752 40666 40492 40090 39862 39747 39812 40045 40214 40351 40360 40423 40510 40575 40555 40477 40486 40593 40601 40540 40469 40455 40499 40560 40522 40276 40080 40048 40076 40105 40154 40259 40472 40644 40770 40762 40324 39913 39740 39750 39863 39983 40096 40298 40422 40526 40402 40088 39867 39802 39883 40132 40321 40547 40643 40572 40539 40396 40100 39882 39825 40019 40203 40428 40584 40778 40958 41139 41381 41457 41424 41326 41289 41221 41117 41034 41016 41079 41177 41299 41223 41344 41765 42003 42027 41960 41938 42032 42154 42308 42410 42073 41585 41219 41087 41162 41202 41319 41509 41665 41875 41962 41799 41543 41304 41280 41400 41509 41619 41587 41456 41389 41331 41066 40739 40641 40658 40790 41032 41246 41403 41504 41637 41792 41661 41381 41237 41004 40839 40761 40746 40823 40843 40981 41094 40989 41014 41158 41201 41238 41327 41417 41504 41581 41668 41640 41222 40731 40420 40384 40423 40528 40602 40769 41089 41434 41643 41457 41184 41064 41073 41171 41146 41025 40847 40721 40695 40710 40453 40176 40034 40219 40704 41081 41210 41302 41390 41487 41557 41296 40862 40524 40284 40205 40275 40386 40417 40464 40507 40675 40676 40512 40428 40489 40655 40786 40909 40947 40727 40530 40256 39898 39657 39548 39590 39800 40226 41098 41476 41472 41470 41420 41126 40951 40872 40855 40683 40507 40424 40406 40501 40593 40515 40216 40218 40259 40331 40405 40497 40659 40919 41126 41318 40943 40335 39897 39711 39663 39671 39743 39890 39995 40322 40537 40369 40095 39964 40085 40356 40629 40892 41023 40872 40742 40612 40321 40003 39886 39943 40042 40600 41304 41429 41447 41542 41655 41422 41091 40874 40651 40412 40284 40207 40204 40269 40358 40320 39983 39681 39766 40042 40263 40458 40644 40850 41109 41395 41385 40822 40355 40113 40100 40206 40336 40486 40652 40776 41022 41128 40978 40762 40684 40854 41092 41350 41504 41345 41168 41021 40764 40467 40311 40316 40443 40518 40673 40857 41034 41113 41175 41079 41024 41070 41182 41159 41022 40883 40857 40882 40973 41081 40899 40648 40556 40629 40840 41028 41174 41303 41480 41677 41745 41480 41048 40726 40651 40708 40817 40922 41080 41314 41410 41367 41233 41147 41188 41358 41594 41865 42047 41916 41718 41589 41342 41026 40885 40842 40884 41080 41133 41203 41226 41304 41422 41267 41113 41066 40973 40866 40776 40744 40773 40764 40797 40912 40861 40669 40559 40541 40576 40690 40965 41230 41465 41713 41556 41175 40921 40864 40925 40994 41104 41257 41422 41594 41742 41684 41450 41287 41294 41439 41653 41865 41834 41686 41559 41409 41151 40935 40835 40864 41004 41166 41290 41406 41514 41582 41652 41619 41636 41701 41658 41518 41408 41384 41419 41491 41598 41617 41380 41288 41215 41270 41306 41387 41614 41806 41967 42020 41648 41174 40872 40766 40761 40798 41036 41202 41238 41211 41125 40813 40411 40244 40386 40569 40803 40995 40878 40807 40777 40583 40307 40124 40155 40346 40422 40386 40376 40328 40221 40336 40347 40321 40421 40491 40557 40528 40529 40553 40643 40668 40620 40330 40130 39979 39963 39926 39802 39895 40191 40454 40632 40408 39950 39684 39573 39530 39539 39645 39837 40061 40173 40040 39736 39472 39454 39596 39880 40197 40425 40569 40528 40474 40234 39962 39808 39801 39914 40176 40345 40373 40387 40413 40265 39995 39970 39991 40176 40142 40064 40091 40162 40217 40262 40036 39881 39847 39888 39910 40005 39916 39862 40025 40285 40427 40249 40048 39872 39920 40075 40232 40350 40525 40773 40934 40890 40699 40616 40654 40830 41073 41268 41414 41564 41463 41202 40831 40659 40614 40652 40737 40899 41006 41121 41241 41390 41319 41211 41255 41364 41556 41664 41622 41514 41444 41445 41448 41284 41142 41087 41145 41248 41339 41486 41629 41812 41993 41953 41820 41652 41498 41437 41441 41487 41563 41639 41781 41736 41569 41459 41423 41437 41495 41589 41703 41828 41993 42034 41735 41459 41319 41287 41345 41419 41541 41679 41808 41964 42165 42169 42072 42010 42040 42123 42271 42328 42250 42139 42074 41858 41615 41509 41562 41614 41778 41977 42200 42334 42418 42473 42363 42354 42397 42357 42203 42089 42048 42080 42128 42234 42169 41958 41927 41997 42061 42120 42166 42263 42423 42588 42743 42535 42182 41930 41920 42022 42132 42278 42444 42502 42580 42382 42075 41753 41617 41716 41854 41998 42171 42153 42045 41789 41457 41210 41127 41274 41390 41573 41559 41530 41524 41524 41275 41016 40907 41034 41224 41127 41117 41137 41202 41289 41141 40852 40673 40737 40761 40830 40856 40907 40933 41069 41012 40722 40470 40247 40203 40245 40344 40429 40519 40684 40799 40400 39982 39790 39643 39595 39720 39914 40236 40470 40548 40320 39938 39735 39665 39658 39764 39879 40131 40580 40888 40924 40725 40486 40411 40435 40690 41070 41158 41105 41155 41143 40800 40527 40400 40507 41293 42250 42439 42379 42396 42565 42655 42472 42506 42301 41973 41738 41650 41639 41622 41605 41442 41097 41143 41317 41295 41310 41399 41545 41746 41980 42195 42043 41488 41003 40822 40826 40887 40987 41068 41061 41355 41722 41646 41428 41415 41745 42159 42353 42683 42610 42321 41892 41323 40930 40743 40713 40731 40677 40977 41494 41610 41640 41448 41234 41238 41306 41400 41435 41156 40934 40892 40907 40691 40352 40136 40096 40207 40252 40341 40420 40430 40506 40382 40196 40003 39750 39587 39566 39682 39762 39864 39937 40038 39770 39467 39280 39188 39247 39478 39764 39961 40186 40313 39822 39316 39047 38968 39000 39129 39297 39516 39607 39594 39429 39082 38881 38887 39090 39321 39589 39705 39616 39543 39412 39050 38787 38749 38851 39062 39324 39433 39468 39628 39774 39796 39620 39502 39594 39713 39668 39709 39737 39790 39813 39807 39625 39426 39783 40179 40452 40585 40681 40830 41052 41165 40976 40691 40237 39983 40031 40143 40249 40379 40414 40663 40885 40722 40448 40294 40239 40353 40559 40825 41088 41226 41069 40677 40351 40190 40211 40296 40475 40612 40941 41170 41285 41280 41169 41324 41594 41792 42008 41887 41662 41486 41427 41326 41049 40827 40599 40549 40970 41283 41333 41399 41612 41879 41986 41998 41642 41271 41073 40970 40991 41060 41176 41203 41146 41315 41361 41289 41304 41427 41707 42017 42231 42399 42239 41575 40948 40704 40692 40783 40957 41056 41155 41284 41313 41117 40923 40936 41172 41326 41554 41614 41388 41220 41093 40832 40443 40197 40264 40544 40752 40722 40737 40765 40830 40867 40715 40680 40834 40760 40553 40416 40371 40331 40269 40267 40053 39733 39789 39838 39872 39901 40063 40325 40633 40909 40719 40238 39896 39778 39872 40044 40152 40244 40387 40545 40417 40118 39929 39919 40167 40440 40607 40866 41022 40835 40384 39916 39716 39746 39929 40173 40349 40372 40358 40378 40366 40073 39920 39911 39987 40277 40396 40321 40258 40287 40281 40030 39706 39703 39879 40127 40286 40404 40544 40707 40949 41030 40805 40731 40577 40541 40542 40614 40655 40697 40727 40796 40674 40570 40501 40589 40678 40828 40995 41179 41381 41466 41127 40777 40589 40589 40667 40795 40966 41198 41457 41581 41437 41224 41099 41112 41230 41373 41574 41535 41418 41357 41158 40827 40617 40571 40688 40991 41195 41258 41335 41346 41246 41110 41053 41079 41228 41295 41297 41306 41399 41475 41521 41435 41208 41097 41103 41115 41167 41204 41264 41491 41721 41709 41551 41290 41124 40992 40883 40870 40889 41025 41210 41252 41019 40782 40705 40753 41004 41373 41570 41751 41845 41797 41501 41246 41098 41010 40971 41121 41307 42293 43760 43780 43663 43425 43308 43320 43448 43717 43721 43573 43459 43405 43365 43198 43034 43011 43161 43434 43700 43800 43923 44082 44185 44082 43977 43821 43562 43427 43345 43319 43355 43377 43380 43405 43354 43326 43243 43197 43299 43462 43649 43784 43948 44163 43762 43250 42922 42876 42885 42974 43073 43193 43345 43341 43166 42884 42545 42370 42502 42642 42740 42917 42875 42794 42626 42356 42158 42066 42184 42364 42503 42459 42414 42471 42428 42174 42003 41953 42059 42193 42204 42188 42264 42353 42431 42324 42077 41947 41987 41941 41983 42015 42108 42232 42361 42182 41895 41614 41474 41486 41580 41648 41742 41917 42196 42382 42330 42059 41946 41934 41979 42148 42283 42473 42564 42472 42038 41630 41468 41458 41606 41710 41970 42188 42348 42421 42244 42056 41906 41984 42274 42421 42584 42555 42386 42282 41998 41740 41575 41518 41654 41867 42207 42347 42322 42331 42184 41940 41823 41824 41924 41997 41974 41957 41971 42004 41934 41767 41750 41858 42106 42190 42238 42279 42361 42520 42664 42475 42223 42021 41927 41899 41918 42012 42119 42289 42484 42591 42687 42573 42471 42517 42737 42935 43037 43134 43116 42645 42151 41890 41851 41857 41905 41940 42009 42092 42715 43132 42951 42646 42598 42827 43133 43374 43554 43303 43000 42670 42241 41941 41877 41904 41907 41917 42015 42180 42436 42641 42612 42448 42398 42432 42569 42726 42624 42397 42244 42260 42198 41890 41677 41586 41692 41895 42205 42459 42592 42641 42755 42724 42689 42706 42736 42563 42385 42329 42368 42392 42413 42332 42024 41839 41988 42274 42424 42498 42614 42792 43020 43220 42989 42454 41954 41740 41801 41888 41946 42043 42143 42196 42194 42056 41856 41706 41726 41919 42257 42599 42761 42600 42433 42137 41779 41584 41588 41799 42027 42201 42265 42358 42406 42414 42188 42044 42077 42218 42251 42069 41923 41904 41931 41999 41872 41578 41429 41649 41889 42047 42104 42188 42257 42416 42579 42476 42274 41870 41603 41605 41613 41654 41745 41880 41927 42005 42358 42464 42321 42285 42470 42758 43060 43237 43183 42707 41985 41478 41241 41202 41239 41407 41544 41689 41694 41721 41659 41429 41343 41409 41574 41805 41784 41510 41320 41270 41225 40896 40603 40586 40708 40737 40742 40815 40694 40673 40927 40954 40814 40609 40382 40249 40161 40142 40088 40121 40203 40304 40347 40505 40626 40782 40900 41045 41240 41376 41573 41738 41329 40797 40432 40377 40489 40601 40727 40846 40941 41282 41374 41247 41090 41046 41151 41345 41473 41706 41689 41516 41207 40764 40488 40395 40488 40694 40815 41163 41533 41797 41979 41959 41718 41511 41488 41581 41572 41388 41308 41244 41301 41091 40766 40653 40692 41122 41442 41648 41869 42072 42227 42073 41683 41449 41368 41254 41083 41032 41080 41158 41303 41334 41072 40980 40878 40897 40981 41069 41311 41449 41463 41359 41087 40655 40434 40391 40502 40676 40779 40824 40748 40742 40527 40290 40124 40013 40056 40309 40580 40812 41037 41158 40953 40703 40530 40529 40598 40810 40954 41098 41063 41015 40996 40817 40673 40696 40920 41084 41083 41125 41096 41156 41124 40909 40802 40868 41253 41664 41845 41949 41984 42065 42190 42283 42478 42562 42736 42817 42772 42662 42622 42905 43216 43287 43196 43038 42955 42973 43012 43095 43344 43649 43798 43483 42912 42314 42015 41925 41919 41904 41972 42270 42265 41995 41547 41187 41069 41117 41200 41193 41053 40936 40879 40653 40371 40283 40319 40404 40409 40307 40348 40428 40401 40360 40247 40165 40214 40259 40203 40177 40184 40258 40295 40239 39921 39711 39722 39767 39854 39996 40061 40096 40358 40354 40006 39701 39472 39477 39593 39738 39893 40064 40196 40123 39862 39577 39492 39513 39579 39803 40121 40282 40391 40215 39787 39528 39533 39691 39889 40021 40099 40113 40382 40399 40236 40128 40122 40263 40476 40649 40756 40730 40638 40342 40067 39958 39999 40115 40273 40373 40712 41090 41297 41365 41275 41225 41275 41445 41657 41639 41419 41280 41213 41117 40802 40634 40641 40785 40868 40932 41028 41101 41200 41130 40886 40744 40692 40537 40494 40498 40569 40634 40716 40565 40329 40191 40222 40210 40143 40218 40327 40521 40719 40551 40332 40205 40120 40204 40378 40520 40651 40825 40878 40690 40346 40010 39997 40188 40481 40771 40936 41037 41035 40610 40274 40170 40326 40642 41020 41281 41678 42319 42644 42440 41953 41648 41438 41255 40927 40560 40409 40421 40615 40907 41161 41292 41357 41426 41342 41398 41487 41664 41869 42055 42121 41994 41751 41308 41125 41168 41427 41655 41839 41962 41975 41694 41298 41217 41272 41396 41578 41759 41921 41919 41589 40930 40572 40530 40713 40912 41086 41264 41407 41527 41345 41152 41071 41112 41219 41374 41559 41719 41794 41498 40978 40755 40798 40954 41130 41278 41393 41490 41434 41382 41073 40877 40839 40919 41046 41195 41294 41205 40891 40723 40639 40729 40901 41056 41195 41282 41308 41201 41205 41269 41313 41258 41300 41407 41504 41437 41223 41106 41148 41290 41484 41634 41725 41780 41778 41656 41640 41620 41637 41677 41602 41540 41569 41551 41412 41390 41440 41631 41824 42016 42141 42172 42091 41886 41819 41837 41854 41955 42081 42176 42115 41896 41438 41226 41199 41333 41516 41667 41779 41907 41731 41373 41179 41135 41181 41276 41384 41508 41549 41269 40842 40572 40533 40698 40909 41099 41214 41264 41215 41064 40779 40639 40606 40707 40849 41027 41154 41119 40998 40757 40465 40424 40520 40667 40792 40903 40868 40839 40844 40661 40413 40326 40382 40520 40598 40459 40314 40246 40255 40265 40300 40364 40494 40610 40599 40547 40594 40657 40726 40587 40462 40488 40625 40672 40562 40421 40382 40492 40730 40836 40902 40969 41011 40974 41047 41166 41261 41452 41368 41097 40900 40920 41194 41406 41294 41103 40972 40967 40774 40538 40401 40411 40644 40876 40925 40904 40931 41023 40893 40617 40462 40379 40295 40225 40212 40230 40327 40406 40283 40031 39868 39817 39712 39946 40231 40499 40564 40489 40063 39954 40207 40209 40199 40165 40137 40181 40235 40142 39766 39506 39391 39439 39612 39790 39897 39996 40069 39964 39619 39254 39105 39068 39126 39193 39311 39357 39409 39320 38992 38770 38711 38761 38844 38864 38842 38818 38859 38695 38345 38178 38238 38323 38392 38441 38436 38394 38392 38377 38161 37998 37922 37943 37971 37966 37951 37942 37961 37800 37476 37227 37209 37227 37189 37171 37141 37234 37313 37327 37069 36852 36703 36671 36772 36884 36918 36889 36842 36729 36362 36064 35906 35866 35951 36148 36393 36637 36797 36800 36480 36345 36529 36764 36810 36770 36732 36670 36651 36622 36343 35936 35661 35558 35509 35467 35448 35475 35652 35816 35880 35742 35596 35475 35306 35355 35651 36003 36079 36095 36053 35740 35541 35506 35505 35500 35499 35419 35316 35254 35171 35102 35288 35566 35785 35857 35911 36131 36059 35963 36040 35965 35800 35759 35774 35705 35662 35647 35655 35621 35579 35371 35164 35063 35000 35055 35277 35514 35671 35831 35896 35783 35585 35374 35327 35489 35715 35835 35972 36058 35997 35798 35593 35499 35446 35348 35265 35232 35235 35244 35373 35582 35652 35627 35682 35761 35849 35900 35847 35743 35814 35948 35904 35855 35905 35921 35846 35872 35902 35932 35871 35760 35563 35399 35379 35401 35548 35822 36126 36309 36422 36492 36483 36351 36104 35974 36079 36265 36386 36468 36530 36504 36412 36294 36148 35995 35871 35865 35935 36054 36089 36190 36340 36567 36531 36417 36347 36318 36410 36457 36378 36386 36478 36565 36669 36667 36589 36493 36447 36420 36458 36441 36407 36463 36481 36364 36352 36533 36744 37024 37250 37496 37802 38187 38667 39109 39515 39832 40126 40456 40747 41021 41211 41394 41564 41711 41886 41969 42091 42270 42485 42750 42994 43258 43433 43577 43626 43542 43460 43426 43479 43517 43561 43584 43552 43507 43460 43102 42849 42783 42784 42960 43203 43471 43759 44099 44365 44561 44376 44307 44647 44603 44466 44411 44471 44587 44709 44822 44715 44591 44635 44741 44857 44981 45068 45041 45071 45015 44851 44446 44111 43860 43744 43681 43658 43632 43592 43557 43508 43292 43099 42951 42902 42884 42956 43138 43336 43582 43834 44003 44050 44206 44484 44771 45060 45361 45651 45978 46250 46430 46290 46042 45824 45531 45159 44866 44622 44410 44241 44109 43780 43336 43001 42757 42655 42512 42296 42099 41866 41660 41270 40768 40500 40461 40653 40880 41052 41107 41039 40923 40759 40281 40005 39932 40000 40156 40341 40556 40776 40982 41205 41363 41199 40827 40579 40655 40872 41038 41189 41261 41363 41481 41402 41237 41180 41223 41311 41419 41510 41635 41728 41860 41890 41714 41563 41487 41512 41588 41649 41713 41789 41900 41988 41861 41690 41597 41637 41698 41787 41863 41944 42029 42135 42173 42007 41859 41820 41844 41889 41969 41989 42029 42097 42152 42064 41889 41793 41800 41869 41937 42019 42107 42166 42224 42276 42184 42066 42044 42044 42122 42173 42206 42258 42277 42310 42152 41901 41761 41682 41706 41744 41770 41761 41765 41766 41789 41688 41551 41452 41448 41499 41532 41574 41623 41701 41772 41693 41566 41468 41462 41456 41528 41645 41731 41820 41918 42020 41934 41790 41688 41665 41763 41810 41848 41904 42004 42094 42187 42132 42003 41868 41833 41840 41891 41952 41963 41992 42049 42048 41846 41664 41600 41616 41747 41915 42063 42192 42318 42465 42520 42410 42243 42171 42206 42283 42376 42407 42468 42508 42537 42411 42100 41858 41766 41813 41919 41989 42070 42138 42248 42345 42287 42058 41882 41804 41837 41912 41933 41976 42048 42141 42182 41980 41643 41403 41264 41190 41176 41132 41125 41181 41320 41423 41273 41031 40867 40764 40748 40827 40968 41328 41552 41649 41666 41378 40991 40698 40629 40807 41013 41239 41481 41760 42023 42284 42249 42248 42371 42594 42848 43089 43227 43300 43361 43374 43333 43116 42808 42580 42506 42470 42504 42681 42924 43087 43216 43297 43101 42828 42657 42823 43071 43232 43278 43247 43144 43182 43202 43105 43140 43417 44028 44630 45009 45225 45415 45660 45956 46319 46508 46300 46157 46296 46373 46453 46432 46352 46359 46398 46296 45922 45690 45429 45138 44764 44408 43948 43526 43108 42665 42180 41355 40436 39644 39077 38700 38348 37962 37569 37230 36929 36555 35915 35321 34943 34805 34776 34728 34857 35060 35623 35782 35761 35726 35611 35538 35693 35645 35398 35186 35032 35039 35066 35009 34655 34218 33816 33593 33435 33368 33377 33541 33798 34184 34517 34386 34366 34576 34718 34752 34645 34573 34528 34434 34289 34099 33865 33651 33515 33502 33522 33447 33312 33231 33223 33222 33212 33228 33247 33364 33774 34467 35053 35431 36098 36136 36647 37086 37123 36475 35747 35286 35148 35134 35061 34944 34859 34671 34435 34155 33833 33642 33800 34136 34439 34770 35275 36237 36632 37151 37529 37480 37640 37640 37485 37143 36792 36574 36441 36288 36108 35956 35750 35280 34824 34550 34520 34600 34723 34899 35107 35344 35601 35663 35511 35556 35697 35748 35772 35762 35765 35672 35478 35249 35070 34779 34728 34819 34901 34818 34794 34832 34892 34957 35029 35018 34742 34542 34497 34583 34718 34963 35113 35204 35272 35241 35094 35000 34887 34840 34780 34687 34664 34634 34564 34545 34665 34824 34938 34919 34976 35035 35091 35172 35177 35172 35265 35419 35549 35613 35438 35269 35181 35155 35236 35299 35188 35081 35049 35089 35078 35031 35002 35125 35298 35475 35595 35621 35648 35651 35537 35558 35744 35848 35862 35896 35927 35856 35681 35662 35675 35724 35713 35631 35440 35261 35237 35395 35654 35957 36111 36213 36257 36257 36276 36226 36119 36210 36321 36358 36459 36499 36500 36482 36398 36314 36195 35953 35742 35688 35668 35606 35648 35854 36110 36371 36490 36496 36269 36044 36032 36046 36142 36358 36546 36669 36574 36711 36775 36622 36461 36279 36137 36019 36022 36007 36014 35958 36021 36249 36453 36454 36529 36597 36724 36906 37001 36922 36982 37136 37298 37401 37197 37123 37001 36834 36801 36743 36675 36544 36529 36604 36600 36508 36420 36544 36751 36857 36894 36982 37087 37172 37216 37198 37164 37169 37204 37184 37172 37142 37231 37209 37127 37117 37070 36973 36820 36732 36778 36830 36886 37051 37192 37321 37394 37379 37377 37291 37105 36908 36854 37001 37156 37273 37380 37509 37617 37606 37534 37421 37216 37109 36994 37006 37066 37061 37077 37147 37296 37460 37517 37446 37327 37267 37245 37137 37125 37254 37397 37583 37859 38047 38040 38028 38044 38091 38089 38040 37969 38011 38059 38147 38285 38477 38667 38917 39219 39470 39688 39835 39952 39911 39841 39934 40046 39929 39712 39617 39628 39661 39635 39657 39713 39810 39863 39893 39774 39484 39390 39571 39794 40021 40218 40272 40153 40145 40137 40029 39771 39570 39395 39271 39186 39038 38831 38765 38789 38745 38615 38384 38046 37717 37427 37309 37460 37697 37920 38097 38145 38096 38135 38027 37830 37805 37821 37872 37961 37949 37851 37773 37761 37714 37508 37154 36838 36746 36756 36720 36666 36733 36893 37032 37173 37238 36998 36778 36654 36566 36636 36793 36835 36810 36824 36821 36732 36649 36450 36227 36055 35923 35843 35810 35734 35612 35634 35775 35973 36091 35976 35883 35875 35962 36078 36147 36284 36375 36384 36430 36464 36275 36022 35892 35863 35852 35786 35664 35609 35559 35518 35574 35715 35865 35851 35820 35836 35887 35915 35955 35940 36015 36272 36503 36582 36541 36388 36216 36150 36153 36148 36123 36048 35912 35747 35638 35590 35641 35758 35909 36078 36237 36329 36322 36348 36324 36329 36489 36602 36649 36546 36367 36212 36176 36247 36317 36321 36265 36197 36122 36080 36042 35961 35976 36165 36423 36665 36918 36981 37034 37032 36991 36896 36924 36855 36833 36812 36818 36761 36741 36735 36710 36674 36604 36541 36439 36289 36163 36141 36236 36451 36665 36848 36981 37033 37087 37071 36989 37003 37100 37107 37092 37158 37171 37077 36997 36957 36951 36913 36929 36762 36543 36303 36240 36370 36706 37110 37291 37399 37471 37492 37471 37244 37149 37229 37364 37377 37343 37336 37266 37229 37212 37203 37078 36890 36696 36624 36652 36707 36728 36815 36972 37172 37381 37589 37586 37384 37263 37160 37259 37480 37551 37496 37434 37418 37321 37325 37327 37253 37120 36935 36772 36666 36682 36740 36791 36903 37139 37350 37484 37555 37565 37556 37579 37545 37510 37493 37479 37555 37619 37591 37442 37302 37198 37109 37053 36990 37012 37057 37094 37098 37162 37273 37320 37315 37330 37341 37386 37409 37412 37537 37662 37725 37822 37876 37751 37560 37509 37524 37556 37529 37445 37308 37177 37030 36966 37063 37147 37238 37401 37521 37582 37691 37754 37767 37880 38115 38265 38279 38156 38076 38035 38034 38045 37950 37829 37666 37501 37343 37291 37434 37752 38047 38346 38636 38813 38886 38984 39025 38991 39186 39451 39744 40024 40167 40545 40942 41305 41549 41741 41867 41803 41631 41676 41828 42008 42059 41994 41911 41954 42081 42247 42403 42403 42394 42524 42829 43059 43111 43012 42900 42753 42670 42604 42571 42700 42882 43029 43139 43239 43132 42931 42771 42699 42688 42689 42715 42658 42544 42556 42580 42484 42264 41969 41743 41688 41642 41579 41516 41462 41402 41316 41208 41020 40743 40492 40313 40245 40230 40221 40188 40093 39987 39814 39680 39366 39100 39079 39188 39210 39271 39292 39206 39071 38977 38922 38843 38629 38449 38375 38407 38547 38658 38830 39169 39658 40176 40646 40792 40789 40776 40698 40643 40701 40558 40356 40251 40588 40898 41090 41391 41524 41665 41821 41965 42088 42236 42386 42530 42664 42775 42880 42987 43045 43080 43200 43312 43401 43450 43454 43430 43412 43386 43268 43042 42791 42569 42409 42288 42273 42296 42352 42387 42422 42427 42309 42110 41967 41931 41919 41900 41852 41826 41887 41979 42027 41976 41737 41392 41090 40863 40740 40651 40508 40361 40232 40136 40059 39945 39669 39343 39154 39035 38881 38776 38627 38478 38316 38267 38394 38517 38313 38164 38162 38138 38074 38024 37943 37837 37681 37593 37608 37471 37173 36961 36872 36863 36892 36908 36876 36774 36601 36445 36357 36252 36266 36276 36272 36337 36443 36413 36331 36183 36099 36065 36012 35799 35599 35500 35465 35440 35544 35764 36043 36231 36419 36543 36534 36275 35880 35609 35562 35699 35749 35712 35778 35853 35951 36026 36028 35754 35475 35286 35166 35063 34898 34712 34705 34947 35285 35595 35812 35796 35780 35857 36032 36094 36064 35995 36012 36030 35942 35859 35767 35608 35465 35297 35101 34974 34913 34870 34857 34776 34728 34843 35043 35252 35282 35281 35318 35337 35309 35237 35129 35203 35428 35535 35567 35674 35723 35587 35441 35350 35273 35166 35105 34997 34957 35010 35094 35149 35244 35309 35404 35489 35623 35713 35740 35788 35780 35708 35746 35774 35742 35747 35745 35753 35776 35768 35763 35690 35621 35542 35517 35613 35660 35610 35515 35476 35599 35749 35917 36077 36179 36148 36141 36068 36030 35980 35930 35872 35851 35843 35863 35874 35860 35768 35741 35699 35665 35655 35573 35347 35080 35019 35183 35413 35661 35878 36096 36205 36364 36495 36492 36424 36432 36397 36373 36332 36399 36319 36241 36248 36158 36074 36018 35999 35922 35698 35461 35368 35434 35636 35826 36001 36214 36368 36530 36715 36710 36532 36508 36617 36666 36757 36765 36736 36618 36494 36383 36272 36144 35956 35839 35828 35806 35748 35789 35877 36182 36583 36943 37424 38030 38718 39417 40055 40588 41032 41401 41786 42138 42390 42624 42861 43092 43264 43324 43465 43596 43773 43966 44165 44380 44555 44755 44902 45029 45144 45218 45265 45434 45654 45865 45994 46119 46178 46272 46344 46419 46461 46512 46358 46252 46197 46183 46181 46140 46081 46003 45927 45827 45673 45586 45509 45251 45050 44840 44779 44723 44796 44852 44896 44952 45031 45111 45066 44964 44895 44897 44960 45049 45142 45159 45167 45103 45035 44989 44843 44536 44239 43985 43813 43721 43660 43577 43515 43424 43321 43214 43036 42614 42200 41923 41716 41561 41436 41357 41269 41147 41027 40937 40898 40761 40452 40176 39981 39920 39981 39942 39850 39927 40015 40013 39966 39910 39575 39224 39045 39042 39077 39071 38945 38852 38763 38699 38680 38754 38594 38404 38366 38448 38523 38516 38534 38540 38518 38557 38667 38659 38564 38329 38021 37824 37703 37625 37562 37463 37442 37478 37437 37335 37127 36797 36525 36409 36391 36425 36424 36373 36377 36342 36336 36409 36476 36419 36197 36171 36077 35927 35834 35723 35575 35437 35365 35320 35203 34864 34615 34670 34835 34960 35014 34986 34970 34943 34904 34978 35172 35574 35522 35428 35268 35079 34891 34703 34603 34515 34421 34427 34399 34253 33861 33559 33602 33900 34243 34482 34800 34951 35028 35223 35205 35379 35472 35461 35409 35401 35202 34964 34762 34593 34564 34530 34551 34658 34664 34363 34054 33913 34031 34263 34426 34634 35110 35383 35701 36292 37031 37437 37229 36675 36134 35749 35465 35179 34935 34745 34642 34695 34895 34921 34646 34380 34288 34465 34664 34755 34734 34631 34508 34504 34504 34791 35056 34976 35034 35177 35224 35167 35061 35007 35000 35068 35097 35160 35031 34754 34554 34513 34644 34870 35077 35237 35356 35416 35476 35614 35762 35890 35969 36063 36240 36344 36330 36261 36109 35922 35811 35766 35809 35761 35544 35231 35028 35043 35231 35482 35676 35795 35773 35782 35789 35767 35790 35931 36113 36266 36388 36425 36373 36234 36090 35958 35875 35788 35671 35552 35400 35224 35173 35342 35640 35887 36083 36175 36211 36242 36202 36104 36142 36332 36498 36532 36556 36554 36490 36399 36411 36340 36169 35965 35824 35784 35795 35799 35858 36040 36246 36402 36544 36506 36415 36358 36224 36115 36175 36298 36349 36468 36622 36659 36574 36497 36443 36428 36304 36156 35993 35921 35879 35926 36093 36371 36583 36672 36703 36713 36714 36602 36459 36561 36851 36879 36891 36962 36963 36881 36818 36761 36685 36600 36418 36300 36281 36210 36155 36212 36450 36718 36926 37059 37136 37093 37024 36859 36726 36776 36920 37051 37174 37269 37252 37134 37059 37014 36957 36766 36577 36503 36489 36418 36369 36450 36653 36911 37150 37349 37453 37290 37098 36991 36974 37112 37256 37274 37296 37311 37265 37163 37136 37112 36956 36749 36639 36686 36736 36710 36688 36764 36962 37175 37337 37425 37313 37148 37062 36996 37093 37298 37426 37467 37514 37497 37450 37373 37309 37137 37014 36965 36943 36950 36887 36746 36696 36849 37094 37318 37520 37574 37462 37398 37519 37607 37653 37826 37909 38022 38082 38057 37975 37831 37602 37383 37260 37198 37258 37320 37245 37148 37159 37311 37564 37822 37883 37817 37727 37802 37995 38054 38116 38225 38264 38433 38537 38543 38486 38214 37971 37802 37701 37630 37620 37502 37308 37213 37313 37512 37799 37993 38061 38104 38164 38243 38407 38454 38527 38655 38718 38789 38717 38816 38697 38366 38160 37985 37906 37842 37873 37960 37922 37874 37863 38006 38119 38143 38141 38227 38345 38459 38512 38498 38412 38436 38489 38578 38571 38549 38518 38323 38159 38035 37957 37908 37854 37868 37950 37983 37946 38011 38168 38288 38271 38231 38254 38292 38341 38325 38191 38286 38398 38411 38439 38502 38542 38439 38241 38073 38018 38041 38024 38023 38031 37961 37837 37883 38063 38254 38307 38209 38115 38052 38022 37964 37866 38007 38265 38420 38441 38403 38554 38567 38295 38092 38031 37988 37995 38018 38004 37935 37870 37905 38111 38342 38492 38427 38217 38102 38134 38133 38212 38455 38623 38669 38684 38657 38538 38379 38228 38105 38059 37982 37990 37997 37987 37859 37801 37851 38008 38152 38246 38195 38133 38090 38115 38156 38339 38520 38493 38460 38472 38441 38356 38250 38088 37931 37796 37690 37664 37654 37622 37568 37679 37824 37898 37782 37717 37692 37778 38071 38335 38608 38688 38497 38367 38642 38896 39056 39345 39763 40060 40219 40283 40166 39936 39805 39890 40044 40285 40577 41020 41272 41863 42632 42703 42569 42455 42444 42537 42658 42880 43136 43301 43273 43196 43093 42898 42512 42218 42242 43113 44463 44768 44480 44255 44315 44552 44691 44801 44614 44275 43916 43643 43521 43321 43207 43197 43368 43977 44218 44082 43747 43367 43177 43205 43252 43458 43484 43396 43237 43145 43113 42974 42725 42527 42424 42653 42786 42834 42791 42677 42758 42944 43041 43230 43274 42987 42594 42297 42069 41880 41818 41870 41896 42302 42741 42999 43151 43182 43067 42928 42871 43081 43033 42841 42627 42501 42395 42426 42545 42576 42646 42667 42455 42316 42463 42901 43120 43200 43369 43266 43026 42849 42579 42214 41879 41724 41699 42326 43579 43737 43584 43510 43623 43799 43797 43664 43710 43307 42842 42640 42546 42527 42545 42559 42587 43035 43607 43781 43483 43133 41897 42146 42792 42837 42322 42616 42763 42674 42650 42640 42516 42242 41827 41787 42218 42509 42643 42307 41967 41760 41749 42376 41726 42036 42836 42622 42417 42267 42113 42002 41741 41834 42268 42561 42278 42189 41882 41740 41810 42038 42340 42277 42192 42102 42051 42078 42100 42065 41620 41441 41437 41507 41571 41630 41761 41917 41977 41847 41903 41877 41597 41312 41223 41181 41173 41296 41260 41330 41459 41465 41463 41368 41086 40831 40763 40499 40778 40873 40970 41057 41245 41483 41605 41489 41268 41347 41642 41944 42016 42053 42223 42343 42383 42473 42656 42493 42122 41738 41491 41413 41334 41160 40974 40898 40732 40576 40381 40312 40255 40242 40397 40398 40463 40512 40615 40807 41015 41136 41302 41468 41199 40672 40216 40136 40344 40597 40771 40914 40948 41092 41212 41242 41131 40998 40919 40934 40933 40803 40541 40332 40230 40339 40540 40735 40758 40660 40445 40466 40548 40558 40604 40670 40764 40962 41090 40876 40614 40407 40227 40218 40344 40495 40730 40915 41001 41013 41050 41093 41029 40931 40891 40879 40689 40596 40558 40397 40410 40624 40935 41223 41264 41004 40848 40775 40771 40853 41026 41144 41217 41276 41222 41091 40811 40603 40654 40964 41312 41689 41941 42094 42178 42224 42294 42311 42194 42096 42028 41915 41701 41520 41263 41205 41379 41535 41712 41819 41672 41253 41217 41172 41484 41855 42074 42269 42412 42482 42477 42220 41861 41583 41362 41333 41377 41363 41526 41681 41856 41955 41923 41740 41476 41250 41132 41046 41118 41336 41349 41237 41142 41083 41157 41198 41196 41080 41181 41336 41495 41722 41994 42245 42390 42535 42462 42100 41970 41905 41908 41981 42090 42228 42359 42282 42267 42252 42102 41912 41819 41808 41884 42046 42059 42043 42126 42225 42336 42467 42430 42493 42565 42629 42770 42830 42954 43067 43207 43293 43281 43140 42780 42486 42284 42168 42064 42094 42291 42526 42707 42765 42879 42704 42542 42382 42261 42258 42248 42221 42304 42353 42306 42259 42167 41957 41787 41825 41958 42118 42139 42151 42177 42186 42256 42290 42099 41761 41617 41393 41257 41149 41146 41269 41491 41611 41769 41773 41599 41401 41347 41509 41723 41878 42066 42143 42363 42572 42652 42772 42740 42555 42392 42464 42600 42524 42430 42401 42420 42463 42253 42007 41953 41811 41892 41900 41952 42037 42143 42225 42256 42143 41941 41650 41504 41500 41584 41605 41639 41639 41622 41680 41544 41238 40933 40770 40928 41140 41121 40996 41232 41305 41351 41427 41329 41219 41108 41202 41380 41682 41935 42116 42140 42110 42009 41992 41670 41395 41306 41200 41250 41295 41326 41302 41338 41360 41444 41461 41430 41204 41112 41048 41042 41140 41299 41636 41863 41817 41577 41219 40953 40867 40848 40884 41040 41352 41895 42375 42740 42876 42747 42498 42286 42207 42443 42426 42316 42260 42256 42392 42507 42428 41945 41299 41576 42617 42845 42838 42735 42703 42784 42944 43217 43201 42785 42348 42156 42064 42010 41978 42002 42011 42284 42455 42358 42217 42016 41912 42162 42436 42693 42619 42444 42326 42246 42039 41690 41424 41474 41776 42321 42378 42310 42258 42204 42258 42396 42401 42555 42230 41970 41868 41869 41867 41922 41966 42063 42042 42105 42062 42029 41951 41906 41911 42024 42137 42313 42358 42252 42144 41890 41513 41343 41381 41580 41581 41563 41883 41994 42113 42327 42556 42602 42598 42669 42552 42226 42011 41916 41945 42023 42176 42220 42008 41758 41691 41706 41658 41552 41590 41775 41905 42100 42148 41771 41469 41338 41395 41501 41608 41768 41821 41936 42034 42046 41738 41334 41043 41023 41111 41305 41570 41440 41401 41407 41379 41096 40710 40384 40530 41026 41256 41347 41428 41460 41564 41759 41757 41524 41666 41402 41265 41192 41207 41275 41335 41444 41566 41530 41333 41078 40915 40831 40705 40782 40958 41079 41325 41605 41389 41103 40898 40890 40928 40983 41080 41069 41316 41449 41485 41397 41088 40879 40876 40987 41290 41463 41336 41292 41241 41193 41099 40841 40733 40700 40944 41253 41467 41591 41576 41596 41729 41754 41392 41456 41155 41016 41027 41148 41241 41251 41263 41343 41409 41259 40970 40769 40582 40495 40727 41015 41134 41177 41268 41216 40976 40748 40728 40744 40734 40841 41102 41698 41901 41848 41816 41447 41164 41045 41057 41220 41340 41267 41241 41190 41193 41256 41035 40896 40835 41051 41103 41113 41010 40975 41102 41223 41283 41136 40846 40628 40564 40652 40721 40708 40827 41057 41316 41550 41284 40964 40698 40523 40643 40850 41088 41310 41283 41218 41182 40943 40756 40594 40621 40753 41336 42452 42669 42536 42399 42344 42170 42056 42128 42530 42836 42767 42584 42475 42413 42397 42399 42211 41746 41825 42107 42114 42092 41994 41956 42009 42050 42206 42070 41676 41345 41179 41075 41029 41050 41250 41405 41685 41804 41769 41534 41307 41319 41549 41767 42018 42191 42105 42037 42051 41931 41639 41397 41407 41465 41857 42284 42530 42645 42734 42829 42868 42618 42488 42288 42166 42126 42119 42124 42176 42177 42275 42222 42454 42602 42641 42648 42725 42786 42790 43044 43438 43310 43054 42561 42135 41879 41803 41909 42066 42466 42734 42709 42729 42738 42523 42174 41974 42019 42055 42004 41960 41924 42046 42103 42179 42221 41970 42074 42123 42222 42375 42501 42628 42737 42846 42979 42724 42269 41926 41746 41774 41845 42036 42082 42187 42561 42807 42909 42643 42435 42378 42501 42700 42742 42591 42471 42366 42343 42259 41902 41712 41630 41862 42150 42354 42435 42532 42666 42819 42887 42616 42159 41820 41677 41653 41731 41804 41880 41981 42160 42520 42742 42761 42564 42474 42527 42703 42848 42720 42536 42405 42268 41988 41744 41739 41868 42084 42367 42525 42605 42674 42739 42780 42473 41961 41755 41458 41326 41248 41368 41526 41629 41573 41410 40733 40063 39780 39831 40153 40595 40921 41078 41047 40846 40520 40027 39814 39837 39867 39928 39910 39844 39770 39665 39752 40006 40202 40145 40154 40253 40292 40254 40134 40124 40182 40318 40495 40500 40164 39819 39684 39598 39681 39593 39687 40015 40403 40916 41169 40836 40448 40299 40401 40553 40734 40963 41072 41215 41356 41394 41193 40917 40865 41039 41259 41629 41670 41409 41168 41065 40983 40804 40740 40815 41040 41545 41922 42016 41985 42096 42392 42748 42996 42848 42360 41881 41615 41639 41766 41868 41971 42097 42505 43142 43138 42836 42916 43203 43353 43410 43496 43376 43130 42833 42428 42069 41880 41877 42092 42407 43042 43668 43823 43753 43676 43501 43352 43312 43385 43652 43973 43794 43395 43111 42945 42927 42788 42493 42310 42440 43002 43658 43792 43696 43719 44001 44330 44451 44622 44742 44271 43756 43509 43348 43264 43220 43282 43581 44063 44412 44225 44069 44145 44315 44494 44686 45051 45525 45323 44365 43556 43025 42710 42570 42527 42511 42889 43729 44131 43990 43994 43902 43782 43736 43852 44261 44384 43866 43283 43026 42935 42751 42376 42157 42208 42332 42312 42230 42307 42488 42533 42501 42310 42606 42914 42530 42227 42133 42157 42366 42580 42810 43257 43314 42950 42549 42304 42224 42238 42320 42709 43394 43526 43043 42390 42027 41960 42075 42257 42624 43106 43183 42912 42812 42827 42498 42097 41932 42199 43005 42929 42528 42278 42177 42309 42342 42092 41949 41959 41900 41786 41748 41840 41964 42006 42274 42604 42667 41923 41379 41214 41295 41552 41811 42038 42337 42390 41933 41361 41153 41252 41422 41676 42169 42871 42604 42116 41703 41357 41157 41131 41176 41402 41529 41425 41311 41194 41335 41411 41213 41215 41481 41675 41326 41012 40964 41083 41339 41594 41606 41361 41050 40834 40820 40929 41063 41124 41388 41836 41675 40958 40426 40389 40670 40968 41218 41508 41831 41715 41439 41131 40745 40514 40480 40682 41263 41672 41384 41117 41080 41030 40897 40929 41079 41404 41434 41242 41092 41049 41174 41257 41141 41213 41186 40920 40779 40759 40973 41204 41408 41618 41761 41265 40734 40759 40725 41003 41178 41306 41595 42068 41912 41205 40810 40875 41101 41385 41666 41991 42264 42268 42074 41761 41542 41428 41478 41680 42051 42533 42584 42349 42207 42090 42017 42026 42168 42450 42685 42650 42465 42337 42444 42419 42235 42205 42418 42702 42570 42444 42469 42600 42710 42669 42307 42325 42461 42463 42360 42363 42372 42485 42637 42847 42812 42651 42494 42455 42580 42752 42957 43167 43525 43562 43200 42893 42713 42642 42690 42824 43020 43315 43515 43238 42826 42765 42809 42960 43185 43494 43758 43695 43517 43324 43027 42739 42693 42695 43025 43174 43201 43155 43183 43199 43048 42914 42963 43264 43485 43442 43361 43358 43402 43415 43260 43343 43629 43861 43783 43740 43827 43944 44110 44212 44188 44279 44279 44127 43987 43978 44046 44049 44064 44169 43980 43761 43615 43641 43771 43914 44097 44319 44485 44457 44211 43897 43677 43593 43573 43658 43826 43959 44149 44071 43759 43600 43640 43783 44008 44243 44352 44352 44319 44135 43815 43624 43565 43650 44060 44244 44287 44190 44000 43828 43769 43840 44001 44305 44778 45266 45292 45200 45090 44846 44546 44338 44403 44735 44926 44674 44429 44445 44485 44318 44146 44133 44235 44239 44091 43924 43919 43926 43927 43715 43634 43802 43970 43806 43660 43646 43765 43919 44004 43941 43795 43902 43826 43737 43644 43697 43816 43899 44037 44044 43957 43712 43614 43639 43767 43921 44127 44342 44352 44074 43839 43636 43594 43680 43806 43897 44143 44447 44443 44053 43787 43729 43779 43961 44155 44331 44442 44395 44265 44032 43757 43608 43583 43637 43760 44026 44224 44419 44272 44196 44228 44296 44418 44548 44669 44686 44678 44615 44486 44284 44155 44160 44240 44676 45035 45199 45159 45158 45151 45104 45181 45384 45698 45764 45727 45629 45561 45554 45431 45369 45411 45818 45939 45758 45659 45568 45599 45621 45531 45527 45530 45560 45516 45410 45303 45251 45269 45215 45122 45115 45201 45134 45128 45176 45306 45349 45435 45485 45337 45104 44961 44904 44846 44908 44966 45027 45229 45101 44827 44633 44558 44684 44762 44796 44632 44743 44671 44220 43836 43502 43382 43543 43806 43846 44026 44203 44217 44060 43988 43945 43906 43809 43892 43792 43653 43619 43513 43296 43227 43374 43383 43403 43562 43710 43886 44121 44025 43798 43530 43302 43176 43087 43128 43282 43523 43702 43525 43160 42891 43106 43236 43369 43452 43563 43592 43548 43242 42914 42648 42584 42693 42654 42697 42893 43132 43089 42932 43040 43152 43266 43361 43467 43620 43680 43774 43610 43284 43016 42883 42744 42812 42955 43140 43213 43300 43149 43068 43149 43246 43391 43469 43456 43643 44142 44537 44629 44696 44773 44834 44844 44938 44924 44724 44549 44368 44130 44041 44074 44177 44270 44368 44404 44419 44389 44233 44081 43983 44002 44249 44255 44187 44182 44232 44215 44018 43841 43788 43948 44142 44213 44239 44141 44048 43952 43788 43651 43732 43886 44010 44065 44174 44284 44391 44278 44099 44018 44067 44140 44147 44152 44181 44278 44384 44248 43992 43810 43870 43971 44068 44169 44254 44431 44465 44378 44365 44360 44449 44514 44519 44625 44692 44956 44887 44514 44189 44046 44083 44166 44349 44637 45053 45159 44935 44627 44312 44083 44030 44128 44512 44904 45002 44747 44309 44026 43956 44013 44244 44324 44173 43949 43826 43725 43430 43288 43507 43695 43840 43741 43684 43651 43648 43566 43304 43210 43410 43619 43714 43766 43875 43951 44042 43924 43740 43675 43582 43576 43571 43655 43772 43935 44110 44095 43889 43719 43632 43600 43528 43556 43616 43804 44042 43916 43586 43304 43228 43347 43518 43717 43945 44239 44303 44249 44208 44167 44202 44283 44347 44480 44954 45362 45004 44382 44137 44040 44101 44249 44407 44630 44936 45136 45081 44849 44593 44440 44376 44437 44686 44971 44915 44469 44032 43846 43781 43872 43992 44235 44414 44451 44396 44262 43975 43659 43505 43582 44083 44714 44632 44353 44027 43761 43524 43461 43560 43948 44038 43896 43738 43791 43689 43317 43119 43266 43564 43675 43262 42967 42988 43090 42942 42732 42696 42763 42703 42625 42710 42722 42814 42713 42428 42467 42584 42451 42325 42397 42575 42726 42964 42901 42618 42372 42259 42208 42354 42508 42489 42500 42692 42727 42684 42346 42179 42279 42479 42718 42959 43199 43008 42625 42412 42314 42357 42516 42677 42956 43377 43714 43065 42504 42376 42449 42604 42891 43141 43358 43635 43858 43907 43675 43536 43565 43933 44504 45313 45437 44919 44296 43932 43767 43789 43902 44085 44476 45026 45373 45209 44764 44440 44484 44942 45487 45867 45606 45221 44792 44409 44153 44075 44134 44308 44824 45289 45317 45254 45149 45118 45120 45134 45414 45295 44940 44750 44715 44643 44464 44371 44469 44803 44984 45099 45126 45062 44904 44559 44376 44467 44971 44974 44711 44603 44674 44748 44647 44447 44395 44578 44762 44860 44822 44754 44807 44743 44639 44648 44625 44362 44228 44218 44324 44463 44525 44348 44201 44084 44066 44101 44158 44183 44184 44215 44088 43993 44018 43806 43757 43765 43902 44034 44219 44268 44159 44368 44512 44661 44744 44790 44960 45111 45076 44939 44826 44271 43953 43917 44004 44087 44128 44237 43961 43699 43612 43649 43649 43661 43782 43798 43960 43994 43599 43234 43074 43162 43326 43471 43659 43944 43864 43739 43565 43557 43764 44183 44459 44586 44767 44708 44027 43352 43095 43123 43283 43456 43630 43745 43812 43533 43158 43000 42964 42928 42913 42966 43129 43180 43078 42683 42540 42621 42798 42907 43046 43285 43336 42940 42473 42234 42193 42146 42193 42470 42776 42925 42649 42280 42210 42307 42524 42641 42662 42746 42977 43201 43099 42994 42776 42712 42857 43014 43202 43415 43271 42955 42785 42796 42813 42885 43258 43411 43270 42954 42653 42482 42449 42622 42873 43094 43517 43607 43476 43318 43267 43291 43471 43676 43645 43969 43630 43808 43687 43365 43030 42841 42601 42081 40994 40698 40607 40716 40876 41078 41209 41326 41037 40973 41060 41184 41328 41438 41381 41199 41041 40853 40558 40488 40562 40828 41205 41492 41694 41799 41580 41564 41663 41732 41793 41731 41454 41291 41101 40754 40638 40645 40725 41065 41449 41776 41956 41771 41617 41620 41663 41703 41794 41854 41605 41380 41182 40691 40348 40299 40578 41044 41343 41492 41691 41628 41415 41338 41380 41416 41452 41411 41313 41128 40616 40198 39899 39781 39959 40306 40678 41075 41274 41040 41026 41077 41106 41095 41102 41051 40896 40245 39322 38887 38717 38735 38943 39212 39469 39685 39525 39151 39068 39122 39261 39400 39497 39498 39522 38844 38104 37893 37898 38031 38317 38623 38813 39013 38798 38563 38479 38560 38664 38725 38768 38746 38669 38167 37614 37451 37546 37790 38222 38587 38859 39047 38906 38512 38361 38346 38412 38528 38622 38755 38874 38982 38527 38329 38364 38460 38668 38912 39107 39192 38872 38548 38412 38391 38567 38817 39082 39336 39555 39909 39724 40000 40128 40298 40186 40184 40242 40275 40243 39934 39548 39324 39297 39449 39596 39776 39937 40081 40127 40024 40064 40235 40400 40581 40722 40782 40905 40844 40457 40268 40305 40418 40575 40722 40829 40953 41042 40812 40577 40521 40558 40678 40799 40959 41063 41158 41086 40919 40865 40918 41055 41214 41308 41416 41493 41416 41133 40972 40915 40860 40787 40654 40612 40657 40474 39938 39417 39051 38835 38698 38556 38416 38201 37950 37417 37057 36967 36943 36911 36879 36841 36823 36836 36545 36231 36019 35958 35971 35976 36035 36078 36095 36016 35739 35540 35457 35471 35537 35535 35489 35427 35348 35052 34770 34600 34547 34524 34541 34545 34599 34578 34309 34064 33910 33853 33904 33990 34037 34074 34100 33811 33480 33329 33337 33360 33373 33326 33265 33253 33056 32765 32602 32558 32603 32693 32879 33276 33641 33873 33806 33731 33926 34085 34400 34955 35507 35838 36426 36756 36835 36807 36895 37050 37076 37062 36955 36802 36554 36419 36457 36377 36223 35976 35658 35347 35062 34885 34466 34154 34091 34198 34293 34302 34208 34176 34041 33677 33133 32771 32514 32374 32358 32456 32665 32917 32990 33010 33085 33077 33091 32996 32924 33003 33193 33246 33020 32928 32939 32985 32985 32955 32875 32734 32665 32431 32214 32097 32157 32317 32593 32879 33082 33197 33121 32879 32771 32680 32637 32681 32722 32792 33018 33133 32905 32702 32549 32443 32434 32387 32361 32337 32325 32190 32119 32278 32510 32732 32922 33042 33026 33015 32936 32668 32640 32751 32795 32768 32848 32940 32949 32858 32666 32480 32388 32348 32324 32313 32286 32247 32311 32509 32524 32487 32538 32673 32837 32972 32967 32866 32912 32945 32876 32791 32820 32904 32915 32871 32777 32682 32641 32424 32277 32295 32366 32515 32711 32931 33092 33186 33155 32941 32896 32924 32917 32960 33139 33191 33201 33242 33229 33120 32972 32999 33015 32943 32856 32747 32725 32741 32613 32577 32716 32966 33153 33269 33273 33443 33703 33649 33632 33824 34096 34464 34817 35160 35382 35421 35770 36337 36704 37080 37456 37714 37996 38315 38591 38861 39089 39137 39158 39305 39538 39793 39978 40025 39989 39964 39906 39563 39258 39130 39134 39115 39004 38941 38864 38758 38623 38212 37768 37462 37281 37164 37002 36925 36899 36809 36593 36304 35986 36016 36176 36200 36149 36144 36206 36260 36150 35975 35742 35602 35600 35591 35475 35326 35213 35163 34841 34596 34473 34527 34696 34871 35073 35177 35192 35207 35119 35087 35020 34978 34908 34856 34808 34745 34704 34593 34281 34021 33885 33811 33787 33880 34008 34136 34221 34116 33983 33924 33902 33991 34155 34128 34223 34258 34231 33915 33675 33625 33501 33452 33498 33461 33461 33363 33230 32947 32851 32958 33098 33250 33423 33558 33648 33674 33638 33421 33402 33444 33443 33451 33301 33433 33384 33301 33320 33150 32926 32813 32733 32701 32600 32541 32654 32902 33126 33111 33078 33081 33031 33070 33058 33046 33163 33347 33340 33150 33112 33131 33135 33104 33039 32994 32917 32849 32708 32557 32536 32614 32806 33033 33167 33176 33231 33342 33264 33196 33167 33090 33185 33348 33410 33418 33470 33476 33410 33168 33010 32960 32897 32896 32869 32873 32860 32924 33042 33100 33183 33193 33293 33470 33492 33470 33435 33329 33330 33433 33425 33547 33671 34096 34463 34730 34854 34823 34625 34228 33935 33767 33751 33775 33819 33874 34005 34040 34046 33934 33815 33774 33744 33640 33725 33857 33886 33914 33971 33877 33777 33711 33663 33587 33537 33506 33503 33505 33403 33210 33220 33423 33655 33786 33845 33890 33855 33811 33686 33469 33390 33504 33636 33765 33870 33940 33967 33915 33768 33534 33325 33182 33100 33108 33176 33180 33186 33297 33396 33406 33472 33578 33706 33754 33745 33679 33617 33698 33732 33609 33552 33625 33700 33730 33703 33665 33595 33469 33259 33050 33036 33187 33299 33406 33491 33623 33765 33883 33902 33775 33702 33681 33646 33705 33802 33882 33926 33997 34011 33914 33822 33790 33733 33623 33541 33471 33441 33483 33388 33399 33518 33755 33968 34123 34279 34321 34223 34098 33782 33642 33731 33793 33812 33915 34049 34098 34061 33971 33715 33531 33458 33427 33430 33479 33514 33603 33790 33976 33996 33993 34039 34043 33979 33862 33722 33712 33903 33982 33876 33928 33929 34095 34180 34088 33999 33971 33911 33849 33647 33483 33475 33614 33874 34149 34352 34432 34476 34448 34297 34199 34079 34078 34157 34147 34177 34254 34344 34396 34256 34146 34026 33915 33823 33745 33765 33896 33969 33932 33853 33885 34002 34128 34256 34365 34387 34355 34237 34213 34275 34195 34095 34191 34211 34449 34479 34403 34325 34256 34074 33887 33802 33960 34126 34095 34066 34112 34253 34376 34391 34335 34343 34374 34304 34215 34316 34461 34462 34405 34279 34288 34303 34281 34313 34354 34265 34148 34098 34069 34092 34007 33980 34098 34229 34377 34488 34532 34558 34690 34781 34708 34885 34541 34416 34578 34846 35216 35597 35910 36118 36252 36092 35878 35640 35594 35575 35629 35800 36045 36297 36472 36382 36179 35948 35771 35525 35310 35287 35345 35392 35488 35539 35431 35434 35652 36085 36605 37132 37591 38042 38368 38567 38604 38631 38754 39106 39566 40074 40372 40349 40333 40511 40724 40821 40845 40796 40669 40766 41028 41344 41744 42327 42856 43095 43472 43588 43686 43540 43091 42695 42272 41900 41585 41009 40308 39609 39106 38747 38379 38106 37868 37701 37660 37593 37350 37153 36995 36877 36913 36846 36750 36572 36441 36392 36179 36128 36329 36746 37110 37357 37579 37832 38106 38348 38330 38113 38038 38073 38188 38343 38531 38732 38886 39079 39258 39158 39064 39145 39453 39766 40093 40376 40537 40634 40682 40598 40286 40084 40093 40192 40288 40388 40364 40273 40145 39940 39362 38822 38525 38347 38200 38065 37914 37801 37689 37570 37183 36751 36418 36164 35993 35867 35762 35664 35590 35554 35447 35106 34929 34852 34778 34710 34788 34772 34774 34841 34830 34602 34330 34191 34119 34100 34045 33985 33910 33845 33749 33548 33267 33121 33090 33161 33291 33416 33475 33527 33445 33352 33217 33112 33090 33030 32943 32866 32790 32774 32740 32678 32460 32223 32073 31984 31882 31795 31764 31818 31913 32012 32128 32086 32082 32132 32151 32107 32191 32258 32217 32194 32135 31978 31767 31633 31603 31605 31589 31525 31437 31390 31375 31293 31075 30993 31084 31239 31428 31619 31820 32030 32243 32405 32528 32346 32212 32111 32106 32042 31949 31839 31683 31610 31629 31637 31668 31848 31707 31380 31368 31447 31327 31258 31292 31503 31694 31904 32144 32433 32736 33015 33147 33035 32827 32810 32901 32749 32463 32185 32040 32099 32244 32299 32270 32121 31982 31822 31646 31576 31559 31458 31437 31527 31702 31903 32132 32362 32505 32466 32443 32464 32398 32403 32448 32477 32439 32273 32135 32110 32117 32174 32279 32385 32454 32346 32210 32210 32305 32313 32230 32028 31876 31951 32172 32399 32566 32547 32404 32378 32544 32724 32684 32501 32402 32381 32418 32457 32464 32454 32425 32371 32376 32297 32211 32196 32235 32304 32355 32436 32483 32514 32531 32553 32470 32405 32401 32433 32490 32526 32532 32534 32535 32544 32498 32371 32345 32395 32456 32514 32550 32576 32604 32621 32655 32535 32436 32424 32476 32553 32610 32638 32671 32668 32686 32688 32580 32484 32485 32547 32614 32654 32665 32693 32691 32718 32737 32613 32523 32519 32555 32619 32644 32692 32703 32732 32758 32724 32599 32564 32588 32684 32722 32753 32752 32769 32773 32796 32721 32600 32593 32645 32700 32755 32779 32794 32821 32863 32888 32818 32714 32696 32755 32809 32878 32892 32898 32922 32933 32962 32894 32810 32796 32844 32900 32945 32978 32982 33012 33028 33050 32954 32866 32859 32906 32958 33000 33015 33037 33085 33095 33105 32966 32849 32865 32920 32970 32983 32989 32994 32996 33022 33009 32867 32801 32818 32889 32947 32960 32955 32957 32960 32975 32985 32863 32791 32828 32903 32985 33034 33042 33047 33065 33099 33137 33031 32966 32996 33061 33129 33196 33225 33251 33289 33319 33339 33299 33210 33184 33224 33278 33325 33334 33346 33359 33361 33363 33324 33236 33219 33243 33315 33340 33364 33379 33386 33398 33416 33360 33257 33213 33259 33335 33361 33390 33397 33423 33463 33471 33414 33293 33259 33319 33397 33443 33467 33488 33498 33509 33554 33465 33352 33345 33401 33471 33519 33541 33551 33574 33592 33611 33545 33424 33381 33411 33422 33440 33430 33472 33546 33636 33778 33828 33832 33907 34109 34349 34648 34881 35095 35339 35541 35730 35846 35771 35663 35737 35840 35923 36019 36170 36451 36801 37133 37397 37497 37539 37642 37771 37839 37840 37827 37739 37623 37566 37507 37314 37125 37074 37086 37178 37257 37317 37364 37395 37445 37487 37355 37177 37159 37215 37318 37421 37500 37513 37516 37499 37463 37301 37006 36835 36777 36764 36759 36739 36692 36657 36613 36602 36468 36356 36466 36644 36744 36789 36681 36516 36419 36330 36272 36157 35880 35790 35801 35846 35901 35936 35987 36035 36072 36109 36072 35829 35689 35723 35813 35896 35975 35992 36022 36081 36118 36152 35949 35770 35694 35711 35722 35708 35676 35651 35635 35635 35651 35474 35342 35400 35540 35681 35697 35630 35555 35495 35499 35497 35287 35057 34963 34968 34984 34996 35002 35016 35022 35041 35041 34821 34647 34759 35044 35402 35678 35886 36121 36278 36501 36644 36456 36213 36163 36265 36390 36512 36702 36946 37348 37647 37962 38144 37998 37919 38060 38382 38861 39430 40037 40656 41117 41448 41515 41226 40813 40489 40265 40073 39899 39766 39668 39579 39496 39367 38979 38616 38360 38140 37905 37702 37525 37396 37345 37372 37405 37120 36934 36890 36857 36816 36703 36614 36491 36314 36137 35890 35402 35020 34782 34687 34559 34444 34290 34104 33907 33737 33583 33267 33019 32901 32797 32719 32619 32567 32592 32570 32525 32473 32290 32014 31894 31858 31917 31926 31843 31717 31642 31596 31559 31470 31198 31040 31019 31069 31111 31096 31038 31016 31010 31085 31095 30904 30759 30738 30800 30873 30901 30875 30856 30841 30808 30799 30643 30444 30375 30400 30438 30452 30427 30404 30410 30444 30490 30511 30353 30278 30274 30330 30356 30341 30338 30330 30331 30381 30422 30331 30236 30236 30325 30409 30467 30480 30499 30516 30535 30560 30494 30338 30284 30266 30302 30327 30357 30376 30397 30449 30483 30481 30338 30264 30299 30364 30444 30466 30447 30436 30471 30527 30543 30429 30357 30396 30485 30573 30620 30641 30635 30639 30647 30651 30501 30396 30408 30478 30558 30596 30613 30603 30629 30660 30676 30610 30481 30442 30495 30577 30631 30656 30691 30716 30743 30761 30757 30636 30551 30565 30649 30728 30762 30778 30771 30790 30804 30812 30717 30603 30591 30635 30698 30719 30743 30747 30742 30772 30803 30750 30630 30608 30692 30760 30802 30845 30847 30863 30878 30918 30933 30765 30703 30747 30805 30832 30831 30908 31056 31255 31509 31862 32169 32385 32666 33059 33524 34049 34551 34986 35399 35803 36171 36518 36699 36751 36788 36852 36839 36710 36582 36533 36523 36498 36527 36541 36299 36196 36261 36392 36606 36839 37075 37202 37281 37380 37458 37307 37202 37164 37072 36970 36861 36646 36445 36433 36491 36464 36193 35843 35603 35476 35387 35245 35099 34960 34856 34760 34731 34642 34350 34188 34132 34098 34034 33935 33835 33788 33738 33702 33685 33510 33263 33155 33133 33136 33110 33030 32985 32940 32919 32889 32847 32646 32466 32365 32335 32312 32236 32143 32077 32024 31989 31960 31932 31765 31682 31719 31759 31774 31748 31728 31728 31714 31737 31773 31704 31592 31595 31701 31843 31941 32005 32055 32073 32101 32081 32021 31759 31604 31590 31672 31747 31833 31902 31956 31980 31947 31908 31707 31455 31403 31516 31702 31889 32190 32723 33343 34102 34579 34920 35184 35292 35405 35527 35682 35761 35857 35922 35978 36063 36157 36231 36176 36082 35985 35840 35646 35406 35234 35115 34981 34882 34753 34583 34304 34085 33941 33863 33796 33691 33576 33465 33353 33267 33196 33070 32833 32667 32646 32664 32664 32616 32553 32501 32479 32416 32263 32133 32042 32017 32014 31996 31996 31997 32003 31990 31960 32018 32127 31998 31824 31799 31891 31951 31756 31679 31755 31849 31849 31800 31758 31650 31519 31492 31542 31618 31648 31617 31600 31655 31662 31720 31746 31709 31605 31576 31645 31721 31741 31767 31778 31813 31815 31861 31873 31817 31707 31688 31741 31821 31891 31927 31931 31956 31974 32036 32087 32040 31972 31990 32057 32110 32119 32125 32131 32119 32158 32194 32241 32193 32082 32030 32078 32137 32183 32194 32203 32225 32256 32270 32297 32218 32117 32089 32118 32157 32180 32209 32212 32210 32205 32214 32218 32111 31994 31971 32026 32092 32129 32144 32143 32156 32154 32174 32139 32024 31941 31961 32024 32079 32091 32111 32123 32133 32144 32159 32112 31994 31966 32015 32080 32107 32118 32139 32161 32194 32233 32257 32166 32043 32022 32102 32173 32219 32213 32255 32263 32277 32301 32318 32224 32100 32105 32177 32238 32263 32235 32218 32222 32252 32306 32336 32312 32276 32352 32510 32704 32926 33175 33459 33787 34125 34482 34846 35165 35269 35381 35689 36117 36606 37001 37356 37699 38007 38368 38834 39303 39719 40071 40589 41402 42081 42545 42975 43328 43680 43941 44094 44249 44391 44436 44556 44710 44854 44989 45079 45155 45184 45124 45087 45014 44898 44580 44257 43983 43778 43562 43304 43045 42800 42558 42345 42181 42065 41901 41785 41754 41836 42014 42228 42319 42392 42392 42352 42363 42255 41970 41723 41557 41475 41387 41245 41143 41091 41002 40871 40736 40421 40033 39729 39530 39485 39454 39508 39640 39758 39931 40068 40271 40274 40127 39942 39816 39772 39805 39812 39811 39804 39797 39829 39791 39432 39086 38888 38787 38766 38775 38791 38811 38839 38924 39007 39070 38888 38697 38617 38137 38214 38198 38072 37945 37887 37874 37850 37779 37364 36805 36451 36282 36255 36202 36218 36284 36267 36405 36570 36770 36926 36527 36332 36386 36564 36710 36908 37139 37347 37443 37354 37155 36917 36479 36032 35576 35238 34788 34446 34241 34069 33951 33871 33732 33490 32952 32521 32126 31859 31629 31494 31473 31491 31510 31532 31554 31653 31604 31514 31424 31353 31251 31151 31174 31369 31468 31490 31595 31757 31932 31874 31871 31765 31752 31629 31502 31539 31701 31603 31420 31380 31400 31271 31114 31109 31228 31381 31510 31576 31572 31503 31490 31410 31371 31328 31153 31062 31000 30988 31016 31053 31075 31066 31143 31555 31697 31638 31644 31643 31689 31768 31848 31875 31940 31936 32001 31990 31866 31664 31628 31594 31535 31504 31532 31535 31591 31726 31963 32233 32568 32881 33089 33160 32913 32603 32567 32519 32473 32421 32351 32199 32101 32079 32216 32373 32356 32245 32021 32283 32306 32486 32565 32602 32596 32615 32598 32579 32457 32235 32065 31966 31852 31850 31864 31963 32064 32139 32010 31944 31955 31922 31910 31982 32082 32147 32201 32236 32269 32256 32142 32038 31942 31700 31625 31769 32013 32277 32577 32935 33464 34022 34461 34846 34980 34923 34871 34756 34744 34861 35010 35381 35610 36250 36784 37651 38699 39183 39434 39628 39866 40121 40457 40700 40786 40805 40781 40772 40752 40733 40559 40389 40274 40228 40251 40267 40283 40310 40330 40384 40471 40502 40411 40320 40239 40227 40219 40214 40167 40137 40101 40049 39977 39801 39582 39460 39378 39350 39280 39208 39171 39150 39111 39010 38929 38835 38709 38587 38540 38584 38627 38665 38711 38800 38937 39024 39085 39045 38865 38770 38887 39084 39237 39412 39417 39400 39540 39693 39742 39718 39663 39670 39696 39789 39876 39919 40038 40152 40223 40310 40374 40205 39970 39803 39761 39779 39836 39847 39852 39846 39911 39971 40031 39884 39519 39251 39057 39032 39041 39003 38971 38923 38834 38756 38728 38561 38240 38032 38000 38040 38076 38034 38012 38019 38048 38059 38088 37944 37579 37375 37319 37376 37448 37497 37531 37612 37686 37816 37927 37750 37325 37098 36979 36911 36876 36842 36793 36714 36716 36716 36785 36777 36516 36301 36188 36137 36142 36217 36136 36082 36073 36075 36097 36060 35818 35586 35483 35474 35481 35433 35367 35332 35290 35212 35141 35151 35112 35047 35075 35103 35036 34942 34839 34740 34657 34591 34517 34393 34083 33798 33638 33482 33320 33148 32964 32913 32953 32943 32798 32530 32081 31680 31577 31630 31866 32090 32257 32390 32517 32589 32576 32497 32251 31938 31748 31685 31743 31912 32130 32359 32597 32617 32533 32537 32445 32343 32333 32362 32443 32509 32563 32626 32650 32573 32410 32296 32105 32037 32057 32089 32151 32128 31997 31929 31897 31912 31975 32032 31973 31881 31851 31904 31994 32035 32039 31905 31829 31740 31663 31649 31672 31649 31740 31763 31730 31672 31686 31796 31940 32032 32098 32126 32071 31925 31806 31774 34332 34415 34323 34229 34225 34269 34322 34346 34400 34468 34568 34703 34814 34854 34826 34639 34540 34464 34463 34535 34464 34396 34370 34293 34241 34212 34194 34062 33860 33751 33629 33522 33392 33213 33168 33184 33259 33472 33779 34091 34346 34595 34820 35092 35220 35105 34892 34790 34812 34774 34663 34412 34088 33923 33829 33839 33838 33807 33720 33549 33390 33230 33130 33072 32887 32774 32819 32998 33256 33502 33759 33994 34213 34351 34433 34339 34135 33875 33721 33611 33488 33362 33233 33167 33216 33279 33294 33234 33115 32798 32485 32281 32177 32165 32204 32308 32468 32703 32926 33179 33427 33479 33458 33479 33414 33302 33204 33153 33082 32980 32841 32728 32660 32578 32458 32408 32409 32397 32346 32206 32035 31908 31847 31894 32034 32192 32217 32286 32468 32683 32889 33006 33043 32941 32791 32759 32770 32729 32512 32280 32125 32100 32185 32276 32336 32320 32214 32149 32109 32080 32031 31969 32057 32271 32506 32679 32731 32688 32677 32687 32639 32604 32657 32604 32475 32262 32179 32179 32263 32316 32370 32332 32303 32266 32181 32083 31940 31881 32066 32322 32584 32802 32988 33122 33215 33273 33288 33246 33170 33135 33044 32902 32778 32676 32614 32616 32727 32834 32809 32763 32733 32642 32546 32478 32400 32340 32314 32337 32439 32601 32773 32934 33045 33067 33139 33312 33521 33684 33743 33602 33531 33429 33427 33351 33226 32927 32660 32624 32672 32687 32695 32653 32563 32510 32469 32467 32458 32379 32324 32407 32562 32732 32863 32942 32964 32968 32921 32868 32770 32592 32417 32379 32428 32500 32569 32573 32588 32556 32550 32568 32576 32492 32360 32334 32407 32487 32547 32575 32600 32615 32628 32629 32635 32516 32353 32342 32409 32498 32555 32568 32579 32552 32585 32616 32652 32589 32497 32447 32450 32475 32456 32490 32526 32610 32663 32692 32734 32677 32572 32576 32744 32860 32827 32765 32710 32652 32594 32585 32578 32535 32445 32438 32507 32593 32599 32568 32509 32466 32424 32430 32531 32566 32550 32548 32555 32606 32674 32677 32683 32708 32779 32843 32952 32969 33048 33286 33659 34085 34531 34965 35394 35760 36042 36302 36080 36171 36432 36686 37033 37325 37540 37810 38044 38223 38399 38557 38766 38873 38909 38966 39006 39083 39170 39204 39251 39299 39311 39285 39133 38643 38083 37843 37817 37828 37769 37665 37585 37492 37411 37320 37191 36789 36355 36007 35704 35530 35418 35269 35136 35045 35053 35105 35125 34795 34530 34380 34385 34436 34426 34423 34470 34706 34983 35291 35510 35402 35177 35038 35040 35105 35159 35169 35173 35200 35261 35286 35286 35190 34854 34656 34592 34627 34679 34728 34778 34827 35040 35248 35425 35588 35594 35519 35596 35773 35949 36077 36150 36210 36255 36323 36415 36479 36456 36196 35980 35888 35876 35890 35879 35832 35870 35912 35999 36119 36180 35906 35663 35480 35440 35494 35625 35763 35877 35946 36014 36045 36060 35869 35636 35601 35623 35650 35675 35709 35716 35699 35699 35669 35671 35618 35456 35408 35446 35539 35631 35705 35756 35863 36026 36225 36429 36565 36504 36528 36687 36811 36952 37031 37096 37181 37302 37403 37510 37661 37618 37458 37401 37446 37538 37595 37715 37848 37909 38009 38118 38136 38025 37917 37913 37985 38109 38174 38255 38297 38378 38458 38549 38506 38351 38243 38240 38339 38420 38482 38548 38591 38672 38740 38830 38778 38614 38516 38558 38657 38759 38804 38863 38931 39010 39076 39160 39073 38908 38852 38880 38951 38995 39034 39069 39107 39144 39192 39197 38984 38727 38595 38538 38527 38514 38514 38506 38537 38563 38631 38655 38511 38401 38382 38459 38543 38633 38693 38781 38853 38927 38995 38973 38781 38666 38675 38747 38817 38862 38887 38935 38996 39055 39121 39088 38888 38777 38766 38833 38902 38931 38969 39020 39066 39122 39155 39173 38975 38824 38809 38851 38935 39004 39023 39080 39160 39220 39241 39263 39077 38917 38870 38945 39036 39092 39133 39174 39223 39271 39351 39407 39321 39170 39137 39114 39107 39113 39139 39145 39179 39161 39130 39108 38974 38695 38510 38451 38502 38578 38696 38786 38876 38995 39136 39235 39194 38983 38891 38872 38957 39081 39158 39229 39273 39312 39383 39470 39376 39134 38952 38896 38942 39001 39027 38994 38974 38975 39022 39052 38973 38671 38436 38332 38373 38440 38509 38559 38555 38565 38578 38530 38476 38253 38075 38045 38101 38150 38175 38171 38180 38207 38223 38240 38200 37932 37667 37514 37514 37552 37574 37624 37648 37680 37694 37741 37778 37592 37398 37286 37292 37386 37476 37537 37566 37626 37698 37732 37754 37695 37433 37248 37160 37144 37162 37163 37166 37207 37221 37278 37332 37396 37310 37144 37048 37057 37154 37239 37284 37345 37407 37452 37507 37576 37585 37435 37283 37260 37315 37419 37510 37604 37681 37765 37828 37906 37963 37860 37696 37629 37649 37746 37804 37854 37918 38000 38132 38241 38349 38439 38330 38226 38190 38272 38383 38473 38552 38637 38741 38851 38980 39072 39121 38957 38880 38854 38940 39045 39152 39231 39327 39419 39530 39608 39701 39598 39446 39394 39450 39529 39590 39645 39680 39734 39790 39848 39905 39848 39636 39493 39462 39521 39583 39632 39669 39730 39773 39825 39842 39715 39475 39341 39298 39319 39356 39390 39381 39406 39452 39475 39534 39516 39279 39078 38925 38841 38856 38924 38977 39041 39072 39091 39143 39126 38925 38728 38644 38652 38739 38794 38829 38864 38855 38853 38904 38913 38699 38614 38589 38656 38774 38851 38921 38994 39090 39208 39331 39333 39041 38770 38614 38579 38660 38685 38679 38608 38529 38420 38368 38200 37868 37646 37566 37568 37639 37645 37633 37656 37696 37756 37849 37933 37754 37638 37656 37754 37884 37981 38055 38125 38217 38311 38417 38547 38447 38303 38205 38224 38320 38457 38576 38658 38732 38791 38862 38935 38913 38653 38499 38448 38482 38550 38637 38675 38720 38771 38857 38917 38986 38837 38637 38554 38574 38652 38743 38781 38839 38864 38888 38917 38938 38819 38558 38415 38348 38375 38447 38489 38530 38568 38576 38608 38646 38658 38501 38386 38340 38452 38570 38721 38838 38915 38998 39060 39123 39176 39048 38877 38800 38828 38947 39038 39085 39110 39158 39210 39281 39349 39301 39071 38948 38906 38988 39139 39267 39376 39452 39519 39598 39686 39753 39619 39496 39474 39488 39574 39678 39768 39851 39945 40003 40064 40128 39993 39776 39617 39606 39638 39692 39746 39766 39812 39879 39948 39989 39975 39811 39648 39587 39588 39620 39682 39738 39777 39811 39836 39868 39844 39672 39571 39567 39640 39729 39795 39846 39880 39939 40016 40092 40093 39882 39727 39651 39677 39715 39775 39822 39900 39931 40000 40055 40078 39898 39713 39597 39543 39610 39672 39740 39804 39875 39924 40018 40054 39851 39644 39517 39503 39516 39511 39562 39547 39573 39614 39650 39694 39549 39368 39246 39215 39271 39361 39398 39473 39518 39565 39624 39691 39560 39390 39298 39315 39383 39463 39453 39504 39596 39664 39760 39818 39708 39541 39405 39348 39401 39488 39525 39581 39630 39660 39709 39743 39649 39431 39260 39162 39233 39328 39455 39557 39655 39720 39785 39837 39797 39617 39508 39498 39556 39672 39762 39860 39900 39940 39928 39954 39965 39827 39700 39609 39567 39603 39673 39720 39765 39811 39878 39975 40066 39975 39873 39808 39763 39792 39843 39905 39961 40044 40125 40164 40163 39985 39799 39723 39723 39804 39889 39944 40009 40048 40038 39994 40025 39951 39793 39690 39642 39694 39781 39850 39899 39937 39997 40052 40129 40068 39892 39786 39676 39652 39676 39736 39803 39898 39981 40059 40126 40119 39905 39745 39696 39709 39785 39853 39860 39871 39887 39894 39891 39892 39753 39608 39585 39550 39527 39527 39488 39481 39519 39568 39625 39660 39514 39348 39264 39295 39378 39460 39471 39414 39381 39420 39489 39591 39510 39366 39295 39291 39349 39429 39470 39542 39657 39757 39876 39994 39871 39615 39551 39630 39807 39959 40055 40104 40202 40296 40411 40524 40505 40352 40260 40226 40275 40377 40472 40520 40533 40553 40578 40647 40579 40372 40160 40095 40165 40124 40019 39915 39841 39801 39774 39698 39593 39327 39109 39117 39110 39208 39303 39363 39399 39434 39465 39553 39545 39360 39217 39191 39219 39280 39339 39438 39595 39743 39874 40012 40045 39888 39787 39808 39899 40000 40079 40160 40218 40272 40332 40397 40388 40175 39984 39906 39897 39903 39925 39887 39857 39823 39723 39752 39870 39758 39637 39592 39638 39677 39884 40082 40274 40384 40397 40380 40371 40285 40112 40080 40083 40143 40245 40226 40233 40232 40288 40335 40442 40489 40427 40351 40336 40170 39773 39407 39096 39097 39370 39725 40284 40979 41237 41449 41622 41677 41495 41184 40677 40235 39780 39468 39142 39064 39081 38885 38891 39074 39231 39323 39351 39331 39288 39295 39354 39483 39443 39284 39158 39107 39219 39484 39691 39851 39851 39834 39860 40023 40054 39863 39702 39726 39812 39949 40037 39953 39812 39801 39776 39642 39465 39217 39071 39156 39184 39245 39295 39280 39327 39317 39449 39486 39465 39548 39699 39844 39926 39898 39793 39725 39707 39812 39938 40005 40254 40552 40764 40970 41112 41414 41472 41545 41658 41986 42406 42727 42985 43094 43129 43262 43330 43409 43450 43488 43517 43396 42902 42285 41839 41522 41304 41046 40793 40591 40508 40401 40246 39973 39755 39734 39908 40089 40244 40399 40477 40516 40641 40770 40894 40962 41049 41099 41209 41088 40983 41000 41130 41308 41490 41548 41344 41043 40824 40735 40701 40735 40789 40759 40675 40507 40318 39909 39501 39186 39106 39247 39447 39403 39397 39350 39268 39212 38980 38766 38745 38692 38810 38911 38915 38907 38884 38931 38965 38774 38559 38705 38834 38935 39091 39231 39293 39295 39251 39118 38864 38393 37972 37683 37557 37662 37999 38317 38522 38664 38793 38801 38557 38388 38351 38443 38593 38675 38737 38734 38707 38696 38670 38628 38516 38330 38166 38251 38439 38589 38502 38380 38365 38230 38247 38027 37804 37880 37972 37739 37435 37092 36720 36123 35279 34506 34945 34823 35028 35078 35163 34802 34253 33682 33134 32778 32346 31917 31644 31591 31660 31444 31080 30714 30406 30267 30352 30467 30414 30252 30334 30416 30298 30291 30479 30764 31105 31419 31518 31475 31192 30781 30776 30646 30530 30391 30250 30126 30156 30299 30443 30225 30081 29984 30032 30142 30221 30351 30311 30378 30353 30298 30244 30098 29892 29935 30032 30102 30164 30296 30416 30615 30628 30590 30493 30304 30183 30108 30338 30675 30851 30687 30613 30542 30531 30681 30887 31168 31574 32191 32806 33557 34200 34781 35287 35768 36196 36616 37090 37495 37653 37729 37776 37787 37742 37658 37333 36961 36613 36383 36210 35911 35545 35168 34874 34815 34878 34997 35342 35625 35547 35396 35215 35006 34809 34719 34725 34786 34696 34535 34410 34614 34625 34608 34490 34229 33897 33944 33900 33829 33855 34109 34936 35553 36142 36937 37574 37995 37916 37874 38411 39070 39566 39947 40085 39896 39569 39287 38863 38233 37591 37221 37087 37102 37186 37409 37788 38148 38529 38799 38995 38972 38801 38651 38511 38471 38629 38816 39020 39103 39165 39320 39342 39137 38953 38830 38718 38596 38479 38438 38379 38298 38217 38079 37685 37292 37046 36896 36812 36752 36668 36596 36506 36443 36403 36219 35927 35731 35652 35586 35576 35553 35510 35469 35474 35497 35491 35327 35192 35158 35187 35234 35197 35126 35017 34954 34921 34902 34870 34738 34753 34904 35257 35605 35856 35973 35928 35938 35921 35878 35734 35497 35271 35153 35102 35016 34956 34945 35067 35218 35586 35933 36060 36177 36341 36683 36951 37131 37222 37229 37237 37287 37384 37354 37231 37206 37298 37431 37567 37685 37783 37876 37939 37997 38012 37911 37821 37824 37904 38001 38101 38196 38330 38440 38529 38558 38244 37883 37710 37698 37826 37920 37969 38011 38056 38042 38142 38248 38274 38376 38485 38571 38586 38490 38338 38229 38310 38512 38646 38710 38510 38389 38410 38535 38723 38861 38867 38902 38853 38801 38597 37904 37157 37083 37331 37524 37719 37896 37974 38042 38206 38781 39069 39109 39206 39421 39759 40016 40223 40468 40617 40817 41038 41273 41292 41162 40949 40841 40884 40933 40972 41012 41108 41221 41209 41089 40813 40431 40164 39959 39891 39804 39755 39593 39396 39144 38879 38616 38278 37828 37511 37417 37375 37304 37278 37316 37371 37398 37321 37212 36993 36551 36109 35775 35520 35311 35058 34850 34662 34513 34376 34304 34185 33927 33656 33494 33422 33358 33292 33241 33169 33115 33090 33097 33092 32950 32725 32587 32506 32479 32457 32537 32633 32637 32590 32612 32691 32741 32617 32484 32396 32304 32284 32271 32081 32111 32299 32446 32427 32388 32376 32319 32355 32474 32597 32666 32666 32632 32539 32472 32482 32452 32405 32348 32340 32450 32576 32646 32640 32650 32644 32577 32506 32494 32663 32762 32878 32998 33158 33341 33466 33525 33627 33765 34004 34250 34393 34182 33982 33848 33801 33792 33693 33675 33769 33829 33960 34155 34328 34414 34436 34373 34282 34468 34821 35013 35285 35465 35698 35932 36160 36358 36375 36246 36109 36045 35952 36080 36255 36181 36119 36153 36232 36289 36207 36060 35983 35911 35812 35711 35591 35441 35456 35475 35425 35401 35290 35179 35205 35288 35283 35177 35160 35059 34994 35045 35071 35036 34999 35059 35111 35153 35140 35089 34976 34834 34744 34690 34576 34414 34145 33962 33942 34039 34163 34297 34433 34503 34535 34509 34445 34287 34026 33789 33699 33866 34165 34528 34767 34791 34648 34509 34409 34282 34077 33908 33867 33888 33906 33948 33935 33894 33888 33906 33950 33957 33916 33797 33782 33788 33759 33650 33490 33482 33534 33595 33598 33551 33504 33406 33440 33580 33706 33831 33957 33947 33766 33623 33540 33652 33905 34049 33999 33837 33734 33697 33747 33817 33923 33910 33831 33770 33710 33606 33416 33357 33387 33461 33575 33692 33833 33954 34042 34134 34200 34242 34266 34216 34086 34006 34078 34175 34299 34381 34463 34501 34534 34556 34571 34626 34687 34774 34938 35047 35146 35217 35264 35310 35246 35245 35371 35443 35532 35546 35482 35483 35503 35523 35529 35542 35544 35543 35576 35560 35547 35429 35286 35214 35224 35273 35334 35296 35281 35280 35324 35400 35460 35349 35099 34981 35003 35106 35187 35207 35197 35140 35160 35214 35326 35414 35349 35248 35189 35164 35203 35228 35210 35229 35283 35316 35354 35364 35268 35110 35045 35028 35075 35088 35067 35028 34971 34936 34849 34792 34595 34413 34287 34259 34241 34199 34164 34143 34147 34205 34288 34400 34385 34279 34207 34189 34205 34274 34330 34341 34336 34335 34378 34428 34415 34219 34063 34008 34044 34124 34133 34112 34066 34034 34035 34048 34060 33969 33917 33970 34095 34247 34389 34500 34606 34681 34780 34906 35038 35074 35007 35031 35089 35175 35247 35335 35367 35435 35492 35571 35696 35757 35718 35719 35803 35950 36102 36276 36429 36594 36778 36966 37191 37362 37427 37438 37503 37604 37744 37850 37966 38127 38367 38602 38793 38955 39076 39022 39017 39092 39173 39244 39348 39443 39537 39622 39687 39744 39789 39748 39712 39702 39737 39814 39883 39994 40067 40116 40187 40275 40357 40349 40306 40304 40339 40397 40440 40482 40518 40563 40639 40697 40698 40734 40651 40652 40662 40680 40742 40744 40740 40755 40779 40818 40854 40888 40771 40634 40591 40602 40657 40684 40694 40700 40729 40736 40783 40771 40614 40413 40292 40244 40251 40274 40260 40259 40259 40286 40307 40335 40204 39952 39786 39734 39729 39774 39806 39845 39883 39914 39964 39993 40003 39785 39501 39356 39303 39292 39304 39268 39264 39285 39303 39308 39318 39208 38919 38783 38744 38782 38842 38844 38834 38843 38850 38854 38882 38899 38732 38507 38430 38440 38498 38524 38550 38546 38598 38647 38726 38770 38809 38638 38440 38387 38440 38530 38668 38767 38857 38941 39013 39114 39216 39322 39281 39153 39140 39205 39333 39459 39597 39733 39826 39903 39953 40000 40053 40054 39931 39889 39869 39908 39958 40001 40026 40076 40135 40196 40246 40295 40159 40023 39932 39943 39992 40054 40097 40162 40226 40306 40366 40427 40419 40265 40154 40122 40153 40227 40294 40315 40317 40366 40354 40362 40355 40223 40085 40004 39985 40010 40070 40139 40198 40271 40329 40427 40543 40525 40327 40156 40082 40106 40166 40216 40227 40216 40213 40187 40094 39930 39611 39347 39220 39224 39212 39186 39136 39116 39153 39182 39211 39191 38987 38903 38856 38855 38875 38880 38922 39014 39111 39207 39338 39458 39431 39342 39325 39348 39371 39339 39210 39146 39111 39143 39226 39361 39439 39279 39063 38908 38903 38971 38909 38751 38613 38430 38334 38282 38131 37833 37613 37464 37370 37256 37112 36945 36754 36561 36386 36169 35893 35453 35106 34906 34792 34681 34612 34594 34565 34534 34512 34480 34388 34088 33858 33736 33648 33606 33527 33458 33416 33417 33386 33357 33306 33143 33044 32997 32959 32926 32882 32838 32850 32890 32918 32953 32968 32834 32656 32553 32502 32472 32467 32449 32415 32401 32347 32287 32308 32366 32321 32373 32525 32751 33068 33421 33804 34270 34716 34977 35336 35918 36391 36783 37168 37550 37888 38194 38453 38655 38824 38960 39101 39207 39131 38881 38520 38201 37931 37634 37365 37106 36801 36569 36382 36263 36091 35832 35614 35411 35243 35087 35075 35228 35533 35793 36151 36526 36897 37206 37519 37864 38183 38553 38827 39040 39198 39323 39498 39635 39654 39518 39184 38847 38595 38345 38165 38020 37849 37687 37572 37507 37453 37333 37142 36962 36836 36764 36690 36604 36506 36449 36397 36358 36350 36270 36087 35946 35893 35901 35887 35861 35806 35734 35674 35571 35546 35493 35303 35115 34965 34880 34823 34741 34657 34594 34526 34503 34470 34455 34401 34201 34119 34101 34139 34128 34092 34015 33912 33828 33759 33758 33803 33784 33644 33575 33562 33587 33606 33616 33599 33586 33545 33521 33492 33514 33552 33408 33232 33171 33181 33197 33205 33183 33178 33172 33174 33184 33212 33199 33082 32990 32954 33001 33033 33076 33073 33057 33042 33031 33010 32991 33051 33078 33080 32978 32921 32943 33023 33299 33681 34128 34514 34879 35163 35383 35398 35267 35260 35292 35308 35339 35468 35668 35855 35975 36088 36292 36420 36537 36697 36994 37316 37636 37944 38166 38355 38506 38658 38706 38691 38560 38230 37873 37741 37764 37901 38030 38110 38210 38341 38447 38500 38508 38344 38170 38021 37901 37820 37772 37710 37705 37664 37693 37750 37795 37737 37645 37585 37607 37669 37765 37840 37921 37990 38082 38146 38273 38314 38262 38253 38318 38419 38523 38605 38651 38683 38714 38724 38758 38794 38645 38502 38414 38334 38197 38016 37762 37479 37300 37157 37075 37001 36752 36380 36092 35924 35778 35643 35553 35412 35286 35186 35086 35040 34937 34632 34406 34291 34264 34274 34315 34292 34221 34179 34103 34027 33972 33915 33676 33447 33353 33304 33310 33299 33258 33240 33232 33219 33192 33199 33163 32935 32744 32683 32668 32698 32684 32667 32611 32631 32628 32641 32632 32624 32580 32381 32253 32260 32308 32360 32360 32378 32385 32423 32434 32482 32504 32553 32532 32367 32298 32291 32322 32379 32382 32377 32391 32390 32442 32454 32488 32523 32475 32361 32288 32284 32352 32405 32451 32482 32483 32514 32535 32573 32584 32612 32532 32436 32407 32427 32469 32537 32552 32576 32582 32606 32617 32673 32686 32669 32579 32524 32547 32591 32640 32680 32689 32703 32736 32753 32776 32803 32816 32723 32650 32640 32668 32719 32742 32737 32720 32735 32767 32790 32800 32813 32745 32631 32570 32621 32654 32702 32701 32690 32698 32705 32712 32712 32755 32764 32694 32599 32564 32619 32685 32732 32739 32744 32746 32785 32821 32842 32848 32839 32779 32737 32726 32787 32808 32831 32861 32888 32909 32907 32912 32900 32905 32901 32888 32904 32948 32972 33002 32994 33018 33038 33071 33122 33155 33217 33213 33144 33126 33193 33267 33314 33269 33270 33288 33255 33277 33294 33302 33274 33205 33163 33158 33199 33264 33310 33333 33327 33317 33320 33318 33323 33267 33191 33139 33132 33137 33117 33118 33122 33164 33202 33229 33238 33204 33050 32956 32950 32979 33022 33019 32984 32969 33021 33084 33136 33132 33040 32923 32875 32904 32869 32849 32921 33025 33096 33181 33172 33105 33023 32909 32884 32932 32976 33043 33072 33057 33036 33051 33087 33101 33060 32974 32963 33052 33160 33253 33322 33343 33355 33387 33412 33425 33438 33329 33254 33185 33176 33199 33252 33303 33331 33327 33282 33235 33213 33142 33133 33187 33252 33309 33320 33311 33266 33220 33191 33182 33211 33119 33052 33059 33111 33187 33241 33257 33254 33241 33261 33259 33282 33224 33065 32920 32805 32742 32855 33007 33113 33204 33171 33091 33080 33137 33194 33230 33315 33450 33515 33518 33470 33527 33552 33443 33324 33322 33330 33277 33199 33159 33224 33253 33277 33346 33398 33361 33309 33345 33414 33394 33375 33364 33370 33311 33307 33395 33468 33497 33487 33499 33490 33484 33488 33468 33389 33299 33291 33348 33388 33445 33466 33463 33477 33505 33534 33554 33574 33490 33425 33409 33428 33454 33482 33466 33483 33508 33529 33561 33575 33558 33490 33421 33428 33482 33520 33558 33572 33584 33591 33610 33628 33657 33678 33671 33590 33562 33599 33639 33691 33709 33731 33738 33764 33768 33773 33819 33822 33749 33666 33653 33743 33839 33927 33977 34021 34057 34126 34195 34253 34344 34393 34511 34834 35473 36500 37481 38230 38840 39233 39440 39459 39387 39207 38878 38304 37713 37212 36828 36500 36267 36041 35878 35730 35616 35515 35351 35031 34655 34454 34347 34281 34247 34143 34016 33959 33962 34142 34353 34581 34825 35001 35152 35258 35379 35529 35663 35715 35924 36104 36213 36380 36455 36428 36384 36341 36374 36501 36558 36616 36715 36878 37051 37192 37317 37323 37247 37234 37275 37335 37408 37400 37345 37271 37218 37168 37100 37133 37091 36920 36806 36738 36723 36679 36647 36613 36571 36563 36605 36707 36805 36800 36762 36796 36863 37023 37218 37414 37613 37769 37927 38074 38181 38247 38196 38069 38030 38093 38170 38221 38242 38258 38250 38251 38287 38377 38336 38242 38183 38230 38289 38334 38378 38397 38452 38502 38573 38632 38584 38428 38304 38215 38146 38131 38133 38163 38178 38220 38266 38250 38186 38024 37897 37837 37840 37948 38005 38039 38179 38310 38407 38477 38503 38344 38209 38039 37975 38042 38110 38145 38171 38242 38330 38339 38315 38181 37900 37651 37491 37364 37236 37098 36954 36827 36766 36853 36887 36858 36643 36393 36225 36151 36101 36060 35973 35919 35886 35907 35899 35934 35845 35645 35570 35568 35592 35634 35652 35625 35654 35708 35761 35779 35804 35664 35499 35456 35456 35471 35493 35463 35394 35267 35225 35256 35305 35343 35189 35019 34883 34831 34757 34638 34502 34372 34277 34261 34356 34485 34674 34698 34601 34664 34729 34763 34908 35004 35111 35169 35224 35364 35499 35572 35428 35315 35285 35313 35394 35436 35486 35541 35585 35615 35659 35724 35792 35674 35566 35589 35600 35646 35703 35804 35898 36034 36132 36143 36084 35978 35735 35476 35328 35399 35534 35612 35694 35761 35744 35677 35612 35553 35534 35438 35395 35391 35391 35446 35545 35614 35638 35677 35698 35755 35822 35861 35888 35768 35697 35688 35694 35661 35628 35638 35630 35674 35707 35801 35895 35995 35947 35866 35743 35650 35621 35641 35650 35663 35666 35689 35726 35763 35768 35723 35627 35561 35552 35609 35713 35794 35860 35888 35959 36028 36093 36225 36322 36351 36386 36444 36561 36708 36822 37003 37191 37359 37415 37421 37413 37170 36799 36654 36644 36672 36724 36647 36488 36299 36230 36289 36274 36233 36078 35883 35794 35738 35715 35745 35800 35818 35835 35762 35652 35569 35549 35352 35087 35016 35068 35370 35770 36020 36195 36380 36610 36865 37038 37225 37199 37134 37172 37294 37421 37526 37618 37732 37788 37863 37979 38080 38149 38068 38018 38054 38136 38231 38334 38395 38448 38525 38589 38634 38667 38640 38473 38366 38379 38489 38601 38700 38753 38826 38889 38957 39016 39066 39008 38791 38650 38634 38727 38825 38948 39034 39133 39236 39330 39369 39386 39231 38998 38829 38741 38700 38618 38508 38389 38316 38251 38211 38194 38119 37906 37680 37531 37438 37378 37318 37249 37225 37230 37239 37256 37241 37063 36893 36932 37134 37407 37611 37726 37777 37813 37845 37864 37958 37978 37870 37827 37872 37938 38014 38077 38141 38144 38169 38245 38347 38417 38281 38074 37982 38019 38103 38144 38148 38063 37940 37773 37553 37389 37242 36952 36565 36314 36205 36144 35991 35860 35716 35591 35509 35409 35330 35254 35034 34812 34663 34610 34577 34500 34418 34327 34233 34185 34101 34023 33924 33706 33498 33395 33334 33271 33190 33096 33022 32958 32920 32887 32864 32708 32513 32394 32370 32371 32382 32347 32296 32274 32248 32241 32235 32197 32032 31910 31908 31926 31923 31873 31771 31713 31709 31750 31793 31815 31791 31616 31525 31530 31607 31670 31744 31778 31801 31828 31848 31825 31805 31741 31585 31518 31563 31660 31810 31900 31967 32044 32098 32218 32322 32390 32430 32412 32441 32499 32642 32750 32847 32932 33001 33052 33086 33094 33105 33095 32987 32844 32781 32784 32804 32810 32810 32803 32793 32810 32836 32836 32872 32818 32779 32849 32966 33072 33164 33209 33238 33236 33220 33221 33249 33284 33245 33182 33221 33300 33393 33449 33474 33498 33506 33549 33568 33600 33591 33484 33378 33370 33434 33489 33505 33483 33489 33498 33518 33564 33598 33600 33499 33402 33392 33460 33517 33539 33521 33524 33536 33541 33557 33569 33587 33546 33424 33374 33414 33486 33527 33546 33568 33590 33633 33694 33731 33779 33833 33800 33739 33758 33819 33893 33946 33931 33952 33966 33980 33982 33992 33997 33970 33879 33836 33855 33937 33989 34040 34078 34112 34178 34227 34289 34325 34306 34215 34111 34098 34093 34085 34064 34034 33998 34019 34031 34067 34076 34068 33936 33839 33821 33848 33894 33930 33919 33881 33859 33840 33761 33703 33670 33609 33564 33608 33695 33876 34067 34341 34740 35213 35815 36459 37037 37480 37720 37793 37841 37825 37767 37709 37645 37813 38155 38507 38775 38963 39135 39170 39126 39156 39269 39370 39444 39534 39568 39631 39730 39819 39897 39968 39885 39756 39689 39705 39701 39574 39333 38930 38511 38178 37861 37621 37497 37204 36838 36588 36489 36441 36519 36887 37311 37808 38425 38779 39025 39235 39309 39329 39449 39623 39797 39956 40075 40206 40318 40396 40471 40505 40562 40487 40335 40182 40086 40046 39992 39976 40007 40148 40279 40321 40186 39798 39244 38732 38395 38168 38095 38016 37999 37864 37908 38050 38144 38260 38232 38188 38271 38437 38646 38802 38863 38874 39071 39234 39457 40008 40154 40261 40515 40859 41364 41830 42148 42468 42752 43039 43290 43543 43829 44054 44239 44386 44548 44690 44777 44594 44264 43919 43517 43059 42586 42030 41242 40278 39184 38109 37345 37014 36926 36969 37074 37228 37393 37559 37744 37859 37894 37775 37699 37650 37699 37762 37744 37773 37748 37649 37539 37428 37238 37053 36887 36737 36601 36478 36250 35806 35401 35132 34952 34776 34576 34367 34172 34043 34001 34008 33996 33983 33902 33817 33662 33353 33095 32984 32891 32951 33061 33246 33634 34186 34869 35569 35989 36087 36254 36394 36413 36236 35880 35601 35731 35749 35724 35807 35871 35975 36137 36305 36277 36201 36090 35817 35616 35382 35193 35251 35380 35402 35356 35213 34968 34729 34532 34396 34249 34438 35406 36063 36498 36929 37394 37786 38085 38247 38215 38337 38458 38580 38516 38080 37549 37344 37555 37636 37508 37378 37370 37336 37273 37142 37016 36853 36539 36029 35626 35366 35224 35125 35134 35078 35026 34995 35079 35305 35545 35733 35749 35650 35539 35435 35276 35067 35029 34963 35015 35115 35129 35096 35007 34793 34641 34538 34446 34399 34484 34663 34542 34417 34450 34530 34621 34671 34468 34340 34331 34421 34537 34614 34638 34650 34558 34676 34816 34657 34440 34356 34236 34167 34309 34591 34832 34999 34966 34778 34712 34613 34615 34548 34380 34338 34365 34401 34666 34976 35334 35772 36362 36828 37082 37212 37238 37109 36790 36815 36735 36713 36739 36739 36587 36389 36196 35982 35913 35759 35538 35253 35166 35085 34917 34810 34812 34894 35028 35147 35309 35479 35515 35397 35304 35269 35265 35402 35394 35294 35225 35192 35185 35195 35129 35007 34786 34561 34310 34149 34105 34220 34327 34380 34351 34388 34437 34486 34444 34359 34368 34482 34620 34717 34681 34627 34591 34521 34516 34448 34334 34144 33848 33568 33384 33564 33896 34139 34177 34180 34144 34069 33929 33847 33739 33650 33584 33700 33890 34069 34138 34146 34113 34023 33965 33897 33789 33611 33494 33372 33365 33518 33674 33735 33813 33924 34041 34153 34203 33988 33811 34003 34312 34406 34382 