30249 30235 30208 30144 30161 30201 30199 30235 30243 30254 30166 30094 30031 30015 29959 29951 29936 29939 29949 29939 29967 29994 30024 30058 30101 30112 30090 30052 30012 29937 29820 29688 29542 29385 29219 29059 28915 28694 28425 28157 27911 27712 27535 27358 27178 27020 26870 26730 26634 26515 26448 26377 26289 26158 25995 25853 25748 25663 25608 25542 25495 25452 25414 25386 25353 25329 25299 25256 25234 25181 25069 24950 24847 24774 24716 24670 24625 24584 24539 24531 24485 24458 24428 24401 24365 24358 24265 24197 24133 24092 24072 24065 24061 24062 24090 24118 24164 24176 24197 24216 24248 24277 24313 24291 24301 24322 24395 24641 25098 25525 25752 25853 25863 25864 25882 25864 25859 25843 25811 25795 25736 25684 25622 25569 25507 25472 25450 25415 25391 25364 25328 25333 25294 25279 25252 25237 25218 25174 25105 25065 25027 24998 24956 24932 24897 24873 24839 24832 24802 24777 24744 24732 24708 24653 24594 24547 24514 24485 24460 24418 24404 24390 24389 24432 24452 24469 24495 24497 24488 24477 24511 24529 24545 24540 24516 24472 24416 24374 24336 24293 24266 24216 24191 24133 24085 24045 24048 24039 24032 24031 24041 24041 24066 24071 24080 24128 24122 24135 24128 24125 24113 24128 24133 24154 24147 24158 24177 24194 24207 24221 24260 24255 24239 24218 24207 24205 24198 24195 24204 24187 24166 24163 24135 24110 24103 24054 23991 23929 23893 23853 23820 23798 23757 23728 23696 23676 23664 23652 23631 23611 23558 23506 23455 23423 23383 23391 23421 23418 23393 23371 23383 23314 23230 23146 23088 23045 22993 22959 22953 22927 22881 22857 22853 22868 22911 22937 22929 22939 22925 22839 22787 22772 22750 22754 22734 22720 22692 22622 22546 22513 22485 22520 22566 22598 22620 22608 22613 22545 22455 22420 22421 22387 22356 22350 22352 22329 22291 22306 22300 22307 22316 22323 22327 22323 22315 22287 22266 22230 22200 22176 22178 22162 22152 22123 22080 22073 22057 22086 22135 22199 22280 22299 22313 22296 22218 22189 22232 22296 22340 22362 22392 22332 22240 22167 22239 22459 22733 23007 23261 23465 23823 23766 23664 23629 23621 23598 23651 23665 23650 23545 23437 23365 23332 23452 23675 23902 24107 24346 24693 24682 24619 24597 24522 24500 24646 24696 24762 24850 24733 24644 24563 24510 24580 24786 24995 25205 25548 25832 25817 25755 25695 25648 25619 25605 25603 25593 25489 25349 25291 25205 25257 25492 25745 25919 26125 26575 26664 26567 26500 26427 26343 26354 26373 26372 26275 26111 26081 26007 26019 26150 26360 26551 26739 27177 27321 27190 27118 27089 27033 27024 27024 26984 27002 26853 26739 26672 26592 26680 26822 26944 27047 27215 27476 27309 27187 27098 27008 26935 26949 26956 26955 26943 26813 26801 26676 26641 26794 26982 27097 27196 27488 27629 27508 27431 27407 27369 27317 27263 27263 27284 27229 27058 27008 26912 26883 26980 27103 27167 27252 27497 27532 27424 27368 27336 27290 27287 27303 27327 27351 27290 27212 27163 27087 27143 27333 27458 27608 27956 28225 28179 28104 28048 27999 27925 27891 27877 27933 27909 27805 27735 27656 27553 27516 27583 27631 27712 27915 27972 27919 27891 27841 27807 27797 27789 27765 27738 27620 27524 27459 27352 27306 27337 27384 27449 27536 27788 27810 27691 27606 27518 27455 27403 27408 27429 27398 27283 27190 27142 27006 26961 27035 27093 27154 27340 27400 27280 27179 27118 27041 26985 26948 26912 26888 26769 26652 26623 26547 26448 26439 26431 26404 26433 26503 26381 26311 26247 26195 26111 26080 26059 26034 26024 25963 25862 25760 25670 25633 25615 25626 25627 25757 25798 25703 25608 25548 25534 25575 25677 25714 25876 25874 25858 25776 25740 25816 25889 25962 26025 26202 26441 26323 26211 26171 26119 26022 25980 25929 25897 25831 25698 25585 25480 25402 25385 25477 25610 25712 25872 25961 25816 25701 25659 25556 25510 25562 25562 25542 25434 25247 25172 25098 25074 25207 25403 25549 25675 25904 25958 25768 25599 25505 25434 25362 25348 25345 25372 25321 25205 25108 25030 24915 24945 25130 25349 25518 25763 25791 25657 25523 25408 25320 25256 25299 25327 25327 25285 25181 25090 25033 24985 24994 25084 25206 25342 25521 25596 25498 25394 25343 25276 25258 25294 25238 25229 25190 25077 25023 24975 24929 24986 25177 25326 25466 25718 25771 25644 25526 25444 25415 25380 25346 25300 25267 25205 25103 24978 24921 24879 24926 25057 25231 25403 25606 25793 25694 25525 25425 25355 25308 25320 25331 25290 25223 25087 25002 24969 24963 25004 25108 25267 25419 25582 25843 25759 25562 25391 25301 25237 25230 25257 25253 25287 25315 25181 25074 24968 24961 25040 25145 25226 25440 25768 25739 25547 25390 25268 25162 25106 25060 25025 25006 24939 24842 24834 24841 24904 25039 25222 25331 25496 25817 25762 25610 25502 25400 25276 25195 25201 25168 25164 25080 24974 24903 24836 24882 25023 25162 25252 25379 25668 25735 25615 25528 25451 25389 25318 25259 25233 25204 25185 25100 25022 24966 24899 24923 25075 25256 25370 25576 25896 25878 25774 25719 25636 25601 25575 25537 25505 25517 25426 25327 25275 25198 25258 25356 25512 25650 25877 26099 26006 25884 25823 25768 25699 25682 25688 25665 25605 25485 25400 25350 25278 25334 25466 25606 25732 25991 26148 25992 25847 25762 25709 25668 25653 25655 25670 25667 25551 25429 25354 25324 25416 25578 25718 25889 26247 26481 26372 26191 26078 25977 25896 25856 25830 25815 25769 25685 25598 25498 25397 25417 25533 25704 25904 26262 26405 26267 26122 25974 25836 25740 25709 25649 25629 25565 25438 25358 25294 25270 25321 25468 25638 25835 26359 26384 26242 26114 26009 25913 25800 25726 25641 25614 25531 25367 25243 25156 25120 25206 25329 25457 25602 25941 26071 25886 25749 25618 25516 25462 25401 25349 25254 25158 24998 24894 24806 24858 24981 25182 25345 25618 25882 25721 25523 25377 25284 25227 25206 25213 25165 25032 24793 24672 24637 24718 24834 25000 25153 25314 25579 25659 25419 25198 25053 24941 24920 24923 24856 24843 24791 24609 24454 24396 24443 24598 24790 24927 25076 25398 25473 25265 25034 24870 24773 24841 24950 25002 25028 24988 24857 24706 24595 24616 24777 24966 25138 25267 25410 25601 25511 25333 25162 25002 24915 24960 24946 24910 24864 24757 24620 24512 24485 24528 24694 24934 25160 25428 25915 25932 25794 25634 25452 25304 25207 25172 25100 25060 24969 24805 24705 24665 24763 24950 25078 25130 25227 25350 25371 25256 25132 25041 24927 24880 24938 24940 24876 24806 24674 24501 24427 24512 24653 24838 25003 25141 25324 25504 25378 25212 25038 24939 24883 24873 24905 24851 24793 24754 24689 24737 24828 24905 25050 25153 25223 25328 25490 25457 25258 25077 24940 24861 24887 24925 24925 24871 24749 24567 24424 24400 24439 24605 24814 25002 25165 25455 25750 25632 25463 25285 25159 25110 25180 25229 25182 25113 24958 24761 24647 24626 24699 24882 25082 25214 25401 25668 25652 25475 25327 25209 25125 25169 25230 25210 25100 24969 24827 24692 24634 24715 24881 25082 25296 25536 25883 26170 26074 25900 25755 25640 25562 25598 25591 25480 25410 25286 25136 25028 25057 25182 25364 25576 25758 25919 26219 26269 26098 25919 25789 25706 25728 25798 25708 25608 25478 25338 25223 25285 25374 25543 25747 25934 26101 26383 26692 26543 26311 26130 26015 26003 26120 26188 26165 26182 26171 26022 26005 26164 26381 26609 26851 26954 27021 27217 27259 27075 26904 26765 26636 26538 26474 26414 26318 26136 25918 25768 25707 25841 26043 26297 26543 26784 27071 27108 26884 26678 26511 26391 26317 26291 26247 26200 26070 25844 25624 25522 25540 25673 25852 26059 26299 26605 26906 26754 26484 26279 26133 26005 26020 26043 26030 25971 25770 25564 25448 25418 25500 25661 25863 26023 26235 26421 26377 26069 25809 25621 25478 25501 25557 25591 25542 25358 25078 24805 24681 24715 24856 25059 25276 25513 25843 26048 25815 25539 25316 25162 25135 25161 25144 25112 25015 24811 24602 24553 24601 24689 24872 25091 25347 25618 25939 25781 25466 25207 25007 24904 24976 25083 25136 25103 24901 24620 24502 24562 24655 24785 25003 25240 25524 25954 25861 25531 25234 25014 24957 25056 25158 25137 25086 24938 24646 24425 24455 24576 24739 24944 25154 25405 25724 25848 25566 25245 24976 24792 24793 24907 24956 25014 25065 25111 24892 24813 24800 24866 25018 25207 25410 25664 25906 25786 25512 25237 25028 24968 25034 25087 25035 24951 24771 24460 24330 24404 24475 24695 24954 25128 25299 25625 25443 25052 24697 24435 24372 24436 24532 24591 24525 24411 24121 23876 23911 24029 24197 24447 24713 24991 25293 25262 24932 24612 24331 24200 24200 24287 24354 24327 24170 23906 23655 23719 23892 24148 24453 24777 25039 25317 25530 25333 24967 24667 24466 24376 24476 24610 24580 24489 24236 23937 23834 23943 24058 24260 24461 24699 24934 25180 25014 24665 24381 24218 24239 24413 24592 24706 24711 24535 24300 24145 24206 24354 24551 24778 25012 25242 25517 25635 25369 25080 24882 24753 24756 24838 24864 24814 24663 24431 24221 24253 24419 24604 24829 25047 25282 25543 25709 25503 25239 25052 24912 24937 25055 25120 25128 24990 24779 24541 24415 24435 24568 24799 25057 25309 25548 25764 25670 25427 25179 24991 24932 25043 25237 25391 25312 25122 24889 24620 24584 24725 24949 25183 25401 25597 25795 25877 25730 25493 25320 25176 25209 25336 25486 25518 25360 25141 24903 24790 24913 25098 25326 25590 25822 26063 26413 26502 26291 26066 25892 25774 25739 25769 25731 25605 25448 25245 25060 25050 25190 25423 25654 25883 26074 26293 26671 26683 26473 26270 26109 25986 26034 26159 26157 26018 25967 25866 25729 25693 25760 25868 26051 26196 26346 26533 26918 27043 26859 26648 26486 26365 26341 26368 26348 26205 26156 26045 25848 25739 25751 25839 25981 26110 26278 26473 26823 26883 26661 26472 26325 26239 26284 26349 26312 26268 26163 26101 25982 25975 26062 26182 26299 26426 26609 26816 27032 26930 26705 26513 26346 26249 26285 26429 26524 26487 26436 26356 26224 26272 26331 26385 26474 26610 26786 27075 27283 27166 26929 26698 26444 26270 26249 26287 26246 26146 26044 26038 26062 26100 26087 26169 26318 26511 26679 26945 27031 26833 26564 26166 25851 25679 25632 25635 25582 25474 25348 25170 25100 25094 25150 25277 25439 25642 25897 26155 25995 25615 25183 24899 24887 24983 25105 25205 25200 25063 24948 24837 24794 24805 24928 25065 25257 25473 25725 25855 25560 25098 24735 24542 24545 24666 24744 24757 24653 24520 24249 24187 24226 24350 24505 24715 24884 25169 25504 25329 24852 24510 24303 24300 24412 24546 24575 24541 24481 24303 24058 24081 24226 24422 24639 24830 25015 25239 25254 24853 24414 24200 24137 24291 24549 24815 24947 24915 24772 24553 24388 24448 24574 24785 25055 25295 25580 25852 25685 25312 24995 24791 24725 24782 24955 25067 25062 24906 24737 24548 24578 24753 24918 25149 25407 25683 25999 26416 26387 26086 25821 25620 25521 25563 25669 25719 25537 25288 25040 24891 24989 25123 25261 25453 25650 25738 25886 25992 25859 25590 25398 25280 25270 25352 25417 25369 25256 25092 24925 24826 24911 25069 25277 25520 25754 26010 26438 26620 26465 26242 26031 25893 25803 25755 25733 25660 25506 25345 25113 25105 25276 25440 25596 25773 25950 26244 26609 26554 26296 26078 25877 25735 25737 25794 25823 25727 25632 25578 25577 25732 25861 25894 26013 26321 27023 27703 28269 28644 28944 29105 29249 29367 29507 29665 29781 29904 30068 30193 30253 30319 30435 30525 30586 30639 30696 30829 30886 30773 30515 30258 30032 29874 29798 29751 29685 29543 29314 28899 28502 28206 28027 27984 27986 28037 28207 28310 27955 27458 27059 26759 26608 26552 26544 26501 26383 26081 25684 25447 25351 25384 25490 25659 25838 26009 26127 25842 25360 25060 24822 24743 24781 24840 24799 24599 24193 23827 23569 23554 23658 23866 24151 24399 24610 24700 24536 24124 23796 23629 23619 23718 23876 23982 23813 23633 23543 23463 23494 23638 23817 24082 24345 24430 24542 24669 24496 24244 24054 23915 23939 24037 24056 24012 23855 23778 23685 23730 23865 24048 24229 24432 24601 24779 25063 25062 24823 24587 24403 24319 24298 24257 24222 24135 24022 23874 23813 23945 24104 24281 24456 24634 24899 25331 25359 25152 24930 24809 24663 24576 24556 24508 24673 25076 25718 26394 27019 27464 27760 27991 28201 28441 28686 28937 29110 29168 29138 29074 29000 28943 28897 28877 28821 28718 28585 28510 28298 28130 28077 28080 28108 28270 28398 28201 27849 27459 27139 26902 26731 26597 26485 26324 26124 25955 25832 25935 26089 26308 26718 27201 27689 28174 28541 28622 28692 28777 28897 29042 29223 29396 29526 29655 29780 29924 30036 30164 30276 30373 30477 30569 30662 30755 30834 30935 31071 31181 31298 31361 31429 31451 31452 31510 31518 31538 31565 31588 31614 31675 31672 31773 31836 31935 31973 32080 32146 32179 32209 32258 32308 32384 32409 32443 32441 32468 32480 32468 32455 32454 32432 32410 32429 32461 32493 32504 32523 32492 32495 32513 32554 32564 32550 32536 32501 32471 32459 32440 32440 32349 32311 32326 32409 32436 32523 32550 32591 32620 32651 32711 32695 32703 32681 32665 32634 32607 32569 32415 32370 32464 32546 32652 32725 32805 32857 32876 32912 32963 33006 33010 33047 33024 33047 33020 33004 32990 33001 33000 33008 33029 33049 33087 33093 33095 33106 33103 33139 33162 33164 33185 33174 33195 33184 33173 33183 33180 33194 33212 33190 33229 33248 33271 33293 33275 33303 33316 33335 33354 33351 33365 33369 33358 33343 33343 33343 33339 33348 33374 33376 33382 33387 33436 33427 33416 33435 33431 33466 33474 33486 33480 33492 33484 33474 33478 33485 33513 33508 33512 33538 33549 33557 33567 33569 33539 33562 33569 33580 33563 33589 33583 33584 33565 33531 33541 33546 33516 33510 33515 33567 33575 33602 33667 33689 33741 33763 33795 33824 33795 33793 33789 33773 33745 33755 33751 33758 33749 33728 33730 33734 33726 33729 33725 33706 33658 33586 33519 33421 33342 33209 33104 32907 32714 32630 32682 32781 32869 32918 32956 33007 33073 33074 33082 33122 33153 33183 33240 33252 33225 33192 33146 33119 33096 33093 33085 33075 33069 33042 32768 32141 31552 31113 30781 30528 30283 30089 29763 29085 28338 27772 27358 27071 26897 26747 26607 26430 25951 25404 24920 24725 24685 24615 24486 24490 24529 24311 24218 24658 25240 25598 26072 26504 26772 27105 27434 27693 27845 27831 27831 27826 27911 28027 28181 28327 28385 28374 28365 28426 28614 28813 29042 29194 29200 29119 29079 29053 29086 29159 29203 29267 29219 29112 29039 28944 28735 28720 28702 28565 28456 28361 28221 28085 27993 27945 27887 27879 27798 27684 27500 27339 27212 27076 26958 26841 26701 26562 26385 26115 25921 25883 26010 26221 26479 26776 27190 27501 27555 27529 27573 27620 27707 27884 28133 28378 28547 28720 28888 29076 29269 29441 29597 29738 29864 29975 30068 30059 30035 30075 30157 30211 30316 30429 30496 30452 30269 30047 29827 29648 29493 29371 29295 29267 29226 29124 29063 28998 29092 29119 29061 29038 28976 28701 28418 28219 28072 27988 27988 28026 28053 27968 27596 27227 27001 26785 26618 26437 26255 26110 25861 25496 25232 24964 24708 24417 24132 23987 24032 24068 24056 24130 24292 24498 24528 24306 24033 23751 23503 23436 23435 23453 23375 23237 23085 23073 23017 22984 23069 23258 23507 23763 24009 24226 24218 23939 23625 23474 23434 23505 23638 23725 23698 23618 23420 23237 23244 23409 23670 23928 24193 24426 24629 24530 24256 24031 23882 23853 23890 23971 23977 23910 23785 23698 23666 23697 23854 24085 24303 24544 24726 24802 24706 24482 24249 24120 24032 24056 24170 24159 23987 23803 23645 23593 23625 23739 23954 24213 24474 24677 24865 24959 24882 24680 24486 24346 24269 24256 24265 24160 24040 23905 23828 23792 23911 24100 24286 24460 24646 24841 24981 24899 24721 24533 24396 24359 24383 24308 24151 24051 23901 23709 23566 23539 23608 23828 24152 24512 24841 25071 25128 24966 24628 24347 24187 24237 24431 24457 24335 24212 24029 23799 23843 24290 24842 25356 25708 25864 25928 25898 25649 25303 24970 24692 24523 24445 24401 24279 24086 23777 23491 23447 23628 23918 24173 24424 24648 24856 24829 24494 24148 23927 23735 23655 23690 23707 23564 23291 23087 23002 23078 23179 23363 23572 23803 24047 24277 24376 24193 23975 23759 23597 23527 23555 23549 23481 23331 23203 23252 23331 23503 23659 23756 23824 23944 24068 24099 23982 23846 23719 23637 23615 23722 23838 23853 23743 23607 23496 23410 23509 23706 23936 24148 24410 24634 24868 25123 24996 24745 24456 24216 24041 24063 24247 24352 24234 24083 23866 23754 23946 24225 24431 24605 24778 24921 25071 24886 24608 24353 24166 24071 24081 24151 24223 24050 23854 23664 23679 23856 24256 24654 25039 25467 25998 26778 27677 28191 28511 28770 28912 29058 29257 29507 29728 29920 30066 30272 30388 30477 30552 30637 30702 30756 30830 31014 31083 31039 30992 30889 30789 30625 30530 30450 30423 30331 30224 30055 29872 29628 29418 29231 29117 29072 29055 29028 28851 28529 28188 27895 27612 27374 27191 27020 26853 26553 26115 25742 25529 25490 25562 25710 25948 26174 26273 26167 25872 25552 25273 25017 24868 24846 24843 24691 24418 24186 24049 23998 24061 24191 24401 24599 24787 24969 25110 25043 24816 24568 24321 24049 23927 24014 24185 24197 24079 23892 23714 23562 23517 23554 23732 23990 24276 24527 24649 24532 24236 23903 23660 23550 23529 23550 23563 23506 23414 23230 23092 23177 23413 23609 23786 23985 24154 24269 24285 24088 23882 23736 23631 23539 23569 23645 23633 23491 23317 23224 23273 23444 23653 23834 24053 24226 24426 24606 24473 24307 24157 24019 23913 23837 23794 23790 23694 23584 23537 23565 23699 23968 24170 24393 24593 24809 24982 25141 25031 24881 24704 24505 24346 24244 24168 24111 24041 23951 23853 23775 23802 23939 24131 24315 24502 24695 24887 25002 24822 24590 24397 24230 24103 24069 24095 24114 24035 23843 23693 23629 23747 23988 24186 24376 24556 24679 24844 24914 24744 24554 24404 24253 24129 24071 24143 24280 24291 24155 24067 23956 23886 23948 24102 24301 24493 24725 24932 25014 24875 24702 24482 24241 24028 23900 23845 23830 23813 23688 23556 23454 23498 23721 23938 24112 24319 24545 24826 24861 24568 24246 24038 23987 24079 24389 24644 24579 24398 24093 23807 23623 23735 24146 24646 25088 25279 25242 25199 25029 24803 24831 25245 25611 25970 26250 26650 27095 27468 27811 28002 28192 28541 28914 29198 29347 29441 29690 30052 30175 30196 30179 30131 30074 30102 30181 30341 30440 30434 30398 30361 30291 30216 30148 30065 30004 29937 29908 29857 29652 29374 29148 28935 28754 28620 28478 28350 28138 27786 27368 27009 26732 26527 26383 26314 26262 26174 25963 25623 25264 25027 24859 24844 24992 25337 25794 26448 26961 27284 27600 27858 28151 28516 28862 29156 29445 29699 29902 30133 30330 30485 30640 30789 30942 31053 31124 31170 31254 31355 31445 31487 31484 31506 31548 31587 31630 31569 31558 31608 31695 31679 31700 31685 31692 31797 31873 31898 31877 31861 31952 31915 31819 31747 31731 31726 31721 31753 31685 31584 31463 31446 31448 31434 31379 31280 31032 30683 30321 30058 29848 29695 29596 29533 29516 29375 29179 28913 28590 28278 28004 27747 27560 27373 27202 26949 26669 26364 26032 25794 25696 25651 25547 25469 25496 25576 25484 25229 24902 24622 24310 24036 23917 23859 23781 23663 23458 23269 23203 23148 23119 23200 23379 23556 23747 23839 23701 23419 23108 22906 22822 22815 22885 22905 22847 22754 22519 22315 22347 22517 22745 22940 23128 23293 23447 23503 23260 23012 22878 22783 22756 22784 22864 22906 22796 22653 22539 22459 22483 22692 22945 23116 23195 23247 23324 23280 23162 23010 22904 22818 22778 22758 22720 22661 22605 22516 22483 22517 22624 22746 22851 22997 23183 23392 23555 23614 23447 23203 22990 22844 22782 22775 22817 22792 22671 22516 22349 22339 22438 22604 22802 23031 23245 23435 23563 23450 23154 22880 22716 22630 22641 22718 22865 22919 22841 22862 22836 22901 23255 23592 23780 23853 23841 23836 23761 23534 23326 23131 22976 22885 22924 22903 22863 22737 22568 22415 22343 22420 22631 22828 23085 23342 23568 23746 23662 23445 23192 22891 22659 22603 22711 22741 22642 22508 22353 22192 22178 22293 22517 22743 22980 23238 23467 23713 23522 23152 22801 22603 22468 22469 22573 22637 22612 22305 22016 21870 22027 22229 22460 22718 22959 23125 23228 23223 22954 22709 22498 22336 22323 22438 22488 22480 22424 22240 22101 22108 22259 22497 22694 22798 22865 22956 23047 23057 22887 22709 22536 22403 22359 22447 22577 22636 22657 22520 22399 22312 22400 22559 22750 22926 23136 23355 23507 23563 23297 23000 22816 22710 22653 22768 22885 22917 22917 22773 22608 22575 22689 22836 22999 23217 23501 23722 23884 23967 23762 23566 23384 23194 23093 23133 23170 23118 23029 22807 22656 22634 22714 22851 22950 23064 23247 23462 23680 23723 23576 23405 23126 22875 22774 22816 22926 23050 22991 22837 22615 22637 22713 22838 23034 23232 23445 23648 23815 23585 23258 22955 22787 22721 22787 22941 22998 22936 22680 22475 22445 22600 22799 22991 23182 23378 23521 23606 23561 23306 23087 22932 22797 22785 22820 22853 22843 22799 22652 22574 22695 22896 23219 23491 23688 23907 24320 24884 25238 25090 24849 24724 24943 25315 25765 26259 26782 27079 27286 27552 27726 27948 28307 28641 28916 29107 29375 29667 29710 29598 29477 29312 29176 28987 28804 28675 28512 28226 27817 27419 27088 26861 27008 27097 27149 27192 27250 27077 26801 26476 26186 25882 25632 25379 25105 24849 24607 24464 24464 24635 25294 26277 27097 27826 28260 28695 29262 29684 29989 30232 30456 30734 30997 31242 31375 31474 31537 31663 31825 31909 31944 31952 31995 31969 31989 32060 32068 31963 31825 31681 31577 31509 31446 31436 31435 31407 31269 31079 30906 30739 30607 30509 30500 30473 30423 30222 30062 29879 29643 29440 29297 29184 28887 28508 28147 27773 27383 27012 26719 26541 26411 26292 26225 26287 26391 26419 26168 25823 25391 24947 24643 24529 24556 24529 24343 24127 23882 23607 23480 23520 23659 23865 24133 24374 24625 24628 24095 23556 23307 23187 23169 23206 23212 23161 22910 22638 22549 22550 22641 22786 22987 23192 23345 23398 23481 23501 23274 23067 22933 22828 22800 22828 22759 22618 22448 22245 22171 22162 22247 22343 22450 22574 22751 22906 23035 23137 22962 22736 22521 22413 22343 22308 22387 22471 22486 22319 22101 22028 22115 22311 22535 22757 23009 23211 23265 22996 22604 22331 22247 22236 22298 22439 22504 22392 22138 21989 21964 22076 22252 22499 22748 22974 23129 23270 23307 23101 22859 22629 22478 22360 22288 22305 22311 22224 22100 22139 22260 22455 22707 22847 22901 23031 23187 23457 23742 23506 23234 22891 22670 22579 22619 22677 22638 22498 22359 22270 22322 22516 22777 22950 23083 23224 23392 23500 23168 22778 22630 22510 22426 22464 22523 22516 22398 22173 22037 22067 22260 22522 22748 22958 23129 23208 23244 23163 22850 22589 22492 22402 22395 22424 22383 22307 22168 22054 22070 22173 22385 22605 22703 22758 22872 23125 23582 24225 24017 23680 23311 22980 22839 22827 22818 22809 22652 22516 22452 22508 22715 23219 23873 24692 25451 26217 27002 27502 27954 28340 28589 28835 29072 29335 29594 29824 30075 30351 30579 30739 30870 30918 31017 31079 31138 31182 31114 31037 30963 30962 30965 30986 30999 31027 30985 30922 30848 30747 30698 30640 30557 30515 30393 30307 30217 30152 30056 30055 30259 30636 30978 31172 31281 31264 31181 31132 31105 31055 30952 30817 30728 30846 30988 31070 31082 31096 30886 30520 30202 29950 29747 29575 29412 29267 28999 28477 27903 27509 27267 27137 27127 27187 27279 27287 27010 26507 25972 25579 25273 25066 24981 24936 24696 24291 23962 23729 23638 23669 23794 23975 24217 24285 24327 24388 24246 23987 23692 23490 23345 23193 23155 23117 23042 22908 22800 22806 22930 22974 23015 23111 23305 23542 23784 23913 23731 23481 23157 22958 22854 22924 23042 23037 22909 22752 22589 22521 22613 22824 23088 23382 23697 24093 24471 24773 24482 24073 23764 23506 23333 23305 23331 23209 22923 22710 22557 22535 22653 22896 23174 23432 23629 23731 23836 23765 23516 23239 23022 22951 23020 23123 23059 22942 22786 22599 22474 22565 22727 22817 22942 23108 23314 23527 23734 23610 23364 23089 22864 22792 22878 22938 22951 22906 22719 22556 22461 22500 22694 22941 23148 23313 23469 23637 23574 23226 22904 22874 22787 22743 22792 22857 22921 22841 22629 22358 22358 22489 22721 23086 23500 23838 24081 24304 24252 23977 23680 23390 23153 22964 22902 22884 22842 22736 22541 22320 22345 22504 22638 22781 22995 23186 23375 23539 23561 23357 22993 22725 22565 22595 22740 22887 22936 22796 22551 22193 22104 22207 22364 22590 22927 23307 23612 23819 23606 23203 22860 22705 22625 22657 22684 22775 22800 22650 22519 22494 22551 22674 22893 23099 23273 23464 23658 23973 24240 24007 23717 23415 23131 22998 23049 23104 23107 22998 22860 22793 22806 22914 23057 23260 23505 23754 23971 24145 23985 23639 23277 23133 23088 23159 23273 23368 23344 23152 22946 22879 22980 23135 23381 23611 23857 24062 24174 24223 24055 23787 23566 23450 23375 23417 23463 23458 23441 23304 23154 23043 23152 23310 23533 23696 23896 24118 24326 24533 24360 24124 23867 23612 23551 23610 23674 23656 23533 23368 23304 23278 23300 23394 23526 23717 23908 24083 24197 24128 23776 23413 23289 23199 23234 23369 23516 23573 23386 23076 22996 23024 23103 23238 23423 23645 23899 24082 24229 24066 23786 23532 23354 23219 23272 23370 23398 23407 23265 23143 23185 23292 23404 23558 23688 23815 23988 24173 24337 24187 23991 23743 23464 23278 23328 23485 23586 23642 23474 23309 23258 23371 23566 23858 24129 24365 24554 24746 24779 24483 24114 23875 23692 23601 23666 23795 23825 23757 23545 23431 23467 23606 23807 24034 24237 24401 24523 24625 24728 24563 24348 24175 24007 23849 23832 23856 23870 23858 23687 23564 23574 23706 23825 24043 24266 24490 24718 24971 25159 24977 24692 24340 24064 23898 23915 24011 24055 24057 23853 23666 23585 23602 23713 23941 24169 24424 24668 24847 24925 24661 24366 24129 23980 23886 23930 23984 23951 23899 23790 23646 23639 23737 23909 24114 24213 24371 24511 24718 24873 24792 24546 24148 23818 23643 23714 23906 24004 23953 23762 23573 23313 23202 23249 23411 23619 23865 24115 24359 24468 24178 23661 23439 23318 23204 23175 23288 23361 23206 22962 22794 22742 22849 23019 23226 23433 23536 23623 23770 23859 23710 23432 23181 23042 22878 22811 22866 22939 22961 22840 22680 22642 22646 22683 22862 23091 23363 23660 23916 24071 24140 23836 23395 23133 23023 23077 23281 23405 23408 23247 22990 22827 22845 23046 23272 23547 23843 24111 24252 24277 24220 23962 23742 23571 23430 23339 23380 23478 23487 23382 23167 23005 23040 23198 23309 23518 23752 24008 24230 24400 24527 24309 23990 23584 23351 23282 23369 23519 23566 23508 23296 23077 23086 23242 23447 23713 23935 24109 24273 24402 24431 24188 23872 23658 23522 23444 23506 23669 23612 23485 23280 23106 23010 23175 23342 23548 23683 23780 23945 24106 24226 24112 23884 23670 23377 23211 23207 23380 23513 23528 23388 23238 23128 23092 23233 23476 23758 23971 24187 24357 24488 24430 23993 23625 23409 23262 23230 23348 23475 23392 23184 22867 22632 22621 22772 22931 23185 23381 23586 23836 24115 24242 23987 23665 23385 23147 23008 23095 23236 23259 23143 22897 22735 22689 22710 22794 22974 23212 23456 23673 23890 23932 23640 23231 23085 22989 23010 23192 23348 23399 23239 22899 22687 22696 22865 23075 23330 23559 23819 23968 24005 23861 23528 23334 23251 23169 23235 23388 23439 23342 23173 23088 23089 23213 23403 23624 23770 23893 24048 24233 24425 24361 24172 23917 23641 23380 23340 23453 23531 23612 23512 23363 23249 23264 23366 23586 23832 24076 24315 24580 24803 24569 24143 23790 23607 23500 23518 23706 23893 23940 24146 24785 25830 26593 27004 27457 27990 28368 28665 29018 29471 29808 30015 30178 30299 30408 30493 30558 30836 31098 31216 31220 31158 31093 31083 31121 31265 31496 31639 31803 32022 32230 32421 32605 32753 32867 33019 33243 33466 33480 33469 33400 33349 33308 33298 33287 33317 33308 33291 33227 33133 32967 32808 32737 32729 32720 32708 32672 32615 32498 32401 32327 32252 32172 32217 32370 32469 32572 32582 32539 32405 32306 32194 32095 32004 31941 31820 31675 31510 31336 31154 31046 31115 31247 31240 31215 31181 31246 31477 31688 31808 31876 31888 31901 31902 31908 31997 32086 32144 32188 32121 31954 31668 31415 31199 31055 30947 30828 30717 30309 29769 29281 28891 28611 28325 28105 27907 27750 27377 26978 26900 26984 27101 27158 27189 27254 27240 27074 26921 26939 27095 27115 27045 27035 27046 27154 27496 27684 27804 28011 28151 28274 28454 28657 28834 29002 29192 29453 29724 29940 30098 30235 30283 30323 30323 30392 30457 30477 30543 30557 30374 30206 30120 30065 30021 29971 29935 29878 29644 29333 29070 28842 28656 28501 28335 28195 27946 27554 27162 26805 26541 26342 26165 26012 25926 25954 25958 25949 26066 26228 26456 26663 26870 27023 27014 26998 27231 27093 27119 27182 27226 27163 26976 26736 26506 26333 26325 26393 26522 26611 26429 26145 25907 25752 25697 25602 25327 25037 24648 24293 24096 24081 24218 24436 24703 24982 25160 24908 24410 24025 23789 23645 23543 23521 23475 23225 22797 22509 22349 22316 22404 22584 22788 22892 22917 22989 23118 22941 22643 22398 22266 22090 21934 21919 21912 21778 21592 21473 21447 21497 21545 21669 21882 22109 22357 22557 22703 22554 22171 21741 21557 21474 21456 21538 21545 21497 21359 21126 21021 21105 21297 21644 22009 22454 22870 23176 23230 22827 22439 22135 21908 21762 21724 21777 21624 21396 21216 21147 21169 21288 21517 21776 21996 22119 22229 22392 22504 22309 22052 21807 21564 21393 21429 21524 21555 21507 21359 21232 21251 21291 21430 21710 22014 22325 22570 22748 22742 22379 21971 21747 21682 21675 21768 21826 21807 21634 21408 21358 21447 21698 22105 22478 22751 23017 23251 23677 24039 23952 23722 23429 23123 22854 22550 22328 22168 21974 21776 21683 21715 21871 22107 22361 22584 22763 22943 23190 23271 23012 22710 22358 22272 22436 22927 23610 24197 24874 25480 25937 26469 26927 27460 28012 28462 28846 29225 29678 30035 30289 30478 30638 30765 30859 30918 30980 31101 31207 31177 31108 31003 30896 30809 30746 30623 30417 30204 29987 29816 29607 29400 29361 29345 29274 29163 29153 29131 29053 28965 29105 29385 29711 30002 30250 30554 30789 31000 31014 30995 30492 30335 30429 30487 30470 30442 30331 30190 29868 29312 28788 28415 28225 28172 28174 28174 28097 27813 27318 26809 26384 25984 25697 25467 25329 25034 24539 24013 23551 23270 23213 23376 23667 23844 23952 24100 24248 24365 24145 23840 23622 23322 23029 22932 22930 22866 22682 22523 22374 22336 22252 22243 22447 22790 23175 23596 23968 24313 24092 23490 23084 22836 22689 22603 22665 22665 22455 22131 21981 21963 22062 22276 22506 22836 23122 23226 23261 23246 22940 22712 22538 22424 22339 22275 22247 22187 22117 21990 21952 22054 22226 22329 22381 22556 22813 23166 23544 23911 23691 23326 22887 22612 22467 22474 22570 22567 22447 22232 21974 21812 21870 22053 22339 22654 23007 23298 23500 23560 23172 22698 22486 22322 22198 22222 22357 22320 22155 21883 21738 21758 21905 22045 22293 22488 22666 22872 23087 23204 22992 22668 22341 22031 21844 21896 22044 22170 22194 21993 21872 21766 21720 21740 21915 22137 22375 22635 22830 22934 22687 22152 21915 21812 21744 21826 21963 22082 22102 21915 21621 21565 21713 21915 22159 22466 22741 22929 22979 22856 22636 22365 22044 21886 21732 21705 21831 21982 22103 22108 21931 21783 21753 21801 21876 22051 22289 22511 22682 22836 22793 22356 21875 21777 21721 21807 21980 22082 22130 21909 21588 21533 21685 21896 22111 22353 22640 22846 22935 22991 22696 22362 22259 22231 22136 22153 22161 22079 22049 21935 21836 21752 21824 21951 22047 22157 22360 22612 22854 23030 22854 22543 22149 21907 21861 22032 22238 22342 22343 22125 21887 21763 21853 22023 22266 22509 22757 22967 23123 22902 22353 22066 22044 22007 22037 22170 22259 22224 22092 21865 21867 22019 22239 22453 22615 22739 22800 22873 22920 22694 22399 22295 22216 22133 22158 22226 22263 22198 21988 21918 22033 22231 22386 22501 22671 22859 23048 23197 23192 22928 22514 22310 22207 22223 22388 22524 22552 22461 22117 21890 22034 22255 22471 22697 22913 23117 23265 23241 22909 22554 22489 22431 22390 22462 22598 22533 22339 22054 21934 21987 22149 22317 22548 22697 22749 22856 22975 23043 22880 22663 22606 22467 22299 22343 22499 22587 22581 22485 22272 22259 22374 22534 22736 22985 23202 23391 23577 23719 23636 23056 22786 22715 22641 22701 22904 22965 22852 22538 22224 22160 22309 22526 22707 22892 23140 23291 23377 23431 23465 23155 22935 22872 22769 22680 22731 22788 22819 22662 22429 22375 22556 22746 22880 23078 23382 23664 23888 24091 23877 23467 23002 22739 22668 22761 22856 22926 22884 22689 22440 22328 22484 22680 22920 23196 23443 23658 23810 23766 23341 22818 22704 22604 22587 22708 22887 22884 22775 22459 22231 22230 22425 22593 22735 22924 23065 23167 23272 23346 23059 22816 22750 22618 22506 22557 22657 22748 22801 22625 22474 22517 22642 22729 22888 23117 23376 23584 23773 23901 23644 23007 22786 22680 22628 22746 22954 23030 22985 22626 22353 22332 22517 22759 23038 23303 23543 23714 23727 23643 23254 22840 22740 22696 22666 22791 22870 22869 22921 22845 22812 22841 22965 23125 23217 23326 23517 23732 23877 23929 23726 23399 23122 22913 22808 22876 23077 23154 23175 23006 22881 22826 22931 23151 23379 23586 23818 24025 24161 24360 24057 23565 23271 23115 23057 23146 23310 23422 23307 23055 22887 22856 23056 23223 23417 23652 23769 23815 23862 23767 23464 23311 23341 23282 23171 23108 23138 23220 23253 23141 23048 23032 23208 23377 23514 23699 23929 24190 24418 24522 24419 24021 23505 23216 23137 23236 23403 23541 23595 23432 23049 22836 22982 23206 23472 23762 24061 24269 24377 24331 24139 23628 23386 23334 23230 23227 23339 23347 23251 23084 23007 22977 23055 23240 23411 23512 23583 23729 23907 24043 23996 23743 23400 23051 22864 22839 23011 23227 23299 23224 23024 22871 22789 22875 23033 23276 23553 23828 24054 24163 24069 23419 22968 22962 22918 22933 23078 23241 23331 23084 22706 22551 22658 22852 23066 23297 23516 23665 23690 23692 23711 23317 23106 23021 22934 22874 22956 23048 23059 23065 22899 22702 22746 22944 22995 23063 23190 23398 23579 23767 23870 23725 23197 22946 22900 22847 22953 23144 23272 23309 23124 22705 22512 22644 22894 23097 23302 23526 23755 23894 23903 23736 23275 23116 23026 22940 22955 23012 23014 23028 23008 22831 22691 22799 23041 23249 23377 23482 23643 23827 23987 24019 23723 23363 23029 22845 22842 22990 23129 23195 23154 22929 22777 22746 22855 23009 23233 23514 23783 23983 24148 24012 23232 22905 22840 22794 22867 23039 23155 23084 22821 22512 22439 22613 22828 23029 23271 23503 23611 23644 23716 23673 23253 23056 22966 22867 22790 22869 22940 22993 22908 22770 22647 22782 22886 22905 23029 23255 23466 23658 23801 23891 23486 22922 22741 22646 22651 22805 23016 23144 23159 22886 22523 22494 22697 22867 23101 23368 23604 23772 23755 23716 23637 23287 23154 23049 22983 22981 23035 23123 23161 23025 22805 22753 22905 23062 23191 23320 23505 23727 23930 24125 24100 23776 23347 23079 22961 23026 23229 23389 23455 23367 23197 22964 22919 23083 23289 23550 23826 24077 24271 24337 24109 23552 23289 23237 23141 23157 23284 23404 23370 23239 22982 22834 22916 23116 23353 23644 23833 23959 24073 24124 24029 23745 23452 23293 23105 22984 23077 23275 23378 23331 23093 22864 22739 22775 22876 23125 23351 23534 23718 23861 23854 23420 23042 22879 22828 22832 22957 23136 23256 23141 22808 22518 22485 22715 22887 23104 23350 23535 23619 23700 23803 23693 23379 23215 23063 22966 22869 22953 23086 23121 23045 22881 22770 22898 23019 23189 23360 23550 23743 23878 23891 23729 23361 23026 22893 22873 22986 23212 23347 23386 23183 22806 22707 22860 23058 23360 23655 23937 24181 24256 24057 23609 23337 23286 23214 23159 23175 23258 23247 23218 23121 22963 22912 23056 23297 23538 23752 23944 24134 24219 24125 23876 23553 23328 23111 23015 23100 23306 23430 23479 23358 23140 23082 23178 23336 23534 23737 23921 24101 24216 24234 23788 23362 23317 23245 23248 23344 23530 23670 23522 23123 22865 22894 23157 23413 23660 23900 24010 23926 23849 23708 23485 23336 23282 23254 23236 23158 23109 23123 23225 23362 23445 23628 23880 23916 23833 23752 23933 24141 24317 24496 24725 25010 25213 25644 26255 26523 26528 26434 26697 26843 26596 26253 25962 25801 25800 25851 25938 26033 25963 25825 25645 25473 25398 25240 25121 25045 24733 24339 24017 23938 23885 23929 24104 24281 24430 24487 24605 24875 25167 25397 25316 25106 24786 24381 24109 24062 24099 24077 24014 23981 23885 23678 23658 23789 24086 24390 24692 24975 25246 25289 24989 24685 24567 24398 24283 24367 24607 24761 24603 24559 24429 24305 24435 24712 25040 25361 25491 25522 25523 25633 25794 26097 26476 26589 26251 25765 25321 24951 24808 25150 25489 25874 26031 25920 25777 25697 25672 25699 25822 25882 25875 25612 25243 25023 24933 24862 24783 24723 24976 25312 25429 25575 25622 25686 25960 26554 27379 27920 27784 27434 27228 27127 27057 27005 26923 26844 26665 26425 26158 26211 26319 26390 26510 26660 26798 26833 26914 26946 26975 27084 27297 27562 27745 27690 27543 27357 27131 26878 26684 26544 26454 26346 26023 25679 25477 25385 25383 25483 25679 25811 25748 25638 25483 25379 25329 25208 25129 25137 25240 25103 25096 25464 25634 25664 25607 25545 25528 25293 25263 25364 25514 25691 25980 26150 26108 25726 25193 24760 24693 24754 24806 24947 25300 25817 26326 26687 26991 27287 27622 27996 28323 28541 28712 28836 29057 29291 29507 29661 29777 29755 29815 30044 30269 30407 30493 30500 30447 30507 30712 30822 30945 30984 30980 30965 31017 31142 31195 31275 31299 31267 31224 31321 31468 31573 31592 31607 31552 31492 31420 31337 31257 31238 31224 31187 30910 30556 30271 30091 29905 29688 29419 29119 28746 28349 28104 28048 28037 28068 28077 28057 27878 27258 26454 25769 25234 24809 24516 24290 24015 23421 22723 22135 21917 22025 22304 22601 22861 22974 22793 22513 22073 21650 21396 21236 21181 21147 21052 20950 20746 20522 20339 20204 20271 20515 20713 20910 21193 21477 21731 21833 21605 21266 20685 20289 20145 20151 20303 20487 20456 20249 19965 19688 19718 19922 20236 20599 20938 21201 21384 21252 20764 20285 20134 20079 20069 20136 20268 20331 20108 19861 19729 19694 19793 19974 20230 20485 20606 20743 20926 21070 21112 20868 20581 20357 20119 20068 20189 20404 20493 20458 20246 20034 19954 20054 20310 20650 21000 21348 21658 21845 21843 21371 20723 20530 20497 20551 20719 20931 20981 20734 20350 20142 20120 20311 20525 20804 21121 21296 21359 21435 21492 21296 21015 20875 20747 20590 20549 20670 20765 20764 20582 20389 20373 20506 20609 20807 21089 21387 21676 21908 21989 21713 21114 20874 20805 20833 20967 21192 21246 21131 20762 20462 20398 20616 20936 21249 21491 21724 21963 22123 22297 22091 21643 21381 21163 21043 21078 21056 20953 20778 20538 20477 20636 20889 21189 21419 21594 21770 21934 22156 21989 21653 21417 21205 20989 20972 21144 21240 21269 21074 20899 20862 20953 21166 21483 21752 21976 22187 22318 22327 21840 21346 21210 21176 21148 21281 21469 21475 21206 20845 20697 20803 21041 21296 21627 21964 22238 22305 22209 22094 21752 21540 21487 21377 21331 21384 21474 21470 21354 21226 21109 21200 21411 21576 21747 21977 22230 22490 22701 22808 22562 22064 21743 21532 21441 21580 21746 21778 21611 21446 21177 21198 21387 21670 21963 22279 22531 22757 22836 22635 22168 21871 21748 21614 21568 21690 21883 21883 21672 21336 21202 21297 21521 21763 21970 22049 22120 22232 22304 22224 21889 21641 21513 21336 21352 21502 21633 21657 21609 21496 21467 21509 21552 21688 21924 22169 22380 22568 22663 22568 22081 21685 21539 21489 21548 21728 21888 21958 21651 21297 21130 21261 21525 21767 22075 22388 22559 22576 22581 22553 22194 21901 21766 21648 21532 21551 21655 21724 21642 21438 21320 21453 21618 21686 21839 22041 22314 22579 22780 22841 22570 22067 21804 21658 21675 21804 21943 22046 22084 21798 21438 21481 21673 21912 22224 22525 22779 22916 22892 22797 22402 22128 22032 21888 21847 21968 22028 22019 21925 21738 21659 21787 21977 22158 22314 22439 22587 22783 22940 22939 22677 22323 22050 21862 21868 22025 22206 22312 22332 22193 21807 21735 21999 22299 22556 22812 23029 23161 23205 23037 22622 22399 22367 22348 22296 22312 22439 22418 22306 22089 21988 22008 22205 22459 22707 22874 22937 23010 23150 23248 23156 22808 22570 22261 22056 22098 22254 22373 22459 22321 22123 21992 21999 22118 22339 22622 22962 23252 23498 23660 23317 22526 22275 22174 22115 22223 22425 22505 22331 21932 21666 21618 21832 22054 22330 22625 22755 22739 22803 22934 22898 22575 22397 22246 22027 21942 22045 22131 22197 22020 21842 21853 21905 21935 22072 22302 22570 22840 23055 23211 22998 22356 22065 21986 21962 22047 22252 22333 22251 21797 21519 21534 21752 21976 22236 22466 22724 22934 22943 22886 22606 22225 22135 22020 21938 21966 22080 22128 22173 22063 21888 21884 22050 22195 22293 22427 22641 22855 23026 23100 22978 22653 22241 22037 21969 22097 22303 22373 22451 22391 22103 21873 22012 22263 22527 22838 23156 23435 23566 23455 23271 22774 22503 22393 22247 22206 22316 22356 22330 22311 22340 22369 22432 22687 23032 23209 23231 23170 23183 23179 23071 22768 22498 22150 21920 21899 22081 22256 22394 22398 22201 21892 21779 21947 22187 22454 22688 22867 23033 23084 22869 22403 22154 22066 21955 21960 22025 22118 22061 21988 21830 21669 21619 21866 22057 22218 22292 22360 22440 22536 22649 22619 22341 22106 21818 21667 21730 21943 22106 22170 21992 21716 21553 21670 21798 21931 22126 22327 22558 22757 22875 22651 22104 21990 21894 21804 21862 22013 22095 21960 21711 21531 21566 21794 22025 22319 22657 22862 22950 23020 23063 22777 22352 22161 22008 21811 21837 21989 22081 22065 21922 21785 21889 22017 22090 22371 22642 22790 22904 22998 23010 22746 22264 22110 22076 22108 22129 22167 22238 22271 21993 21808 21847 22114 22445 22663 22846 23003 23072 23003 22883 22515 22362 22276 22210 22176 22244 22219 22185 22150 22001 21899 22018 22178 22372 22438 22506 22630 22773 22899 22946 22726 22417 22130 21965 21986 22117 22311 22417 22448 22438 22119 21778 21823 21991 22220 22500 22794 23087 23261 23149 22773 22422 22339 22264 22209 22284 22435 22381 22247 22045 21848 21862 21984 22149 22407 22623 22834 23057 23243 23282 23187 22870 22556 22223 22040 22077 22272 22416 22467 22437 22311 22154 22052 22131 22347 22580 22839 23023 23157 23153 22873 22292 22177 22156 22205 22328 22494 22533 22361 22018 21856 21944 22139 22368 22654 22950 23176 23271 23342 23390 23321 22915 22766 22604 22496 22450 22514 22563 22569 22492 22289 22300 22378 22367 22645 23080 23700 24472 25161 25469 25250 24629 23831 23287 23256 23598 24021 24381 24593 24799 24917 24835 25172 25783 26332 26718 26983 27344 27871 28471 28974 29415 29721 29991 30279 30551 30711 30847 30901 30919 30989 31016 30978 30966 31003 31004 30947 30950 30963 30941 30883 30834 30741 30452 30172 29884 29544 29253 28872 28501 28070 27506 26844 26321 25975 25889 25793 25792 25689 25369 24899 24560 24317 24162 24158 24229 24417 24580 24825 24967 25373 25862 26167 26345 26421 26424 26369 26416 26500 26434 26495 26668 26740 26793 26570 26420 26813 27321 27552 27444 27169 26926 26541 26065 25574 25168 25083 25217 25589 25583 25372 25158 25075 24989 24898 25002 25524 26146 26696 27075 27446 27848 28100 28159 28231 28382 28634 28645 28297 27961 27760 27549 27343 27130 26872 26403 25679 24915 24356 23972 23972 24241 24530 24855 25004 25056 24803 24785 24807 24860 25019 24926 24728 24575 24461 24440 24592 24871 25166 25775 26239 26417 26489 26626 26871 27196 27412 27481 27494 27441 27396 27424 27553 27653 27655 27588 27402 27210 27088 27026 26999 26998 26983 26794 26595 26398 26264 26104 25988 26128 26228 26276 26272 25995 25661 25449 25452 25594 25905 26373 26839 27307 27693 28126 28496 28682 28721 28644 28520 28406 28102 27942 28109 28376 28612 28715 28755 28819 28780 28739 28818 29060 29487 29795 29851 29878 29772 29365 29068 28862 28714 28566 28362 28081 27670 26989 26317 25875 25703 25658 25680 25744 25773 25402 24701 24098 23715 23471 23282 23203 23167 22859 22230 21734 21460 21439 21559 21815 22163 22434 22491 22521 22534 22263 21954 21698 21512 21317 21080 21033 21095 21249 21664 22567 23399 23741 24010 24401 24689 24896 25255 25732 26068 26377 26537 26530 26477 26501 26614 26707 26845 27011 27122 27315 27583 27825 28052 28339 28635 28884 29055 29236 29501 29610 29735 29798 29795 29704 29578 29479 29308 29141 28929 28692 28418 28141 27912 27646 27329 26915 26474 26102 25856 25840 25892 25770 25545 25358 25124 24934 24762 24684 24797 24948 24777 24703 24783 24830 24883 24951 25057 25178 25019 24689 24390 24235 24108 24033 23977 23896 23435 22780 22331 22098 22166 22351 22639 22949 23115 23143 23223 23404 23417 23045 22695 22396 22033 21714 21585 21563 21526 21404 21244 21100 21036 20995 21127 21443 21841 22199 22482 22722 22524 21727 21203 20995 20911 20918 21034 21119 21010 20637 20360 20250 20385 20639 20976 21360 21691 21790 21751 21666 21412 21123 20920 20761 20638 20499 20514 20585 20576 20412 20336 20378 20585 20697 20835 21079 21411 21774 22145 22417 22185 21662 21180 20879 20756 20817 21002 21067 21003 20782 20530 20447 20607 20859 21155 21469 21705 21904 21928 21806 21426 21202 21089 21001 20935 20950 20974 20925 20785 20626 20542 20620 20819 21085 21228 21362 21597 21788 21839 21833 21663 21425 21118 20896 20818 20878 20986 21045 21079 21060 20819 20674 20818 21018 21298 21619 21962 22247 22396 22175 21544 21225 21096 20989 20983 21077 21138 21024 20786 20654 20647 20773 20947 21233 21595 21826 21945 22096 22227 22068 21732 21501 21297 21069 20993 21063 21220 21354 21376 21240 21019 21002 21091 21294 21600 21973 22343 22624 22814 22648 21862 21383 21234 21149 21144 21288 21433 21373 21037 20746 20627 20767 21016 21235 21507 21760 21985 22220 22592 22901 22517 22152 21840 21391 21094 21095 21160 21238 21185 21020 20866 20921 20943 21044 21336 21709 22026 22245 22393 22425 21793 21351 21151 21057 21084 21272 21498 21606 21456 21148 20951 21065 21192 21357 21624 21886 22064 22163 22354 22570 22276 22047 21760 21588 21379 21301 21414 21466 21421 21156 21052 21201 21271 21333 21541 21859 22191 22478 22707 22820 22238 21524 21373 21318 21378 21560 21718 21764 21646 21334 21154 21227 21403 21712 22045 22377 22643 22719 22655 22549 22109 21846 21661 21519 21518 21535 21518 21546 21487 21340 21233 21388 21523 21554 21670 21872 22155 22466 22644 22650 22248 21740 21464 21323 21334 21482 21624 21722 21675 21402 21137 21205 21387 21615 21941 22268 22583 22780 22700 22581 22190 21807 21596 21456 21489 21639 21662 21615 21542 21397 21274 21374 21505 21713 21947 22265 22636 22958 23232 23390 23265 22865 22146 21701 21556 21659 21869 22054 22124 22018 21696 21398 21331 21474 21734 22026 22357 22707 22813 22719 22382 21903 21699 21552 21472 21529 21560 21582 21592 21573 21336 21219 21311 21530 21715 21871 22002 22159 22353 22462 22340 22037 21715 21530 21475 21565 21747 21899 22027 22008 21715 21416 21437 21617 21853 22100 22319 22496 22678 22712 22619 22205 22024 21985 21920 21897 22000 22013 21935 21887 21762 21626 21638 21787 21992 22117 22262 22429 22645 22817 22898 22661 22300 21949 21747 21717 21898 22112 22271 22243 22125 21947 21738 21742 21853 22080 22306 22516 22705 22737 22610 22383 22129 22141 22079 22087 22169 22257 22195 22148 22051 21951 21882 21938 22039 22158 22236 22392 22582 22766 22851 22794 22530 22318 21945 21789 21839 22006 22190 22320 22269 22103 21746 21748 21881 22072 22328 22643 22928 23171 23165 22914 22411 22196 22098 21988 21970 22052 22119 22080 21980 21846 21792 21834 22055 22291 22571 22772 22841 22910 23030 23099 22921 22638 22306 21993 21906 21987 22125 22237 22295 22276 22118 21892 21879 22000 22174 22371 22605 22831 22983 22909 22613 22261 22160 22119 22114 22155 22228 22175 22120 22041 21964 21842 21945 22167 22380 22562 22684 22798 22969 23135 23235 22886 22511 22087 21775 21779 21941 22216 22378 22459 22309 22000 21878 22010 22183 22424 22745 23065 23351 23466 23301 22566 22223 22147 22086 22114 22222 22379 22347 22220 22050 22008 22185 22267 22385 22661 22847 23007 23264 23540 23734 23463 23059 22564 22138 21996 22112 22289 22441 22531 22375 22109 22049 22123 22214 22447 22735 23066 23366 23655 23922 23429 22783 22561 22396 22300 22376 22576 22739 22645 22481 22272 22174 22297 22543 22752 22995 23155 23287 23487 23694 23625 23253 22901 22606 22267 22190 22357 22564 22618 22535 22423 22306 22287 22322 22447 22685 22968 23266 23561 23742 23750 23125 22632 22415 22269 22254 22426 22626 22697 22558 22328 22032 22033 22242 22415 22649 22885 22996 23146 23328 23478 23461 23128 22775 22476 22209 22222 22408 22605 22699 22626 22494 22426 22307 22285 22478 22771 23087 23401 23711 23966 23983 23388 22615 22394 22264 22229 22380 22621 22574 22328 21948 21741 21751 21927 22146 22408 22609 22628 22705 22818 22926 22783 22503 22302 22075 21865 21991 22318 22584 22628 22465 22179 21960 21908 22054 22236 22459 22712 22953 23105 23106 22777 22175 22034 22016 21995 22039 22204 22349 22281 22106 21990 21903 21940 22098 22230 22386 22477 22558 22718 22917 23093 23116 22799 22567 22308 22269 22519 22832 22969 22988 22936 22887 22681 22452 22505 22681 22890 23156 23415 23621 23855 24005 24271 24506 24738 25010 25353 25777 26123 26290 26345 26435 26666 26930 27085 27222 27069 26944 27001 27117 27222 27336 27460 27592 27742 27780 27770 27821 27921 27996 28008 28026 28087 28026 27938 27849 27828 27828 27860 27903 27949 27857 27680 27560 27463 27375 27294 27230 27178 27060 26835 26675 26608 26628 26648 26716 26770 26711 26507 26330 26272 26256 26221 26167 26098 25989 25641 25283 25083 25002 24958 24974 25014 25071 24940 24810 24809 24746 24633 24440 24233 24013 23694 23495 23458 23401 23271 23125 22986 22977 22840 22694 22696 22827 23041 23320 23625 23827 23480 22680 22161 21964 21898 21943 22027 22090 22037 21709 21417 21332 21406 21518 21675 21865 22052 22070 22095 22184 21900 21541 21338 21170 21033 20886 20890 20964 21021 21027 21081 21261 21711 22315 22997 23657 24207 24595 24869 24899 25010 25248 25635 25954 26287 26653 26994 27360 27687 27985 28195 28378 28473 28562 28597 28620 28628 28617 28623 28534 28414 28257 28047 27850 27663 27516 27336 27133 26991 26871 26647 26445 26402 26534 26738 26712 26772 26954 26962 26994 27188 27365 27413 27398 27210 27058 26850 26611 26339 25972 25359 24551 23931 23778 23949 24261 24580 24867 25046 25006 24568 23947 23433 23073 22799 22661 22603 22380 22049 21685 21461 21267 21251 21417 21559 21561 21647 21849 22072 22236 22241 21913 21358 20894 20656 20583 20713 20884 20969 20878 20640 20246 20084 20205 20441 20750 21092 21421 21694 21720 21385 20805 20486 20423 20324 20311 20395 20409 20269 20088 19920 19865 19917 20070 20260 20421 20577 20926 21295 21616 21910 21707 21351 20837 20426 20255 20313 20514 20664 20707 20547 20350 20152 20195 20401 20629 20881 21150 21404 21609 21629 21499 21065 20825 20765 20669 20626 20706 20743 20735 20688 20528 20438 20444 20610 20775 20881 21000 21252 21540 21814 22048 22045 21662 21098 20700 20555 20622 20804 20954 21065 20978 20657 20412 20472 20598 20799 21052 21309 21554 21733 21689 21566 21146 20904 20839 20762 20727 20844 20923 20963 20935 20858 20659 20628 20722 20826 20857 20985 21201 21446 21683 21802 21607 21212 20841 20610 20528 20626 20818 20984 21069 21021 20629 20404 20474 20613 20778 21026 21346 21798 22275 22517 22302 22037 21941 21875 21825 21956 22070 22152 22363 22703 23100 23472 23843 24270 24566 24726 24941 25288 25745 26190 26533 26825 26922 26694 26797 26843 27024 27119 27129 27128 27046 26847 26662 26636 26691 26812 26932 27030 27135 27117 26972 26923 26957 27009 27072 27123 27129 26964 26700 26510 26322 26224 26025 25820 25646 25426 25211 25162 25287 25537 25724 25772 25512 24922 24280 23803 23496 23326 23210 23141 23109 22937 22513 22221 22198 22282 22459 22705 22936 23104 23004 22617 22229 22044 21890 21804 21803 21876 21717 21552 21406 21242 21144 21120 21208 21298 21282 21348 21544 21788 21983 22069 21816 21402 20954 20684 20640 20700 20845 20935 20926 20699 20327 20168 20193 20327 20557 20890 21298 21666 21842 21775 21403 20764 20540 20496 20418 20489 20614 20622 20557 20490 20297 20244 20380 20531 20656 20738 20850 21043 21249 21411 21337 21000 20687 20431 20268 20299 20418 20632 20800 20825 20561 20282 20275 20364 20489 20708 20984 21271 21589 21721 21725 21280 20838 20742 20641 20597 20682 20817 20826 20778 20647 20509 20488 20599 20736 20853 20959 21128 21388 21660 21883 22033 21836 21397 20901 20681 20600 20710 20899 21052 21096 20973 20538 20401 20505 20662 20877 21148 21456 21746 21898 21859 21580 21122 20934 20871 20733 20751 20857 20932 20941 20887 20702 20550 20644 20743 20814 20852 20990 21218 21484 21694 21746 21535 21106 20757 20590 20577 20713 20881 21007 21053 20887 20601 20526 20663 20860 21110 21399 21746 22087 22255 22295 22073 21569 21347 21170 21050 21074 21130 21123 21100 20994 20824 20811 20936 21106 21225 21343 21556 21834 22081 22223 22170 21822 21334 21016 20846 20888 21069 21274 21388 21329 20969 20600 20652 20815 21024 21339 21727 22065 22333 22332 22139 21467 21162 21104 21040 21055 21180 21183 21149 21073 20872 20794 20911 21119 21308 21393 21551 21797 22052 22252 22352 21964 21526 21201 20939 20905 21082 21266 21402 21448 21291 20929 20875 21023 21252 21595 22061 22454 22789 22912 22883 22396 21797 21687 21523 21505 21576 21663 21576 21435 21289 21215 21177 21340 21521 21726 21894 22158 22461 22746 23036 22765 22299 21892 21544 21394 21459 21599 21728 21726 21481 21337 21269 21264 21416 21714 22051 22419 22762 23040 23116 22471 21821 21680 21579 21569 21737 21976 21956 21744 21520 21364 21403 21575 21769 22039 22260 22391 22530 22693 22744 22400 21927 21626 21276 21141 21247 21404 21492 21497 21281 21187 21201 21208 21341 21629 21945 22236 22526 22732 22786 22105 21495 21332 21241 21251 21383 21561 21620 21294 20984 20831 20864 21032 21257 21594 21956 22153 22255 22299 22158 21767 21453 21317 21159 21018 21071 21210 21277 21312 21095 21037 21150 21188 21250 21445 21708 21964 22185 22309 22263 21821 21283 21115 21063 21146 21412 21623 21696 21591 21189 20973 21102 21350 21665 22051 22425 22726 22854 22879 22905 22505 22056 21809 21621 21428 21345 21448 21532 21594 21464 21291 21373 21577 21738 21898 22106 22397 22690 22934 23150 22903 22086 21656 21428 21362 21486 21712 21826 21859 21488 21087 21092 21326 21646 22077 22413 22630 22722 22615 22443 22003 21563 21433 21309 21291 21368 21408 21417 21455 21338 21110 21174 21348 21490 21617 21814 22068 22298 22491 22521 22210 21684 21331 21123 21155 21360 21592 21656 21592 21300 21026 20957 21061 21285 21600 21918 22160 22366 22300 21954 21433 21321 21307 21267 21325 21480 21591 21533 21399 21242 21192 21319 21478 21661 21813 21881 21972 22119 22287 22350 22078 21765 21573 21363 21335 21489 21706 21853 21938 21849 21595 21448 21507 21648 21862 22119 22357 22600 22781 22726 22399 22011 21921 21908 21884 21918 22019 22017 21913 21861 21850 21823 21899 22034 22120 22240 22371 22681 23179 23713 24211 24464 24392 24106 23817 23628 23527 23400 23326 23275 23359 23304 23153 23192 23340 23564 23899 24262 24594 24810 24689 24344 24181 23989 23715 23600 23566 23411 23042 22742 22539 22524 22480 22496 22602 22736 22797 22933 23028 23202 23318 23296 23236 23165 22824 22426 22306 22317 22315 22480 22625 22791 23229 23238 23245 23353 23443 23517 23558 23346 22678 22058 21689 21515 21618 21773 21745 21579 21405 20969 20907 21045 21235 21387 21585 21764 21952 21910 21798 21760 21795 21850 21869 21883 21912 21788 21744 21829 22045 22241 22249 22209 22085 21910 21775 21831 22079 22370 22604 22840 23122 23479 23423 23043 22779 22669 22617 22625 22717 22792 22584 22247 22003 21831 21828 21983 22227 22521 22704 22802 22926 23114 23285 23332 23351 23340 23010 22632 22484 22479 22478 22450 22567 22624 22676 22618 22639 22823 23035 23261 23489 23666 23587 23482 23481 23519 23652 23735 23925 24024 23872 23757 23774 23910 24187 24363 24606 24999 25265 25173 25009 24949 25004 25072 25150 25126 24987 24755 24365 24028 24006 24204 24395 24713 25213 25560 25863 26147 26435 26298 26250 26188 26139 25816 25406 25094 24909 24939 25200 25250 24888 24528 23885 23549 23467 23766 24066 24306 24597 24859 24910 24874 24453 24069 23732 23439 23326 23245 22949 22425 21961 21679 21526 21715 22025 22476 22813 23142 23823 24558 25335 25771 26002 26172 26152 25940 25801 25879 26103 26274 26309 26355 26315 26107 26179 26593 26948 27203 27448 27697 27897 28180 28507 28822 29101 29421 29701 29975 30224 30416 30580 30726 30818 30768 30711 30638 30535 30333 29937 29611 29361 29153 28941 28763 28655 28457 28231 27808 27320 26854 26610 26355 26282 26716 26559 26231 25961 26436 27245 27596 27974 28345 28617 28905 29275 29512 29709 29863 29998 30163 30242 30137 29802 29635 29559 29533 29571 29501 29537 29350 29080 28853 28708 28673 28643 28627 28653 28424 28034 27847 27857 27925 28069 28200 28232 28239 27983 27763 27443 27437 27771 27966 27883 27621 27017 26244 25549 24921 24479 24671 25336 25877 25993 25984 26177 26569 26900 27137 27341 27437 27256 27155 27192 27229 27288 27288 27301 27363 27175 26991 27033 27248 27578 27988 28429 28809 29091 29238 29216 29125 28969 28812 28687 28588 28309 27752 27138 26686 26510 26494 26447 26388 26325 26022 25398 24605 23900 23368 23057 22924 22906 22808 22471 21846 21285 20946 20923 21063 21305 21506 21584 21702 21900 22030 21807 21457 21159 20918 20666 20567 20620 20770 20869 20707 20471 20321 20241 20324 20560 20857 21194 21459 21703 21763 21444 20783 20497 20412 20366 20378 20524 20645 20607 20177 19882 19818 19949 20109 20352 20732 21168 21366 21417 21306 20871 20557 20460 20346 20257 20179 20196 20224 20238 20052 19875 19911 20071 20207 20375 20650 20954 21230 21413 21445 21148 20583 20251 20108 20051 20183 20351 20382 20297 20046 19803 19754 19852 20077 20380 20748 21141 21521 21641 21483 20901 20410 20249 20096 20048 20178 20274 20267 20210 19995 19883 19926 20123 20372 20628 20902 21244 21735 22529 23379 23249 22809 22028 21201 20779 20804 20927 20942 20711 20538 20404 20385 20619 21014 21475 21936 22245 22382 22385 21678 20829 20596 20502 20416 20548 20738 20809 20546 20139 19980 20046 20281 20537 20840 21156 21328 21357 21387 21217 20813 20537 20415 20309 20198 20257 20360 20428 20369 20236 20286 20414 20528 20575 20760 20999 21262 21451 21498 21325 20780 20294 20168 20184 20390 20708 20863 20871 20564 20203 20090 20238 20514 20815 21149 21486 21751 21701 21415 20897 20583 20489 20452 20495 20641 20707 20702 20687 20500 20452 20540 20726 20898 21116 21323 21585 21874 22128 22131 21778 21284 20870 20778 20958 21430 22016 22501 22637 22595 22685 22669 22954 23507 24297 25338 26219 26964 27567 27884 27964 28137 28441 28815 29104 29283 29440 29507 29385 29216 28987 28771 28516 28388 28356 28160 27953 27811 27494 27121 26685 26232 25616 24815 24059 23433 22980 22567 22220 21895 21783 21904 22402 23007 23783 24474 25356 25850 25806 25517 25484 25589 25710 25966 26158 26279 26229 25962 25878 25977 26149 26153 26186 26238 26316 26543 26941 27545 27828 28205 28735 29120 29041 28660 28283 28030 27857 27601 27328 27142 27006 26753 26458 26301 26203 26112 25919 25923 25962 26039 25906 25643 25596 25568 25448 25417 25323 25040 24790 24666 24843 25215 25776 26417 26798 27119 27292 27534 27687 27795 27887 27929 28012 27983 27923 27961 28029 28172 28364 28534 28558 28586 28542 28524 28536 28604 28715 28920 28962 28571 28047 27600 27238 26938 26654 26374 26077 25423 24410 23384 22804 22708 22881 23145 23458 23681 23634 23260 22721 22398 22102 21868 21748 21657 21497 21376 21215 21003 20837 20740 20759 20853 20934 21163 21513 21989 22448 22783 22540 21969 21306 20926 20834 20925 21164 21352 21325 20984 20613 20403 20377 20497 20758 21066 21380 21704 21834 21758 21396 21028 20820 20711 20653 20599 20617 20678 20665 20551 20314 20204 20359 20545 20724 20947 21230 21575 21921 22102 21861 21477 21066 20789 20714 20754 20912 20990 20951 20687 20349 20238 20411 20693 21027 21417 21826 22151 22197 21767 21169 20946 20816 20779 20803 20943 20944 20668 20289 20115 20236 20498 20799 21095 21372 21526 21675 21844 21908 21583 21242 21006 20726 20560 20603 20743 20822 20784 20598 20408 20474 20584 20753 21072 21494 21879 22211 22548 22565 21893 21204 21008 20930 20956 21061 21202 21186 20819 20444 20265 20379 20609 20868 21176 21445 21557 21547 21458 21287 20910 20749 20627 20511 20463 20620 20744 20774 20648 20358 20280 20342 20376 20565 20872 21231 21589 21852 21962 21748 21140 20809 20652 20645 20746 20921 21029 21117 20723 20408 20467 20729 20939 21211 21507 21818 21958 21991 21973 21745 21306 21148 21027 20997 20987 21052 21112 21129 21017 20897 20984 21212 21360 21481 21645 21880 22130 22296 22288 22045 21546 21205 21071 21086 21201 21353 21470 21447 21047 20710 20721 20911 21128 21439 21823 22173 22475 22513 22465 22114 21730 21493 21323 21300 21412 21439 21457 21445 21233 20996 20929 21040 21102 21190 21363 21634 21962 22258 22415 22325 21695 21345 21196 21130 21223 21445 21631 21617 21344 20946 20782 20945 21232 21527 21837 22111 22318 22334 22255 22161 21773 21604 21414 21304 21257 21290 21357 21425 21372 21224 21068 21162 21231 21339 21618 21962 22302 22581 22709 22624 22160 21572 21308 21224 21288 21473 21635 21680 21612 21245 21066 21228 21417 21645 21902 22197 22380 22368 22266 22164 21813 21639 21509 21445 21446 21441 21474 21505 21502 21337 21252 21360 21433 21479 21651 21946 22278 22581 22796 22785 22416 21821 21580 21435 21463 21654 21839 21881 21749 21343 21152 21248 21459 21723 22076 22464 22834 23007 23017 22818 22369 22060 21914 21787 21700 21651 21674 21716 21631 21486 21294 21342 21502 21539 21719 22004 22326 22672 22897 22958 22663 21983 21648 21461 21442 21631 21820 21992 22037 21686 21402 21310 21474 21705 22057 22407 22663 22704 22577 22514 22403 22126 21987 21840 21677 21515 21595 21839 21962 21937 21650 21513 21583 21626 21725 21952 22270 22551 22821 22943 22952 22367 21786 21643 21556 21559 21744 21979 22093 21950 21645 21369 21361 21599 21856 22131 22357 22388 22344 22369 22406 22380 22120 21918 21723 21459 21477 21646 21820 21947 21970 21811 21610 21558 21639 21835 22132 22448 22622 22719 22720 22329 21712 21547 21549 21587 21739 21947 22096 22029 21870 21671 21548 21665 21898 22148 22404 22540 22654 22826 22963 23063 22970 22572 22276 21894 21724 21828 22042 22188 22242 22123 21852 21629 21649 21854 22137 22454 22729 22991 23236 23179 22663 22157 22006 21853 21828 21926 22107 22101 22048 21920 21767 21730 21865 22043 22211 22285 22394 22603 22848 23067 23205 23025 22682 22240 21869 21784 21911 22093 22206 22189 22038 21679 21638 21857 22104 22370 22623 22942 23204 23163 22865 22190 21812 21738 21673 21783 21941 21907 21810 21767 21581 21487 21542 21740 21942 22073 22202 22427 22627 22763 22711 22375 22020 21689 21563 21656 21801 21943 22002 21944 21778 21492 21620 21942 22271 22642 22977 23244 23419 23223 22700 21984 21744 21640 21591 21704 21861 21889 21841 21681 21642 21633 21674 21807 21967 22099 22221 22410 22578 22641 22494 22174 21819 21560 21457 21505 21660 21825 21933 21857 21585 21339 21467 21684 21897 22109 22420 22662 22808 22674 22348 21979 21831 21802 21768 21756 21806 21812 21837 21821 21638 21521 21624 21770 21876 22007 22266 22586 22809 22891 22742 22395 21983 21731 21612 21677 21875 22039 22099 21995 21619 21418 21500 21743 22054 22401 22704 22934 23001 22814 22474 21975 21750 21682 21654 21699 21745 21775 21856 21792 21565 21456 21585 21780 21874 22033 22213 22348 22521 22743 22921 22587 22015 21717 21598 21639 21770 21913 22014 21991 21633 21321 21354 21603 21859 22105 22420 22697 22789 22710 22626 22282 21936 21813 21663 21614 21599 21705 21759 21779 21691 21607 21701 21806 21860 22013 22245 22528 22806 23059 23195 22963 22258 21908 21813 21838 22043 22264 22383 22379 22043 21695 21652 21830 22057 22387 22787 23193 23343 23399 23318 23167 22728 22340 22196 21950 21799 21862 22027 22141 22126 22028 21918 21955 21979 22021 22176 22406 22678 22931 23096 23084 22526 21912 21802 21745 21742 21903 22129 22179 22048 21770 21573 21564 21742 21940 22145 22340 22443 22546 22670 22768 22686 22366 22162 21894 21619 21608 21733 21912 22057 22066 21830 21551 21488 21579 21746 21999 22284 22566 22843 22977 22766 22162 21761 21773 21693 21716 21897 21984 21898 21845 21744 21598 21532 21699 21942 22085 22183 22368 22591 22807 22916 22812 22434 22043 21775 21639 21682 21875 22038 22077 22067 21889 21571 21514 21713 21928 22129 22348 22548 22729 22658 22561 22349 21991 21914 21843 21801 21836 21912 22017 22083 21949 21769 21693 21875 21974 22091 22330 22642 22909 23122 23258 23166 22789 22299 22099 22017 22082 22254 22434 22477 22284 21885 21644 21598 21764 22048 22349 22610 22837 22895 22915 22885 22629 22342 22242 22117 21941 21897 22026 22207 22286 22152 21929 21800 21837 21897 22012 22215 22426 22622 22773 22872 22849 22394 21758 21635 21625 21741 21986 22222 22266 22067 21788 21530 21506 21687 21846 22047 22212 22285 22448 22679 22835 22865 22500 22204 21928 21574 21499 21642 21815 21923 21944 21796 21563 21332 21390 21591 21861 22156 22425 22665 22758 22546 22088 21614 21534 21457 21448 21544 21637 21566 21492 21345 21184 21138 21280 21482 21649 21689 21791 21961 22170 22344 22369 22108 21758 21447 21298 21394 21590 21767 21813 21803 21538 21188 21049 21241 21490 21761 22048 22357 22557 22469 22303 21885 21641 21593 21466 21409 21481 21492 21491 21508 21363 21282 21232 21405 21604 21694 21840 22075 22337 22542 22646 22630 22160 21693 21496 21446 21525 21709 21893 21945 21770 21416 21264 21381 21624 21864 22064 22265 22414 22424 22417 22350 22021 21748 21664 21568 21438 21398 21469 21545 21664 21619 21408 21355 21499 21555 21637 21859 22165 22447 22728 22877 22791 21974 21532 21395 21308 21377 21581 21798 21905 21620 21088 20924 21041 21225 21424 21692 21890 21869 21924 22076 22092 21869 21494 21292 21085 20898 20942 21091 21220 21324 21229 21048 20916 20830 21001 21324 21764 22209 22548 22749 22741 22248 21611 21271 21256 21291 21406 21492 21582 21442 21254 21078 20977 21040 21302 21590 21792 21874 21977 22100 22220 22328 22124 21808 21576 21259 21120 21319 21538 21779 21879 21699 21406 21124 21081 21211 21489 21911 22415 22818 23084 23069 22757 22020 21528 21348 21224 21277 21439 21457 21352 21176 21011 20850 20928 21056 21263 21467 21588 21743 21940 22055 22009 21678 21469 21215 20971 20913 20997 21202 21344 21356 21296 20999 20796 20982 21205 21463 21737 21945 22094 22096 21800 21360 20993 20996 20967 20968 21090 21223 21176 21131 21017 20924 20880 21015 21208 21367 21441 21559 21769 21952 22062 22027 21669 21303 21011 20893 20971 21164 21366 21472 21526 21309 20944 20892 21180 21479 21680 21916 22121 22243 22154 21995 21513 21217 21194 21175 21253 21361 21368 21363 21405 21333 21138 21114 21260 21373 21348 21452 21632 21824 22003 22156 22151 22073 21716 21642 21689 21853 22141 22438 22676 22587 22244 22259 22386 22704 23027 23112 23252 23470 23558 23922 24463 25195 25286 25171 25410 25642 26003 25815 25461 24853 24295 23895 23659 23507 23363 23317 23384 23550 23815 24063 24105 23792 23026 22461 22230 22192 22281 22430 22552 22573 22080 21541 21260 21400 21666 21923 22320 22863 23299 23476 23447 22908 22325 21857 21539 21304 20978 20823 20928 21040 21064 20879 20683 20721 20815 20832 20957 21147 21383 21608 21723 21761 21159 20633 20346 20249 20368 20542 20732 20865 20688 20324 20040 19940 20047 20216 20403 20632 20745 20741 20825 20912 20963 20636 20397 20255 19987 19895 19994 20160 20276 20271 20077 19929 19796 19840 19986 20248 20607 20928 21184 21389 21290 20684 20324 20259 20219 20231 20317 20395 20348 20292 20175 20024 19988 20099 20310 20496 20589 20764 20985 21107 21073 20800 20441 20243 20024 19930 20058 20308 20508 20595 20496 20347 20024 19940 20070 20271 20540 20830 21084 21312 21319 21141 20730 20496 20434 20363 20365 20417 20441 20463 20494 20419 20325 20225 20319 20424 20487 20679 20952 21243 21481 21639 21565 21160 20662 20419 20320 20405 20583 20760 20856 20797 20459 20140 20144 20356 20627 20877 21180 21446 21522 21509 21471 21194 20834 20703 20566 20452 20427 20409 20396 20488 20547 20450 20339 20405 20439 20582 20847 21193 21532 21771 21842 21702 20974 20520 20364 20328 20392 20562 20717 20744 20443 20148 20041 20137 20307 20562 20976 21458 21761 21861 21868 21817 21463 21098 20915 20695 20498 20565 20709 20914 21024 20929 20689 20448 20371 20472 20640 20897 21217 21537 21761 21786 21473 20838 20583 20542 20456 20492 20683 20774 20681 20578 20413 20313 20342 20471 20674 20885 21068 21317 21581 21830 21899 21725 21327 20905 20705 20670 20798 20968 21118 21172 21079 20788 20508 20536 20773 21063 21416 21804 22116 22213 22044 21625 21082 20919 20804 20726 20818 20894 20880 20875 20877 20884 20931 21161 21346 21390 21403 21527 21683 21848 21913 21798 21390 20899 20631 20528 20593 20795 20991 21105 20991 20553 20313 20407 20648 20929 21270 21599 21932 22008 21822 21503 21004 20862 20749 20685 20811 20826 20797 20829 20710 20518 20426 20571 20731 20833 21067 21372 21684 21878 21975 21829 21185 20734 20573 20500 20623 20867 21070 21142 20994 20829 20712 20776 20945 21124 21362 21687 22005 22066 21941 21695 21135 21009 20890 20832 20825 20879 20960 21029 21006 20959 20925 21017 21076 21051 21207 21503 21851 22086 22233 22260 21821 21127 20919 20808 20795 20931 21120 21285 21229 20944 20672 20605 20770 20991 21249 21537 21711 21761 21775 21777 21724 21276 21105 20951 20706 20700 20862 21043 21125 21127 20950 20823 20756 20826 21014 21262 21591 21858 22097 22243 22110 21640 21122 21058 20957 20922 21032 21209 21222 21142 20964 20764 20790 20947 21105 21292 21404 21542 21749 21962 22076 22019 21650 21413 21118 20937 20988 21162 21317 21443 21487 21325 20843 20758 20993 21305 21583 21869 22187 22437 22347 22158 21720 21373 21255 21237 21302 21448 21457 21479 21496 21383 21273 21181 21335 21540 21638 21816 22029 22266 22477 22533 22325 21768 21335 21139 21111 21242 21448 21627 21725 21569 21130 20867 20912 21136 21407 21765 22205 22562 22697 22733 22671 22159 21788 21630 21474 21240 21202 21278 21394 21441 21307 21152 21209 21293 21384 21543 21827 22116 22389 22615 22723 22316 21598 21336 21283 21285 21381 21575 21734 21567 21278 20980 20866 20975 21219 21464 21774 21916 21967 22076 22169 21961 21532 21347 21181 20929 20922 21069 21301 21358 21250 20996 20875 20775 20911 21150 21437 21775 22096 22313 22377 21862 21158 21002 20969 20947 21073 21269 21380 21189 20976 20869 20687 20780 21035 21219 21436 21520 21575 21700 21774 21723 21429 21230 21089 20875 20835 20962 21123 21270 21320 21097 20856 20751 20860 21059 21320 21613 21930 22202 22315 21989 21268 21029 21024 20977 21002 21142 21270 21194 21038 20850 20780 20869 21055 21267 21454 21545 21615 21756 21941 22039 21887 21467 21195 20929 20846 20965 21196 21390 21484 21321 20970 20726 20796 20972 21279 21631 21954 22202 22353 22155 21538 21086 21082 21049 21031 21152 21348 21350 21175 21088 21022 20923 21048 21173 21353 21436 21597 21778 21915 21984 21706 21282 21039 20741 20668 20898 21191 21401 21484 21425 21218 20795 20832 21146 21423 21626 21834 21998 22052 21905 21674 21304 21321 21360 21347 21398 21490 21457 21520 21625 21637 21539 21451 21398 21273 21261 21430 21635 21829 22001 22122 22154 22053 21783 21571 21344 21333 21388 21424 21459 21459 21455 21547 21691 21804 21777 21688 21611 21431 21251 21226 21318 21477 21630 21751 21836 21764 21562 21464 21384 21274 21164 21158 21235 21133 21104 21276 21509 21780 22038 22238 22277 21980 21496 21231 21331 21467 21560 21654 21782 21716 21575 21549 21571 21581 21491 21308 21147 20979 20828 20849 21027 21322 21761 22470 23207 23718 24111 24520 24846 25207 25490 25654 25857 26193 26729 27544 28338 29032 29483 29727 29837 29874 29893 29908 29993 30089 30129 30206 30300 30336 30015 29770 29660 29788 30118 30548 30996 31360 31548 31564 31416 31324 31246 31091 30950 30827 30500 30080 29779 29500 29191 28914 28653 28434 28057 27628 27725 28242 28625 28936 29157 29185 29009 29080 29103 29051 28984 28938 28915 28818 28441 28032 27762 27616 27515 27407 27302 27121 26722 26401 26276 26255 26304 26339 26353 26168 25774 25488 25309 25268 25319 25274 25168 24991 24548 24181 24022 23933 23922 23863 23643 23255 22630 22135 21881 21767 21758 21756 21758 21672 21297 21075 20977 20885 20697 20566 20632 20676 20530 20436 20455 20511 20552 20561 20570 20517 20180 19850 19680 19632 19643 19648 19640 19613 19464 19436 19492 19525 19526 19470 19374 19274 19177 19171 19304 19447 19558 19608 19603 19593 19465 19371 19355 19258 19261 19216 19184 19154 19008 18994 19125 19288 19413 19486 19451 19362 19066 18949 19054 19200 19393 19568 19626 19655 19554 19407 19367 19395 19426 19368 19217 19160 19049 18911 18878 18934 19071 19200 19330 19375 19326 19179 19062 18910 18945 19060 19227 19380 19446 19378 19330 19364 19413 19455 19472 19364 19114 18890 18767 18731 18763 18817 18913 19062 19183 19165 19137 19154 19186 19147 19020 19007 19120 19121 19139 19152 19200 19259 19286 19333 19335 19305 19113 18881 18795 18771 18758 18755 18759 18781 18812 18899 19017 19136 19013 19076 19258 19444 19469 19435 19420 19387 19241 19136 19086 19042 18860 18841 18826 18806 18702 18737 18987 19369 19752 20130 20472 20785 21037 21139 21216 21417 21728 22094 22435 22686 22869 23064 23321 23570 23846 24207 24230 24580 25072 25283 25436 25578 25609 25615 25665 25808 25934 25917 25921 25921 25936 26019 26053 26093 26161 26224 26117 26032 26029 26125 26296 26532 26729 26860 26816 26691 26524 26449 26468 26513 26461 26341 25942 25395 24963 24700 24427 24210 24084 24078 23842 23518 23365 23411 23546 23666 23727 23705 23478 23150 22940 22694 22404 22220 22197 22300 22485 22415 22424 22565 22858 23119 23323 23520 23673 23640 23471 23395 23435 23526 23699 23847 23995 24087 24004 23995 24030 24107 24238 24359 24468 24513 24335 24182 24138 24163 24284 24420 24567 24703 24638 24464 24431 24476 24502 24570 24694 24828 24873 24851 24798 24823 24938 25088 25231 25355 25354 25202 25078 25044 25099 25147 25217 25350 25418 25371 25321 25289 25272 25325 25374 25434 25512 25481 25505 25588 25808 25956 26063 26138 26112 25932 25716 25550 25385 25258 25120 24942 24663 24226 23835 23773 23933 24132 24125 23992 23858 23720 23486 23316 23261 23188 23068 22881 22673 22381 21960 21687 21574 21553 21564 21545 21497 21394 21008 20667 20478 20483 20656 20850 21065 21091 20860 20561 20415 20393 20424 20440 20310 20134 19885 19538 19358 19288 19287 19320 19372 19467 19439 19234 19076 19001 18920 18855 18952 19077 19190 19098 18989 19016 19044 19075 19071 19107 19060 18750 18477 18346 18302 18278 18261 18310 18422 18442 18444 18506 18587 18633 18604 18508 18454 18451 18418 18517 18653 18776 18860 18911 18903 18873 18695 18540 18370 18225 18202 18208 18173 18141 18093 18199 18364 18522 18630 18701 18698 18636 18409 18278 18383 18575 18800 18934 18913 18918 18890 18762 18681 18697 18642 18499 18355 18303 18253 18103 18022 18127 18322 18513 18681 18783 18820 18677 18525 18429 18366 18403 18550 18730 18926 18910 18778 18747 18769 18784 18804 18760 18628 18387 18139 18010 18002 18073 18173 18309 18474 18568 18551 18582 18686 18815 18965 19085 19196 19320 19367 19437 19631 19899 20190 20254 20330 20469 20499 20311 20029 19876 19867 20005 20347 20815 21047 21077 21146 21199 21255 21330 21376 21384 21439 21390 21248 21147 21115 21088 21103 21158 21234 21243 21027 20647 20274 20043 19990 19980 19969 19959 19882 19901 19959 20010 20006 19975 19873 19736 19587 19585 19753 20005 20177 20196 20202 20224 20148 19899 19756 19701 19544 19363 19300 19259 19167 18964 18892 18970 19124 19256 19385 19456 19453 19219 18957 18903 19027 19212 19456 19673 19722 19656 19511 19428 19443 19471 19454 19360 19157 19064 18886 18767 18740 18799 18952 19131 19293 19400 19354 19202 19099 18979 19022 19146 19269 19421 19514 19425 19382 19436 19493 19532 19561 19535 19349 19167 19017 18941 18897 18947 19067 19242 19379 19468 19426 19418 19428 19390 19277 19336 19454 19613 19694 19648 19610 19650 19708 19736 19745 19733 19639 19298 19040 18969 18977 18958 18983 19071 19198 19220 19257 19335 19352 19338 19315 19251 19343 19407 19455 19672 19746 19740 19729 19749 19704 19713 19539 19243 19018 18942 18911 18884 18912 18996 19006 19089 19216 19352 19449 19487 19441 19299 19280 19345 19565 19981 20145 20037 19943 19862 19762 19574 19458 19267 19041 18984 18972 18936 18956 18953 19020 19191 19376 19528 19645 19636 19587 19424 19346 19446 19646 19920 20054 19966 19891 19817 19651 19532 19500 19445 19310 19143 19099 19034 18891 18823 18925 19133 19310 19473 19563 19576 19469 19184 19107 19215 19378 19541 19710 19752 19820 19762 19616 19551 19522 19456 19264 19112 19049 18979 18846 18853 18994 19227 19432 19596 19758 19842 19688 19417 19259 19253 19317 19357 19384 19469 19577 19646 19786 19982 20147 20063 19717 19566 19507 19389 19412 19595 19837 20039 20120 19899 19634 19667 19708 19857 20177 20557 20866 21092 21231 21092 20584 20125 19943 19926 19987 20160 20333 20439 20308 19827 19667 19847 20060 20413 20912 21470 21957 22204 22088 21265 20649 20400 20272 20283 20389 20535 20490 20405 20219 20184 20316 20499 20728 21042 21299 21436 21576 21698 21596 21219 20863 20633 20452 20311 20359 20497 20610 20578 20394 20371 20542 20695 20815 20986 21277 21500 21620 21592 21221 20828 20409 20254 20299 20473 20753 21055 21183 20885 20343 20239 20357 20690 21180 21763 22337 22833 23014 22478 21608 20921 20479 20344 20406 20575 20852 21062 21474 22277 23030 23579 23904 24427 24998 25489 25925 26440 27028 27419 27699 27931 28161 28462 28867 29323 29646 29815 29951 29989 29919 29777 29648 29219 28801 28553 28341 28083 27675 27139 26480 25610 24510 23476 22549 21792 21192 20723 20484 20633 20965 21586 22202 22679 23036 23282 23540 23456 22918 22662 22751 22868 22815 22676 22503 22226 21769 21652 21871 22369 22980 23678 24283 24911 25420 25676 25854 26120 26333 26520 26669 26697 26544 26159 25751 25412 25027 24593 24190 23875 23613 23361 23327 23505 23753 24022 24085 23982 23702 23250 22937 22935 23142 23391 23680 23896 23834 23745 23552 23553 23716 23975 24325 24732 25061 25294 25058 24649 24360 24074 23963 23979 24097 24239 24116 23750 23339 23076 23004 23032 23129 23408 23724 23887 24031 24250 24332 24192 23962 23799 23628 23332 23178 23201 23209 23054 22827 22581 22507 22469 22531 22856 23370 23909 24409 24863 25084 24763 23917 22944 22450 22319 22436 22657 22838 22624 22223 21825 21752 21846 22095 22470 22842 23235 23414 23174 22730 22165 21900 21716 21590 21594 21741 21829 21767 21422 21081 20932 20950 21039 21266 21657 22131 22600 23173 23859 24079 24107 24242 24201 23899 23568 23295 23100 22908 22601 22148 21831 21586 21509 21804 22350 22893 23412 23787 24131 23809 23050 22438 22135 21978 22018 22184 22285 22112 21537 21041 20925 21128 21455 21960 22590 23215 23638 23940 24065 23755 23157 22636 22250 22078 21998 21898 21717 21394 21176 21136 21283 21644 22137 22495 22833 23220 23636 24033 23984 23597 22960 22243 21840 21750 21923 22191 22355 22264 22043 21648 21549 21688 22047 22545 23056 23533 23956 24263 24023 23061 22286 21908 21765 21829 22084 22287 22106 21632 21278 21146 21267 21540 21941 22432 22837 22994 23126 23181 22865 22299 21678 21373 21175 21125 21270 21526 21648 21409 21063 20891 20933 20941 21155 21611 22121 22573 22959 23212 23171 22434 21720 21458 21413 21554 21814 22087 22260 22072 21520 21163 21213 21419 21806 22329 22808 23171 23231 23215 23005 22543 22194 21931 21773 21819 21867 21904 21875 21660 21384 21251 21387 21665 21978 22287 22636 22978 23244 23548 23401 22909 22297 21840 21687 21843 22129 22293 22251 21972 21669 21444 21430 21652 22081 22597 23075 23477 23810 23855 23281 22608 22250 22112 22135 22333 22476 22511 22152 21719 21503 21612 21863 22214 22738 23277 23609 23701 23651 23593 23075 22664 22410 22242 22023 21945 22033 22103 21958 21662 21470 21550 21613 21700 22031 22554 23089 23594 24013 24164 23749 22636 21635 21340 21370 21636 21941 22209 22265 21917 21438 21370 21602 22068 22589 23017 23373 23659 23645 23286 22502 21952 21673 21599 21691 21932 21943 21854 21591 21253 20996 21156 21397 21771 22305 22696 22973 23279 23637 23554 23084 22591 22160 21696 21628 21833 22056 22156 22021 21714 21678 21702 21745 22009 22487 22950 23361 23596 23727 23425 22539 21961 21763 21738 21907 22142 22354 22318 21883 21449 21300 21386 21568 21855 22202 22595 22882 22929 22786 22299 21867 21662 21590 21638 21810 21868 21914 21861 21660 21489 21594 21845 22024 22233 22444 22718 23000 23278 23528 23680 23334 22708 21938 21617 21595 21768 22000 22165 22117 21768 21297 21201 21420 21730 22103 22483 22808 23103 23245 22754 21955 21609 21530 21551 21634 21816 22060 22135 21789 21492 21250 21298 21532 21959 22475 22938 23139 23203 23210 22925 22430 22121 21936 21814 21674 21668 21756 21888 21844 21666 21739 21954 22163 22274 22422 22698 22953 23290 23800 24211 23929 23402 22759 22388 22327 22544 22701 22730 22562 22218 21753 21648 21884 22246 22701 23197 23660 24093 24228 24011 23268 22689 22348 22177 22139 22301 22372 22163 21841 21480 21297 21407 21587 21992 22511 22847 23085 23336 23562 23610 23189 22717 22334 21861 21549 21527 21681 21850 21929 21706 21387 21224 21205 21359 21706 22229 22742 23183 23588 23919 23391 22492 21948 21727 21670 21804 22038 22191 22097 21587 21290 21228 21406 21683 22115 22591 23046 23257 23311 23392 23217 22642 22233 22020 21922 21797 21721 21752 21775 21619 21348 21309 21387 21491 21633 21942 22414 22871 23250 23563 23421 22892 22088 21584 21448 21584 21799 21958 22108 22068 21607 21296 21382 21673 22126 22633 23158 23571 23954 24115 23735 22903 22343 22034 21834 21859 22064 22131 21892 21646 21492 21422 21516 21717 22019 22321 22494 22699 22930 23184 23298 23175 22830 22452 22031 21862 21965 22174 22373 22407 22246 21993 21771 21790 22139 22805 23663 24572 25369 26124 26841 27326 27655 27960 28178 28371 28532 28715 28917 29083 29092 29266 29462 29686 29960 30228 30415 30617 30731 30786 30887 30970 31028 31069 31138 31198 31238 31330 31443 31536 31601 31688 31726 31783 31823 31860 31893 31922 31951 31976 31981 31990 31938 31639 31250 31205 31315 31475 31563 31625 31715 31787 31876 32000 32093 32121 32122 32141 32164 32169 32155 32049 31953 31935 31947 31961 31968 32075 32181 32310 32367 32413 32417 32406 32403 32409 32402 32327 32207 31993 31681 31409 31104 30813 30296 29617 29077 28761 28696 28796 28766 28719 28664 28360 28132 28068 28092 28160 28272 28388 28275 27511 26557 25834 25359 25106 25061 25048 24877 24473 23743 23115 22886 22992 23267 23601 23946 24216 24143 23806 23447 23163 22967 22838 22731 22702 22559 22316 22143 22002 21803 21601 21591 21734 21953 22105 22344 22685 23044 23432 23523 23151 22505 21711 21319 21255 21443 21685 21784 21785 21806 21535 21422 21561 21830 22177 22540 22916 23275 23507 23138 22494 22049 21754 21606 21615 21800 22003 21729 21441 21386 21311 21483 21758 22096 22460 22639 22729 22927 23146 23179 23006 22795 22552 22256 21987 22014 22194 22418 22377 22370 22193 22035 21967 22159 22536 23021 23483 23913 24301 24584 24235 23427 22845 22530 22412 22538 22812 23114 23042 22453 22073 21807 21816 22015 22327 22746 23107 23275 23421 23576 23556 23119 22646 22227 21929 21665 21719 21971 22164 22030 21747 21552 21532 21533 21647 21931 22362 22841 23235 23552 23752 23495 22570 21912 21600 21606 21787 21998 22190 22163 21559 21123 20913 21012 21210 21497 21903 22336 22477 22593 22791 22951 22773 22428 22104 21828 21503 21483 21724 21912 21925 21711 21466 21418 21426 21489 21749 22154 22553 22933 23267 23547 23565 22945 22157 21847 21751 21799 22040 22240 22291 21940 21762 21670 21581 21816 22132 22553 22994 23220 23346 23552 23610 23350 23008 22819 22579 22328 22296 22370 22418 22406 22281 22135 22018 22151 22288 22446 22681 22954 23216 23462 23636 23493 22776 22378 22266 22256 22389 22539 22745 22815 22440 22043 21910 21889 22001 22206 22606 23081 23436 23590 23710 23732 23440 22995 22549 22305 22038 21943 22113 22381 22573 22485 22204 22072 22060 22116 22312 22748 23249 23701 24129 24499 24926 24790 24043 23391 23017 22874 22906 23150 23379 23188 22903 22442 21859 21704 21827 22040 22442 22783 22992 23204 23279 22984 22487 22135 21896 21682 21596 21711 21874 21898 21695 21595 21489 21309 21256 21364 21614 21986 22415 22874 23256 23458 23156 22441 22087 21922 21881 21951 22112 22287 22292 22223 22162 22015 22123 22306 22624 23076 23562 23898 24242 24583 24818 24753 24338 23802 23041 22279 22177 22333 22525 22674 22588 22340 22174 22030 22067 22323 22774 23241 23672 24059 24321 24261 23604 22876 22487 22364 22360 22563 22934 23033 22791 22603 22347 22219 22317 22577 22936 23342 23587 23809 24051 24259 24260 23878 23363 22768 22374 22336 22547 22781 22972 23106 23199 22988 22529 22400 22586 22963 23392 23839 24227 24542 24581 24022 23123 22730 22554 22486 22586 22841 22989 22852 22542 22230 22052 22102 22285 22557 22833 23023 23244 23572 23966 24406 24700 24519 23931 22837 22193 22041 22161 22383 22554 22537 22310 22048 21896 22127 22544 23024 23450 23816 24123 24345 24257 23803 23189 22706 22443 22306 22418 22575 22705 22734 22429 22125 21917 21941 22103 22315 22496 22755 23111 23471 23814 24138 24290 23986 23211 22697 22524 22561 22747 23013 23256 23283 22857 22348 22131 22291 22575 22969 23420 23821 23998 23911 23691 23152 22679 22454 22345 22364 22441 22478 22627 22674 22549 22300 22157 22177 22357 22410 22538 22783 23104 23389 23685 23867 23841 23202 22746 22538 22486 22585 22651 22771 22966 22713 22298 21897 21871 22071 22464 23013 23581 24039 24222 24335 24275 23870 23471 23258 23147 23013 22872 22929 23155 23399 23350 23249 23214 23272 23347 23571 23951 24340 24677 24995 25265 25434 24967 23918 23102 22730 22647 22783 23086 23446 23614 23221 22875 22598 22657 22935 23361 23937 24374 24595 24927 25450 25733 25459 24973 24474 23867 23445 23490 23727 23928 23845 23572 23191 22959 22828 22958 23343 23839 24276 24608 24773 24890 24556 23537 22899 22664 22581 22651 22827 22992 22909 22499 22238 22078 22168 22411 22769 23207 23517 23620 23722 23925 24099 23889 23515 23166 22736 22404 22430 22696 23052 23286 23048 22676 22348 22132 22264 22601 23022 23463 23813 24094 24298 24011 23210 22749 22537 22452 22459 22548 22723 22805 22640 22343 22100 21930 22070 22294 22571 22816 22978 23252 23568 23815 23862 23540 23087 22700 22452 22456 22715 23090 23389 23429 23220 22815 22226 21953 22101 22420 22762 23191 23583 23868 23850 23660 23205 22756 22646 22620 22587 22625 22667 22799 23064 23296 23345 23273 23042 22777 22520 22363 22363 22499 22738 22967 23156 23267 23277 23140 22946 22696 22485 22378 22260 22147 21986 21791 21874 22116 22391 22611 22699 22644 22375 21872 21540 21537 21637 21795 22046 22319 22545 22558 22548 22546 22524 22457 22258 21984 21806 21567 21285 21142 21180 21351 21560 21751 21873 21802 21576 21371 21141 21077 21201 21344 21498 21652 21635 21645 21722 21809 21885 21930 21882 21686 21355 21152 21068 21000 20968 21032 21204 21401 21415 21431 21465 21495 21413 21226 21136 21232 21289 21264 21332 21452 21602 21735 21845 21872 21866 21667 21430 21172 21091 21085 21012 20928 20861 20814 20944 21172 21367 21489 21551 21514 21359 20959 20862 20983 21104 21224 21363 21515 21638 21540 21429 21438 21442 21323 21098 21056 21036 20837 20619 20582 20749 21007 21225 21373 21474 21452 21324 21171 20950 20968 21091 21142 21175 21242 21224 21291 21406 21521 21559 21581 21505 21254 20988 20863 20798 20757 20794 20911 21078 21200 21181 21174 21220 21299 21296 21208 21071 21119 21103 21028 21051 21185 21336 21490 21567 21602 21544 21299 20955 20857 20843 20899 20900 20917 20989 20980 21076 21202 21298 21376 21399 21380 21294 21113 21089 21167 21239 21342 21504 21644 21775 21789 21651 21526 21517 21319 21168 21143 21152 21079 20856 20854 21031 21242 21413 21545 21597 21601 21385 21167 21072 21203 21377 21490 21600 21697 21742 21686 21675 21714 21791 21840 21740 21566 21352 21128 21049 21035 21045 21146 21339 21546 21711 21706 21658 21670 21577 21361 21275 21334 21454 21441 21384 21456 21672 21863 21978 22016 21997 21988 21746 21391 21227 21194 21189 21126 21096 21176 21201 21242 21394 21555 21642 21690 21603 21403 21275 21191 21234 21375 21525 21642 21745 21774 21778 21669 21512 21468 21381 21196 21144 21122 21068 20944 20802 20884 21095 21295 21423 21461 21476 21439 21134 20811 20810 20959 21144 21255 21350 21420 21439 21348 21355 21410 21472 21480 21368 21195 21122 20960 20862 20835 20888 21032 21189 21339 21440 21384 21241 21149 21063 20961 21016 21217 21380 21472 21326 21271 21341 21445 21533 21563 21557 21463 21178 20977 20904 20913 20947 20967 21012 21153 21274 21292 21308 21353 21406 21447 21405 21268 21145 21098 21188 21299 21452 21565 21653 21705 21745 21678 21486 21406 21325 21136 21087 21073 21070 21029 20919 20960 21119 21329 21471 21548 21542 21519 21342 21146 21037 21111 21215 21328 21445 21520 21539 21458 21468 21536 21605 21624 21543 21370 21271 21070 20868 20793 20839 20999 21205 21385 21494 21427 21237 21138 21097 21044 21042 21161 21293 21350 21231 21192 21320 21496 21648 21685 21719 21733 21540 21086 20900 20852 20801 20807 20882 21022 21127 21090 21118 21190 21272 21270 21188 21065 21113 21126 21109 21191 21313 21422 21547 21616 21624 21567 21325 21090 20915 20794 20792 20848 20864 20902 20873 20930 21097 21242 21342 21389 21367 21300 21069 20840 20895 21064 21253 21392 21485 21552 21583 21490 21375 21352 21314 21170 21028 20998 20987 20878 20745 20831 21043 21260 21413 21493 21520 21462 21216 20935 20920 21042 21191 21325 21444 21538 21524 21382 21307 21326 21390 21412 21294 21139 21118 20964 20823 20806 20886 21052 21217 21332 21412 21386 21198 21086 20995 20933 21011 21163 21276 21350 21297 21240 21297 21384 21463 21520 21504 21350 21154 20958 20835 20834 20865 20946 21074 21213 21305 21244 21176 21167 21168 21103 20974 21027 21211 21310 21227 21167 21247 21354 21458 21518 21537 21528 21327 20933 20797 20786 20815 20829 20873 20990 21131 21121 21131 21184 21298 21351 21300 21170 21077 21076 21054 21074 21166 21274 21363 21420 21430 21430 21311 21102 20931 20814 20756 20784 20851 20891 20947 20919 20976 21081 21165 21228 21240 21217 21103 20895 20817 20896 21019 21177 21300 21377 21431 21454 21310 21180 21134 21076 20956 20904 20914 20922 20828 20780 20908 21088 21214 21309 21398 21437 21406 21185 20978 21038 21218 21362 21498 21672 21822 21882 21785 21684 21650 21592 21503 21441 21376 21344 21187 21071 21087 21217 21339 21420 21413 21356 21255 20967 20780 20859 21050 21199 21362 21464 21532 21582 21452 21345 21327 21336 21234 21083 21037 21015 20918 20737 20743 20916 21132 21286 21360 21351 21321 21077 20828 20681 20786 20978 21129 21245 21291 21311 21165 21094 21122 21193 21228 21132 20959 20960 20888 20671 20583 20674 20871 21071 21214 21286 21302 21198 20968 20737 20641 20787 20989 21082 21180 21241 21170 21151 21225 21273 21314 21315 21205 21011 20902 20710 20646 20641 20726 20913 21093 21268 21332 21267 21051 20849 20764 20700 20826 21041 21250 21350 21270 21124 21120 21205 21312 21362 21392 21363 21249 20936 20737 20671 20683 20709 20802 20930 21092 21153 21056 21009 21004 20956 20886 20808 20824 20999 21070 21022 21014 21108 21223 21335 21377 21394 21397 21175 20802 20627 20621 20666 20705 20758 20865 21003 20991 20997 21050 21116 21133 21061 20946 20873 20944 20942 20979 21097 21187 21319 21388 21429 21460 21436 21199 20922 20770 20727 20718 20709 20728 20791 20816 20836 20960 21080 21144 21183 21098 20973 20862 20794 20808 20873 21015 21151 21285 21391 21459 21510 21376 21216 21077 20929 20855 20813 20780 20744 20676 20646 20767 20946 21111 21212 21231 21155 21025 20765 20675 20774 20886 20987 21043 21122 21181 21261 21220 21112 21122 21050 20929 20763 20718 20737 20695 20483 20448 20624 20856 21023 21135 21181 21172 21016 20673 20494 20610 20793 20954 21060 21109 21167 21176 21009 20967 20990 20990 20902 20752 20712 20724 20564 20376 20390 20575 20795 20970 21059 21097 21071 20846 20540 20385 20472 20690 20897 21073 21152 21150 21040 20948 21013 21141 21225 21172 20968 20781 20691 20485 20355 20377 20484 20683 20862 20997 21030 20967 20723 20540 20423 20407 20549 20804 21041 21263 21303 21133 21095 21195 21317 21422 21445 21283 21024 20735 20505 20449 20470 20526 20646 20782 20903 21001 20904 20793 20746 20712 20632 20548 20645 20831 21000 21012 20948 21005 21107 21225 21368 21496 21478 21282 20812 20516 20506 20566 20596 20620 20692 20801 20855 20723 20685 20705 20706 20622 20480 20472 20665 20771 20747 20725 20769 20853 20952 21053 21121 21109 20972 20592 20350 20290 20314 20375 20394 20448 20533 20571 20526 20580 20657 20772 20811 20754 20635 20547 20547 20503 20557 20635 20763 20921 21030 21110 21138 21027 20781 20583 20460 20467 20489 20522 20535 20546 20517 20547 20675 20798 20885 20904 20827 20694 20544 20449 20513 20650 20853 20971 21044 21103 21140 21187 21065 20937 20830 20682 20553 20504 20497 20497 20474 20388 20498 20689 20836 20911 20943 20889 20795 20653 20385 20382 20565 20737 20896 20980 21048 21111 21159 21030 20958 20971 20923 20789 20624 20584 20568 20478 20279 20303 20512 20761 20929 21010 21010 20960 20775 20408 20273 20417 20626 20756 20792 20816 20862 20931 20831 20735 20752 20711 20595 20483 20482 20488 20428 20234 20249 20412 20627 20791 20876 20897 20826 20663 20306 20176 20336 20540 20694 20751 20780 20820 20849 20773 20714 20736 20702 20584 20454 20427 20429 20373 20200 20233 20417 20615 20770 20840 20825 20778 20637 20329 20199 20331 20523 20689 20790 20831 20873 20911 20804 20736 20752 20718 20594 20502 20506 20511 20404 20268 20325 20525 20699 20826 20880 20853 20756 20591 20266 20195 20374 20543 20736 20866 20955 21046 21099 20982 20850 20772 20656 20510 20493 20516 20481 20397 20227 20250 20445 20663 20805 20891 20906 20860 20735 20441 20345 20487 20607 20743 20843 20919 20999 21069 21029 20870 20753 20637 20497 20418 20407 20431 20419 20322 20316 20485 20648 20797 20825 20819 20728 20599 20378 20312 20429 20590 20748 20817 20900 21008 21094 21097 20922 20722 20524 20368 20342 20359 20349 20364 20373 20370 20499 20661 20776 20847 20836 20749 20626 20474 20383 20447 20562 20665 20774 20887 20980 21028 21058 20898 20717 20519 20336 20311 20319 20305 20343 20418 20446 20518 20660 20768 20795 20754 20650 20509 20475 20494 20503 20565 20666 20787 20913 21030 21116 21140 20967 20696 20452 20334 20346 20375 20378 20425 20526 20576 20618 20728 20806 20819 20730 20628 20489 20566 20592 20562 20644 20741 20871 20992 21095 21116 21103 20945 20604 20391 20378 20383 20371 20392 20465 20616 20671 20676 20706 20766 20765 20703 20586 20506 20616 20642 20593 20629 20721 20845 20950 21034 21135 21202 21049 20601 20322 20252 20273 20306 20324 20413 20567 20631 20601 20643 20699 20710 20633 20489 20386 20518 20593 20561 20571 20610 20737 20830 20942 20965 20984 20857 20530 20245 20112 20137 20158 20169 20186 20298 20351 20410 20523 20632 20681 20584 20425 20284 20307 20337 20310 20347 20433 20541 20662 20825 20968 21034 20882 20513 20222 20066 20086 20135 20117 20134 20242 20271 20377 20485 20596 20608 20524 20380 20230 20273 20271 20250 20352 20461 20585 20694 20762 20776 20740 20538 20309 20141 20019 20025 20008 19975 20006 20097 20152 20303 20463 20603 20688 20599 20410 20248 20192 20188 20246 20373 20490 20582 20672 20713 20766 20713 20533 20400 20306 20184 20126 20131 20160 20166 20080 20137 20281 20457 20581 20594 20565 20466 20304 20071 20001 20175 20412 20628 20772 20814 20858 20901 20784 20597 20544 20460 20346 20256 20232 20212 20137 19955 19978 20169 20400 20574 20674 20686 20618 20412 20018 19888 20040 20225 20394 20488 20557 20617 20665 20542 20448 20439 20433 20351 20244 20174 20147 20109 19925 19906 20073 20263 20438 20523 20517 20478 20375 20109 19897 19830 19963 20147 20277 20377 20467 20529 20420 20333 20313 20359 20318 20229 20112 20085 20020 19865 19817 19908 20092 20275 20385 20434 20455 20442 20221 19947 19860 20023 20244 20429 20547 20617 20706 20694 20578 20532 20537 20491 20335 20254 20243 20286 20173 20025 20036 20196 20389 20516 20602 20599 20556 20397 20089 19993 20137 20359 20532 20668 20734 20770 20824 20780 20778 20844 20849 20661 20413 20364 20356 20335 20160 20090 20202 20426 20601 20707 20732 20657 20479 20130 20019 20184 20394 20571 20704 20783 20877 20978 20987 20884 20787 20620 20463 20366 20389 20360 20315 20275 20162 20220 20353 20494 20566 20590 20530 20392 20197 20114 20171 20284 20391 20469 20554 20668 20775 20825 20674 20475 20320 20160 20119 20145 20172 20171 20170 20126 20135 20248 20382 20461 20465 20402 20310 20163 20157 20170 20259 20411 20538 20619 20744 20832 20914 21011 20900 20627 20263 20123 20059 20073 20050 20046 20106 20086 20138 20248 20370 20441 20431 20347 20248 20296 20295 20298 20335 20452 20647 20852 20929 20932 20884 20720 20261 20088 20125 20135 20066 20027 20070 20185 20300 20294 20340 20421 20460 20429 20321 20277 20337 20452 20387 20330 20394 20550 20721 20791 20830 20788 20650 20318 20091 20046 20073 20076 20073 20128 20255 20412 20449 20360 20350 20351 20288 20141 20125 20238 20376 20452 20363 20379 20504 20629 20734 20789 20810 20719 20433 20213 20028 19969 19949 19960 20068 20234 20382 20500 20469 20340 20284 20235 20160 20118 20224 20363 20481 20532 20430 20470 20620 20713 20762 20758 20702 20485 20298 20089 19939 19892 19903 20014 20182 20362 20496 20541 20409 20177 20035 19892 19971 20168 20372 20518 20569 20527 20407 20409 20510 20611 20693 20615 20414 20233 20126 19914 19818 19830 19927 20133 20319 20464 20534 20480 20200 19986 19869 19881 20064 20252 20372 20433 20482 20498 20446 20471 20514 20514 20393 20191 20121 20078 19995 19759 19752 19894 20115 20327 20449 20497 20450 20319 20044 19811 19847 20049 20251 20396 20466 20507 20590 20559 20504 20509 20498 20409 20189 20104 20083 20036 19850 19736 19849 20062 20273 20400 20445 20414 20290 20036 19776 19828 20047 20227 20364 20456 20544 20712 20868 20776 20632 20490 20253 20040 20011 20012 19987 19883 19799 19885 20073 20245 20364 20375 20339 20209 20039 19837 19844 20016 20197 20407 20565 20694 20804 20854 20732 20576 20467 20295 20074 19963 19950 19955 19928 19805 19814 20009 20205 20344 20373 20343 20190 20049 19880 19841 19969 20150 20390 20579 20696 20777 20821 20762 20598 20401 20163 20057 20068 20111 20110 20107 20067 20076 20191 20287 20314 20291 20216 20113 19998 19918 19914 19999 20183 20381 20546 20690 20781 20845 20862 20636 20256 20000 19946 19928 19882 19830 19818 19907 19913 20008 20155 20259 20243 20147 19904 19902 20013 20043 20057 20144 20269 20407 20623 20776 20908 20934 20625 20038 19772 19744 19801 19855 19913 20008 20133 20211 20168 20107 20090 20025 19928 19805 19839 20000 20148 20206 20257 20335 20483 20620 20756 20827 20843 20594 20133 19869 19821 19845 19849 19928 20054 20213 20332 20277 20126 20035 19971 19872 19824 19979 20190 20440 20595 20486 20443 20557 20707 20822 20879 20779 20520 20240 19932 19728 19629 19638 19742 19948 20128 20311 20376 20197 20004 19895 19830 19850 19987 20147 20266 20387 20391 20414 20542 20634 20645 20539 20302 20063 19925 19734 19519 19455 19556 19759 19996 20187 20302 20346 20235 19915 19615 19599 19774 19923 20040 20106 20177 20296 20230 20147 20127 20145 20066 19919 19760 19717 19711 19530 19425 19523 19743 19985 20170 20244 20179 20036 19791 19545 19531 19703 19905 20099 20200 20284 20390 20487 20402 20280 20211 20044 19820 19738 19700 19654 19589 19475 19570 19796 20024 20172 20194 20135 19999 19851 19689 19625 19723 19832 19978 20096 20228 20366 20478 20492 20310 20107 19901 19738 19679 19643 19616 19627 19649 19684 19847 20049 20163 20171 20086 19959 19830 19802 19805 19863 19969 20083 20171 20297 20366 20420 20400 20325 19987 19686 19571 19528 19528 19530 19587 19704 19857 19864 19917 19946 19948 19870 19778 19670 19689 19851 19865 19870 19927 20030 20146 20254 20328 20352 20287 19993 19588 19404 19367 19384 19416 19478 19649 19852 20002 19971 19911 19905 19848 19729 19606 19679 19873 20086 20188 20145 20188 20316 20393 20470 20528 20488 20269 19922 19615 19512 19532 19571 19644 19790 19969 20143 20256 20144 19941 19779 19682 19607 19715 19934 20098 20219 20168 20031 20024 20074 20119 20146 20128 19993 19877 19814 19615 19452 19414 19543 19755 19964 20107 20186 20188 19993 19683 19498 19490 19661 19855 20008 20149 20198 20236 20158 20095 20083 20063 19977 19809 19702 19670 19645 19436 19380 19518 19736 19940 20076 20114 20096 20023 19768 19476 19456 19652 19813 19955 20017 20078 20199 20276 20183 20025 19974 19913 19774 19621 19596 19579 19548 19411 19379 19569 19815 20006 20107 20139 20097 19953 19714 19488 19546 19696 19824 19939 20020 20089 20172 20238 20158 20015 19908 19767 19603 19576 19562 19541 19546 19536 19575 19735 19962 20080 20135 20076 19886 19721 19648 19647 19674 19758 19858 19946 20048 20164 20252 20296 20193 19930 19700 19558 19535 19567 19572 19596 19675 19794 19825 19875 19926 19979 19966 19866 19724 19668 19796 19882 19862 19914 20010 20154 20276 20340 20355 20353 20241 19851 19585 19514 19546 19566 19598 19689 19882 20077 20127 20019 19934 19860 19747 19628 19667 19862 20009 20148 20062 19995 20059 20151 20234 20275 20277 20165 19914 19723 19561 19539 19553 19605 19753 19969 20161 20295 20300 20057 19826 19706 19624 19701 19908 20132 20251 20265 20166 20121 20206 20352 20513 20677 20571 20304 20036 19876 19693 19610 19636 19805 20013 20198 20332 20312 20243 19907 19599 19458 19580 19842 20036 20188 20250 20273 20288 20205 20242 20300 20268 20108 19903 19848 19827 19731 19520 19511 19692 19928 20147 20308 20310 20223 20050 19762 19601 19724 19913 20112 20279 20352 20438 20537 20528 20385 20248 20144 19989 19846 19854 19870 19820 19706 19618 19728 19927 20099 20170 20144 20045 19912 19771 19613 19656 19793 19951 20056 20141 20250 20332 20417 20349 20117 19933 19760 19633 19630 19664 19678 19691 19733 19740 19858 19998 20087 20099 19992 19860 19724 19723 19756 19762 19833 19937 20071 20236 20399 20476 20464 20347 19977 19649 19589 19599 19616 19588 19612 19732 19914 19956 19955 20006 20005 19944 19816 19710 19757 19910 19972 19928 19919 20025 20202 20351 20436 20521 20508 20284 19863 19574 19526 19576 19596 19642 19749 19899 20031 20099 20000 19923 19864 19795 19674 19711 19864 19974 20067 20062 20046 20101 20209 20270 20277 20268 20143 19932 19833 19705 19627 19618 19672 19808 19980 20139 20215 20239 20120 19925 19767 19597 19684 19843 20003 20120 20211 20273 20204 20200 20267 20326 20335 20228 19995 19889 19869 19774 19608 19584 19707 19915 20128 20244 20287 20255 20097 19740 19594 19636 19820 19982 20107 20176 20239 20393 20438 20368 20339 20322 20207 19992 19883 19879 19876 19776 19611 19619 19794 20002 20151 20218 20199 20120 19990 19745 19643 19786 19989 20197 20369 20475 20554 20621 20672 20582 20418 20175 20002 19912 19937 19933 19894 19842 19796 19799 19897 20010 20088 20108 20088 19992 19838 19865 19907 19940 20046 20185 20313 20453 20597 20652 20684 20593 20206 19850 19779 19804 19799 19773 19793 19902 20092 20156 20166 20183 20204 20128 19979 19885 19962 20107 20182 20141 20130 20224 20323 20407 20459 20468 20392 20216 19937 19785 19756 19763 19784 19844 20007 20182 20317 20375 20204 19991 19859 19779 19734 19877 20049 20229 20415 20440 20281 20249 20338 20484 20615 20558 20328 20173 20106 19905 19753 19724 19826 20035 20222 20352 20388 20366 20176 19876 19686 19696 19842 19982 20092 20168 20247 20303 20258 20194 20169 20123 20007 19882 19883 19893 19863 19732 19610 19700 19900 20073 20190 20189 20175 20133 19988 19715 19637 19745 19871 19987 20103 20249 20360 20470 20417 20278 20155 19961 19864 19880 19921 19898 19836 19795 19742 19825 20003 20116 20158 20120 20014 19822 19798 19808 19849 19905 19999 20065 20166 20254 20325 20375 20323 20074 19770 19668 19692 19724 19713 19681 19775 19908 19942 19982 20032 20084 20082 19976 19856 19783 19865 19954 19906 19939 20046 20164 20253 20326 20403 20455 20453 20143 19756 19665 19684 19706 19715 19758 19898 20056 20105 20034 20004 19972 19898 19758 19662 19812 20043 20259 20275 20141 20130 20181 20262 20359 20434 20410 20217 19935 19698 19626 19643 19673 19729 19834 19998 20102 20156 20035 19861 19735 19566 19561 19709 19882 20039 20150 20166 20118 20125 20213 20274 20273 20178 19953 19880 19839 19757 19629 19647 19818 19995 20159 20228 20240 20186 20078 19833 19621 19588 19736 19893 20041 20157 20280 20374 20336 20201 20142 20133 20073 19879 19880 19886 19883 19834 19713 19762 19966 20208 20331 20340 20267 20085 19899 19805 19812 19937 20091 20262 20396 20511 20580 20605 20560 20368 20098 19925 19840 19801 19808 19815 19851 19956 20067 20060 20103 20124 20158 20107 19977 19827 19928 20098 20127 20096 20128 20259 20410 20488 20504 20447 20303 20123 19888 19776 19727 19726 19759 19854 20027 20185 20301 20247 20062 19965 19912 19881 19825 19885 20025 20133 20216 20172 20165 20269 20366 20403 20416 20322 20098 19973 19912 19761 19636 19642 19806 20035 20261 20402 20420 20358 20125 19806 19682 19716 19903 20096 20272 20430 20505 20563 20465 20384 20401 20424 20313 20070 19953 19937 19975 19838 19672 19722 19900 20122 20281 20360 20345 20254 20108 19860 19743 19864 20050 20194 20311 20412 20491 20555 20587 20455 20313 20159 19957 19876 19910 19956 19930 19865 19751 19759 19929 20086 20177 20183 20083 19916 19799 19797 19855 19926 20057 20121 20168 20235 20296 20353 20399 20367 20117 19842 19678 19665 19703 19708 19692 19742 19853 19863 19900 19935 19975 19946 19840 19718 19671 19789 19898 19904 19883 19921 20025 20109 20185 20222 20220 20148 19915 19590 19465 19470 19507 19517 19581 19719 19904 20095 20131 20096 20110 20110 20166 20239 20445 20771 21044 21407 21650 21715 21666 21645 21488 21315 21145 21028 20823 20598 20403 20314 20362 20448 20618 20763 20858 20986 21148 21354 21747 22136 22042 22415 23279 23835 24276 24512 24509 24272 24039 23934 23945 23771 23431 23071 22665 22372 22180 21948 21877 21998 22293 22628 23004 23172 23081 22826 22414 21808 21438 21389 21517 21680 21900 22173 22407 22590 22549 22414 22422 22495 22572 22559 22512 22526 22524 22519 22349 22324 22418 22606 22768 22875 22934 22952 22831 22571 22282 22113 22120 22255 22479 22696 22885 23064 23202 23152 22931 22754 22662 22632 22698 22744 22703 22585 22520 22429 22495 22731 23047 23444 23701 23724 23581 23361 22923 22447 22275 22438 22796 23135 23510 23954 24401 24754 25001 25138 25258 25436 25613 25820 26044 26176 26214 26434 26584 26581 26658 26712 26728 26750 26796 26841 26883 26791 26576 26466 26434 26462 26563 26648 26715 26734 26759 26652 26450 26316 26261 26290 26380 26468 26588 26582 26543 26279 26003 25823 25720 25658 25647 25697 25718 25743 25674 25378 25110 24849 24461 23981 23549 23165 22865 22694 22438 22178 21997 21813 21565 21222 20881 20619 20530 20511 20310 20152 20117 20149 20251 20342 20382 20384 20287 19925 19555 19387 19315 19200 19097 19089 19145 19200 19187 18899 18579 18280 18063 17947 18017 18163 18292 18429 18446 18321 18344 18433 18526 18589 18476 18231 18031 17918 17724 17535 17469 17566 17755 17945 18103 18115 18050 17816 17447 17249 17336 17601 17867 18166 18359 18467 18577 18589 18463 18397 18289 18055 17828 17740 17743 17704 17577 17461 17544 17759 17969 18100 18105 17998 17837 17636 17521 17666 17904 18221 18557 18714 18838 18935 19039 19229 19259 18866 18307 17862 17646 17625 17569 17554 17632 17718 17797 17936 18087 18158 18085 17902 17698 17706 17848 17922 18107 18333 18437 18526 18594 18664 18760 18830 18652 18116 17702 17585 17589 17536 17689 18062 18634 19196 19663 19903 19912 19504 19002 18549 18421 18485 18602 18788 18737 18625 18669 18780 18938 19094 19083 18829 18496 18054 17801 17693 17674 17736 17917 18131 18286 18370 18364 18098 17787 17617 17561 17740 18000 18333 18744 18888 18836 18686 18622 18709 18812 18752 18505 18222 18070 17995 17760 17624 17743 17965 18179 18365 18441 18434 18366 18123 17782 17739 17988 18291 18608 18931 19025 19070 19103 19129 19095 19104 18902 18614 18310 18117 18049 18018 17962 17909 18032 18271 18508 18641 18679 18556 18340 18141 18039 18105 18253 18484 18733 18870 18976 19099 19240 19384 19308 18893 18451 18243 18146 18039 17998 18076 18243 18374 18413 18465 18503 18477 18358 18197 18279 18513 18832 19127 19239 19247 19329 19377 19461 19537 19546 19359 19048 18596 18386 18372 18360 18369 18470 18642 18820 18930 18871 18645 18458 18310 18213 18384 18744 19174 19642 19899 19717 19488 19402 19486 19665 19728 19532 19242 18917 18673 18468 18369 18424 18605 18830 19046 19137 19130 19034 18729 18347 18178 18342 18648 18983 19375 19597 19698 19759 19651 19478 19454 19391 19150 18865 18659 18631 18627 18523 18437 18572 18842 19142 19344 19376 19230 18980 18686 18454 18475 18698 18985 19341 19540 19591 19609 19635 19659 19550 19356 19075 18826 18793 18884 18924 18872 18855 18836 18834 18944 19043 19087 19070 18920 18743 18696 18842 18973 19113 19310 19426 19508 19575 19678 19764 19833 19809 19336 18842 18727 18748 18777 18778 18854 19044 19207 19276 19173 19071 18976 18876 18756 18719 18904 19202 19542 19708 19543 19473 19501 19560 19649 19711 19615 19375 19120 18881 18797 18795 18821 18881 19026 19212 19392 19512 19468 19242 18985 18834 18716 18864 19126 19382 19645 19723 19628 19464 19466 19532 19658 19710 19528 19272 19143 19077 18887 18752 18800 18996 19227 19425 19525 19524 19447 19227 18906 18729 18830 19114 19405 19632 19731 19748 19779 19683 19595 19654 19714 19576 19332 19154 19105 19126 19061 18880 18897 19086 19315 19462 19522 19512 19411 19256 19012 18887 19071 19361 19683 19906 19872 19846 19867 19940 19955 19897 19746 19493 19230 19142 19172 19199 19219 19217 19185 19289 19465 19591 19616 19577 19436 19268 19134 19189 19300 19472 19686 19795 19865 19934 20012 20132 20321 20304 19945 19573 19357 19298 19290 19266 19291 19432 19571 19631 19691 19702 19684 19544 19349 19260 19418 19661 19776 19773 19728 19770 19792 19840 19836 19891 19844 19706 19449 19259 19194 19218 19247 19370 19585 19800 19970 19916 19701 19538 19339 19179 19127 19339 19645 19946 20161 20033 19841 19883 20020 20191 20277 20218 19995 19759 19576 19398 19313 19306 19394 19559 19747 19905 19991 19970 19717 19417 19219 19174 19380 19661 19893 20122 20168 20114 20007 20066 20214 20425 20465 20234 19901 19677 19484 19237 19187 19326 19591 19844 20042 20153 20159 20012 19696 19351 19351 19616 19926 20327 20781 21216 21574 21833 21811 21506 21041 20656 20214 19893 19835 19806 19702 19573 19584 19728 19866 19907 19876 19786 19645 19502 19494 19525 19593 19736 19950 20174 20398 20590 20691 20782 20642 20123 19573 19251 19217 19264 19343 19448 19598 19756 19810 19848 19890 19878 19776 19659 19474 19562 19829 20105 20317 20479 20484 20511 20535 20514 20471 20285 20074 19757 19616 19702 19791 19823 19864 19932 20026 20107 20036 19849 19680 19526 19359 19471 19722 19971 20308 20508 20369 20246 20263 20333 20408 20372 20155 19936 19825 19694 19478 19417 19512 19701 19957 20155 20271 20274 20166 19836 19499 19404 19612 19868 20140 20393 20510 20595 20651 20569 20518 20522 20366 20081 19845 19834 19876 19871 19707 19692 19867 20109 20310 20349 20264 20078 19853 19701 19636 19751 19932 20188 20350 20436 20520 20598 20667 20643 20373 20003 19784 19753 19779 19755 19728 19806 19972 20056 20109 20160 20159 20085 19957 19774 19801 20026 20177 20203 20131 20142 20274 20419 20564 20623 20516 20296 20037 19792 19640 19570 19602 19769 19961 20148 20253 20293 20146 19886 19644 19497 19667 19940 20189 20394 20476 20514 20460 20407 20464 20470 20335 20086 19935 19929 19939 19842 19631 19635 19823 20077 20272 20352 20309 20177 19988 19690 19558 19727 19937 20152 20358 20498 20597 20688 20801 20818 20630 20225 19850 19696 19722 19773 19753 19753 19850 19872 19982 20099 20202 20198 20104 19986 19857 19974 20195 20263 20347 20384 20428 20527 20607 20676 20739 20738 20417 19890 19705 19724 19805 19808 19866 20018 20231 20373 20318 20174 20081 19933 19780 19633 19705 19970 20211 20422 20371 20291 20405 20585 20742 20779 20606 20331 20020 19898 19769 19627 19572 19675 19873 20085 20273 20348 20320 20104 19755 19507 19533 19761 20014 20234 20399 20462 20561 20543 20460 20439 20457 20270 19961 19739 19694 19712 19715 19623 19664 19863 20056 20203 20200 20109 19922 19745 19636 19671 19832 20118 20430 20550 20592 20693 20780 20852 20812 20439 19913 19621 19596 19704 19782 19793 19860 20021 20140 20115 20090 20064 20028 19902 19738 19733 19918 20185 20386 20400 20381 20453 20569 20682 20748 20694 20472 20230 19940 19744 19730 19761 19813 19941 20139 20324 20425 20407 20215 19943 19787 19681 19631 19762 19992 20181 20297 20390 20397 20401 20499 20536 20455 20298 20194 20179 20201 20118 19851 19764 19885 20051 20237 20344 20338 20256 20124 19855 19534 19604 19831 20100 20369 20600 20674 20764 20759 20676 20378 20118 19917 19871 19872 19849 19803 19827 19921 19968 19941 19998 20038 20044 19990 19870 19742 19848 20104 20181 20176 20179 20276 20508 20748 20896 20871 20640 20329 20051 19828 19703 19662 19731 19887 20079 20223 20319 20376 20238 20051 19878 19738 19815 20003 20133 20181 20274 20423 20464 20457 20444 20358 20227 20107 19985 19906 19854 19771 19635 19680 19880 20129 20348 20470 20548 20499 20343 20091 19909 19947 20044 20136 20303 20487 20672 20783 20800 20668 20305 19958 19779 19786 19888 19873 19883 20006 20203 20316 20297 20336 20396 20440 20430 20338 20205 20289 20414 20419 20448 20562 20721 20846 20870 20839 20744 20533 20284 19991 19803 19732 19735 19827 20028 20253 20431 20532 20527 20360 20058 19832 19819 20043 20203 20240 20297 20384 20543 20542 20455 20381 20284 20174 19994 19837 19800 19791 19681 19523 19608 19853 20095 20223 20263 20231 20138 20037 19935 19930 20013 20110 20223 20349 20491 20646 20775 20811 20777 20556 20213 19939 19813 19791 19740 19696 19782 19955 20173 20235 20233 20248 20239 20210 20187 20162 20233 20373 20430 20336 20259 20283 20419 20528 20559 20551 20472 20319 20097 19791 19605 19553 19560 19669 19844 20042 20177 20224 20157 19947 19719 19615 19762 19946 20055 20153 20201 20259 20249 20144 20123 20155 20175 20146 20056 19938 19912 19964 19944 19936 20078 20274 20470 20561 20566 20483 20308 20132 20023 20035 20125 20275 20442 20600 20731 20830 20898 20922 20795 20499 20250 20097 20082 20181 20295 20324 20393 20518 20529 20536 20616 20687 20720 20660 20541 20384 20402 20529 20539 20563 20673 20855 21024 21156 21222 21201 21078 20848 20521 20314 20308 20386 20476 20559 20697 20856 20967 21070 21009 20862 20725 20615 20493 20480 20571 20635 20699 20775 20753 20693 20733 20778 20773 20700 20548 20384 20309 20287 20086 19917 19891 20030 20162 20258 20273 20239 20206 20115 19819 19563 19455 19551 19749 19910 20014 20120 20234 20279 20097 19904 19878 19862 19783 19677 19562 19533 19558 19514 19330 19313 19460 19580 19656 19657 19621 19582 19519 19384 19158 19206 19349 19455 19585 19717 19815 19858 19866 19823 19666 19536 19480 19390 19263 19153 19157 19232 19247 19195 19134 19198 19313 19394 19453 19482 19479 19435 19402 19246 19014 19025 19197 19398 19523 19610 19667 19693 19733 19702 19612 19620 19684 19739 19786 19776 19692 19517 19426 19271 19144 19095 19121 19224 19335 19387 19373 19355 19358 19268 19191 19256 19371 19509 19652 19757 19778 19724 19611 19348 19177 19207 19306 19362 19369 19416 19448 19470 19530 19444 19335 19374 19480 19556 19523 19506 19583 19687 19770 19719 19582 19537 19603 19701 19777 19794 19759 19650 19435 19294 19175 19154 19203 19355 19548 19668 19728 19686 19621 19449 19214 19068 19108 19350 19600 19756 19829 19867 19947 19967 19881 19804 19789 19689 19513 19425 19375 19353 19327 19284 19330 19513 19676 19749 19785 19736 19659 19529 19455 19504 19526 19567 19686 19819 19965 20097 20155 20175 20132 19933 19621 19373 19325 19365 19401 19477 19617 19801 19944 19935 19836 19794 19767 19715 19601 19632 19799 19937 20043 20158 20147 20186 20210 20208 20133 20016 19802 19734 19661 19420 19238 19339 19574 19821 20018 20117 20143 20082 19898 19536 19390 19517 19693 19860 19987 20165 20401 20639 20822 20875 20866 20902 20835 20551 20388 20508 20836 21137 21299 21087 20769 20700 20753 20733 20643 20564 20429 20330 20329 20328 20405 20653 20986 21448 22026 22639 23061 23210 23096 22684 22051 21600 21454 21439 21490 21613 21760 21899 21988 21888 21697 21562 21454 21280 21270 21363 21512 21755 21974 21989 22166 22480 22724 22732 22469 22235 22054 21988 21924 21681 21496 21542 21677 21809 21929 22080 22158 22065 21828 21369 21043 20949 21010 21212 21416 21559 21726 21951 22211 22179 21992 21780 21640 21564 21623 21662 21747 21897 22060 22078 22130 22278 22492 22652 22763 22788 22776 22807 22776 22576 22251 22232 22445 22943 23484 23847 23968 23877 23677 23348 22974 22710 22679 22786 22891 23013 23170 23317 23392 23260 22877 22641 22641 22683 22806 22980 23169 23365 23571 23648 23619 23569 23544 23519 23465 23487 23493 23497 23530 23441 23325 23335 23436 23586 23722 23769 23672 23632 23571 23394 23275 23315 23415 23522 23582 23484 23394 23401 23458 23481 23622 23852 24110 24543 25053 25488 25890 26345 26703 26902 26821 26825 26789 26824 26858 26968 27137 27279 27429 27483 27404 27380 27430 27464 27592 27720 27824 27938 28038 27965 27821 27727 27734 27810 27871 27884 27855 27797 27792 27611 27342 27149 27060 27036 27079 27186 27356 27527 27716 27587 27248 26999 26850 26792 26791 26805 26833 26917 27049 27076 27010 27110 27362 27643 27862 27908 27881 27727 27484 27053 26744 26680 26789 27021 27179 27099 26898 26578 25980 25255 24647 24106 23774 23541 23301 23042 22792 22558 22144 21628 21255 21101 21162 21492 21899 22259 22715 23262 23064 22177 21373 21066 21011 21287 21774 22095 22085 21740 20747 20084 19939 20136 20588 21182 21706 22111 22470 22365 21344 20487 20194 20158 20326 20498 20580 20425 20170 19742 19560 19707 19905 20195 20580 20957 21244 21413 21287 20473 19843 19630 19659 19953 20445 20716 20647 20423 19968 19683 19810 20191 20626 21003 21341 21618 21844 21851 21180 20363 20000 19903 19921 20099 20273 20284 20262 20316 20474 21283 22443 23339 23969 24523 25178 25739 26263 26686 27028 27423 27866 28416 28876 29218 29454 29590 29653 29689 29738 29790 29775 29789 29813 29890 29980 30054 30094 30001 29867 29891 29908 30020 30207 30435 30565 30607 30720 30602 30455 30087 29876 29752 29651 29513 29283 29052 28588 28061 27587 27098 26683 26409 26258 26159 25920 25385 24849 24784 25193 25612 25728 25785 26033 26357 26256 25870 25493 25192 24923 24642 24443 24150 23809 23314 22770 22384 22350 22590 22902 23274 23620 23903 24084 23895 23511 22997 22637 22393 22282 22284 22406 22330 21904 21510 21209 21106 21237 21524 21888 22291 22627 22759 22570 22049 21592 21350 21249 21256 21375 21451 21301 20951 20722 20601 20590 20732 20996 21297 21645 21969 22081 22087 21867 21506 21267 21143 21131 21151 21184 21032 20797 20611 20568 20547 20689 20966 21270 21614 21940 22083 22188 22237 21935 21590 21424 21328 21263 21200 21174 21130 21008 20844 20768 20779 20964 21212 21469 21719 22017 22359 22640 22619 22209 21858 21673 21463 21250 21198 21248 21215 21085 21014 21008 21074 21315 21450 21625 21892 22222 22575 22854 22885 22599 22132 21645 21380 21285 21335 21456 21477 21405 21307 21195 21082 21164 21373 21791 22377 22962 23461 23866 24245 24341 23835 23006 22539 22302 22216 22253 22183 22079 21906 21516 21193 21211 21354 21587 21992 22513 22989 23342 23426 23121 22434 21936 21754 21681 21695 21779 21796 21544 21289 21162 21209 21398 21693 22063 22453 22835 23076 23162 23235 23114 22629 22182 21918 21798 21827 21792 21706 21545 21386 21259 21189 21197 21388 21699 22097 22409 22704 23018 23276 23308 22986 22520 22237 21965 21761 21778 21819 21763 21637 21421 21334 21429 21652 21836 22092 22418 22766 23024 23167 23081 22787 22376 22046 21911 21949 22029 22032 21874 21713 21648 21668 21763 21902 22145 22501 22923 23388 23842 24185 24408 23832 22878 22432 22293 22343 22540 22692 22676 22535 22212 21882 21847 21979 22352 22825 23299 23696 24025 24091 23684 22803 22361 22169 22117 22224 22353 22325 22008 21527 21281 21438 21721 22152 22607 23030 23423 23693 23632 23071 22477 22240 22091 22017 21989 21948 21988 21838 21595 21328 21325 21580 21856 22222 22682 23136 23411 23435 23133 22448 21856 21664 21625 21615 21693 21689 21519 21327 21231 21138 21256 21492 21794 22151 22533 22791 22983 23152 23196 22932 22563 22349 22201 22021 21926 21957 21987 21880 21654 21547 21616 21850 22188 22649 23156 23599 23954 24251 24309 23963 23483 22919 22458 22307 22260 22234 22208 22070 21824 21659 21671 21752 21912 22237 22621 23020 23394 23617 23585 23226 22603 22217 22112 22176 22308 22356 22344 22191 22002 21791 21867 22301 22931 23514 23941 24282 24483 24519 24439 23615 22635 22269 22198 22230 22390 22466 22449 22174 21588 21284 21353 21666 22109 22568 22962 23270 23413 23149 22364 21800 21669 21689 21802 22051 22207 22180 21786 21390 21223 21393 21649 21979 22400 22819 23116 23160 22794 22277 21913 21821 21850 21957 22185 22374 22276 21931 21769 21652 