31848 31848 31878 31872 31889 31910 31901 31905 31876 31778 31705 31663 31632 31592 31547 31505 31478 31507 31478 31455 29350 29299 29281 29263 29213 29228 29215 29190 29201 29174 29177 29047 28922 28798 28731 28706 28649 28586 28453 28363 28237 28140 28055 27994 27859 27655 27493 27332 27229 27110 26975 26849 26729 26627 26594 26618 26542 26345 26106 25894 25818 25819 25787 25841 25988 26208 26442 26677 26916 27128 27268 27231 27094 26905 26686 26456 26223 26021 25817 25642 25506 25397 25289 25115 24940 24769 24628 24531 24478 24470 24460 24570 24697 24777 24724 24610 24504 24443 24522 24626 24654 24767 24836 24887 24907 24999 25142 25276 25438 25733 26081 26442 26770 27143 27386 27442 27425 27533 27740 27921 28080 28186 28297 28430 28485 28461 28419 28386 28205 28111 28011 27984 28008 28039 28006 27981 27933 27950 28010 28071 28187 28302 28373 28411 28404 28397 28393 28416 28458 28515 28572 28673 28743 28815 28826 28869 28902 28926 28891 28777 28724 28696 28788 28886 29006 29086 29157 29175 29198 29179 29157 29124 29133 29149 29194 29224 29238 29272 29284 29334 29370 29392 29378 29334 29233 29161 29079 28997 28938 28859 28752 28661 28577 28497 28397 28259 28119 27993 27908 27799 27691 27572 27517 27435 27417 27310 27277 27219 27174 27174 27311 27435 27641 27777 27888 27952 27964 27997 28014 27997 27940 27880 27844 27839 27844 27872 27954 27996 28016 28002 27985 27918 27825 27690 27614 27551 27578 27663 27755 27842 27854 27817 27771 27714 27653 27553 27490 27443 27422 27466 27551 27638 27748 27772 27779 27751 27733 27686 27612 27548 27520 27571 27697 27795 27862 27940 27994 28041 28127 28199 28295 28337 28383 28368 28375 28415 28450 28495 28588 28626 28668 28718 28744 28775 28739 28684 28668 28633 28584 28549 28518 28474 28433 28439 28464 28482 28503 28447 28401 28372 28347 28318 28309 28290 28265 28243 28230 28256 28288 28350 28330 28289 28225 28173 28159 28149 28179 28191 28211 28235 28299 28376 28420 28476 28506 28520 28558 28534 28517 28471 28459 28472 28493 28524 28560 28574 28566 28560 28559 28582 28592 28635 28663 28672 28685 28675 28637 28535 28417 28273 28156 28058 28047 28072 28129 28221 28288 28330 28365 28380 28374 28285 28255 28409 28635 28765 28864 28950 29042 29158 29357 29374 29289 29085 29109 29389 29445 29379 29278 29206 29162 29092 29047 29007 28980 28951 28923 28913 28864 28782 28680 28622 28570 28506 28468 28427 28331 28286 28266 28288 28206 28075 27907 27779 27691 27696 27812 28118 28693 29145 29420 29446 29419 29373 29167 28947 28741 28534 28408 28200 28087 27990 27909 27789 27700 27498 27236 27017 26777 26609 26448 26335 26179 26054 26075 26048 26047 25932 25833 25827 25800 25875 26050 26368 26723 26918 26904 26861 26885 26892 26874 26872 26843 26766 26682 26622 26699 26873 27008 27074 27198 27303 27347 27344 27340 27364 27402 27478 27551 27643 27748 27763 27811 27992 28081 28185 28243 28256 28292 28358 28413 28439 28506 28546 28579 28639 28601 28512 28425 28386 28371 28398 28425 28444 28507 28570 28619 28679 28708 28682 28544 28503 28337 28214 28082 27938 27830 27737 27608 27479 27406 27341 27295 27225 27131 27075 26979 26874 26786 26688 26618 26558 26470 26372 26243 26115 25991 25883 25772 25837 25675 25623 25548 25523 25514 25473 25585 25821 26081 26182 26123 26131 26163 26333 26642 26703 26555 26489 26444 26357 26662 27004 27169 27267 27429 27600 27711 27839 27844 27882 27811 27878 27803 27759 27763 27739 27604 27495 27410 27310 27236 27208 27265 27317 27409 27463 27531 27595 27665 27755 27852 27883 27958 27926 27880 27862 27816 27783 27744 27730 27755 27825 27908 28019 28103 28129 28097 28049 27980 27928 27872 27775 27658 27544 27503 27539 27610 27679 27771 27841 27920 27976 28007 28030 27987 28033 28112 28246 28374 28496 28598 28636 28593 28385 28167 28085 28165 28118 28131 28082 28073 28107 28135 28164 28137 28102 28020 28033 28015 28027 28041 28118 28141 28179 28239 28256 28221 28128 28050 27992 27974 27986 28007 28003 28005 27967 27942 27823 27657 27519 27397 27370 27371 27395 27307 27227 27194 27118 27154 27145 27176 27190 27201 27205 27210 27174 27145 27119 27091 27046 27016 26890 26732 26704 26687 26724 26769 26798 26788 26805 26852 26878 26854 26730 26699 26725 26757 26816 26803 26842 26796 26800 26857 26864 26873 26860 26852 26870 26915 26951 26960 26969 26928 26859 26813 26785 26758 26717 26734 26723 26747 26837 26917 26986 27061 27101 27121 27130 27127 27158 27196 27284 27325 27354 27430 27489 27527 27535 27450 27362 27324 27289 27250 27270 27224 27221 27195 27170 27147 27101 27039 26984 26982 27025 27049 27131 27160 27246 27327 27335 27334 27323 27274 27303 27322 27342 27363 27265 27186 27139 27077 26932 26867 26870 26837 26823 26844 26856 26968 27057 27146 27252 27369 27461 27552 27613 27676 27733 27771 27835 27865 27912 27895 27803 27675 27602 27660 27717 27718 27732 27757 27776 27782 27786 27777 27736 27679 27574 27513 27473 27512 27562 27639 27753 27852 27872 27894 27912 27915 27866 27829 27855 27936 27931 28052 28104 28145 28231 28270 28355 28357 28400 28326 28247 28204 28138 28089 28076 28182 28119 28123 28037 28042 28031 27908 27831 27832 27835 27845 27855 27845 27862 27892 27936 27985 27981 28010 28047 28104 28153 28221 28242 28307 28324 28363 28367 28402 28385 28327 28293 28132 28112 28107 28095 28029 27998 28105 28134 28127 28104 28088 27996 27915 27852 27827 27806 27786 27787 27767 27756 27713 27655 27597 27508 27476 27521 27599 27673 27641 27607 27591 27491 27459 27452 27398 27470 27412 27368 27430 27446 27470 27434 27397 27376 27267 27212 27118 27053 27038 26970 26935 26884 26829 26789 26717 26753 26679 26746 26746 26801 26792 26779 26806 26840 26804 26788 26821 26746 26670 26564 26518 26497 26451 26424 26412 26435 26458 26459 26444 26491 26452 26429 26413 26374 26404 26419 26449 26423 26436 26440 26367 26257 26237 26174 26033 26007 25956 25920 25852 25797 25835 25894 25877 25875 25934 25861 25848 25895 25888 25957 25924 25888 25989 25894 25874 25818 25819 25802 25742 25786 25854 25863 25897 25958 25998 26040 26015 25968 25900 25884 25850 25862 25897 25945 25982 25987 25966 25898 25872 25826 25818 25749 25745 25741 25732 25755 25670 25624 25604 25558 25485 25550 25594 25606 25641 25703 25715 25750 25771 25874 25847 25913 25935 25947 25924 25941 25956 25988 25911 25831 25847 25968 25969 26012 26076 26240 26376 26457 27224 27589 27791 28037 28229 28381 28468 28524 28572 28598 28644 28703 28770 28826 28873 28907 28947 28997 29043 29087 29079 29100 29100 29127 29135 29160 29205 29290 29389 29505 29567 29404 29365 29431 30467 30274 30455 30559 30657 30868 30984 31054 31083 31088 31053 30971 30938 30856 30818 30767 30729 30677 30641 30616 30573 30482 30385 30307 30221 30156 30121 30107 30102 30004 29933 29961 30137 30430 30522 30578 30590 30576 30532 30510 30516 30553 30484 30389 30256 30156 30102 30050 29998 29870 29791 29737 29696 29721 29683 29639 29526 29451 29307 29227 29190 29180 29186 29244 29321 29392 29374 29353 29347 29335 29238 29236 29253 29266 29241 29237 29174 29050 29044 28923 28775 28664 28547 28472 28552 28497 28544 28591 28593 28549 28647 28555 28382 28272 28200 28164 28188 28174 28181 28153 28129 28094 28041 27990 27944 27903 27933 27927 28013 28056 28034 28023 28036 28016 27993 27944 27926 27846 27818 27772 27776 27711 27675 27649 27598 27598 27611 27570 27564 27498 27446 27353 27371 27377 27395 27419 27551 27629 27754 27753 27753 27768 27845 27884 27971 28024 28073 28109 28157 28214 28291 28240 28384 28425 28462 28543 28633 28676 28698 28652 28632 28630 28618 28573 28593 28553 28658 28721 28711 28683 28625 28594 28487 28413 28311 28204 28088 27993 27931 27896 27839 27775 27701 27596 27492 27414 27407 27368 27319 27298 27441 27466 27477 27564 27695 27835 27997 28209 28366 28466 28543 28615 28718 28764 28808 28869 28851 28810 28815 28802 28802 28782 28742 28676 28649 28621 28653 28725 28767 28780 28826 28877 28938 28941 28907 28883 28967 29076 29133 29152 29096 29050 29007 29020 28981 28904 28828 28821 28774 28721 28664 28640 28630 28662 28632 28565 28454 28367 28382 28417 28458 28442 28409 28386 28354 28308 28275 28177 28124 28102 28098 28143 28154 28149 28178 28179 28193 28241 28221 28218 28235 28194 28162 28162 28197 28301 28327 28405 28505 28436 28401 28304 28351 28259 28317 28318 28280 28296 28243 28173 28063 27921 27818 27752 27696 27712 27700 27670 27672 27639 27614 27663 27593 27615 27722 27753 27784 27768 27809 27872 27943 27957 28002 28035 28002 27925 27856 27867 27743 27676 27609 27545 27491 27437 27443 27374 27301 27254 27271 27267 27262 27280 27288 27402 27402 27475 27637 27675 27698 27769 27856 27932 28030 28006 27995 27991 27999 27917 27896 27813 27686 27550 27442 27437 27491 27466 27453 27486 27440 27384 27269 27227 27184 27183 27166 27135 27116 27111 27111 27056 27009 26981 26935 26945 26934 27164 27212 27372 27285 27203 27121 27101 27099 27063 27046 27119 27035 26973 26974 27038 26987 27068 27146 27094 27292 27368 27352 27430 27510 27498 27477 27473 27559 27654 27628 27614 27521 27519 27415 27366 27329 27385 27409 27400 27390 27378 27467 27612 27756 27802 27827 27816 27833 27774 27787 27805 27829 27890 27897 27896 27866 27807 27735 27733 27692 27779 27958 27977 28022 28084 28022 28039 27937 27862 27777 27725 27709 27971 27985 28051 28022 28084 28059 28058 28017 27996 28039 27978 28029 28024 27946 27928 27901 27849 27777 27651 27564 27478 27432 27415 27384 27482 27537 27564 27626 27647 27636 27626 27673 27639 27649 27632 27669 27649 27621 27614 27599 27539 27404 27330 27238 27231 27206 27189 27145 27113 27090 27098 27038 27020 26979 26945 26928 26932 26917 26936 26990 26951 27004 26965 26905 26832 26763 26726 26687 26626 26603 26645 26651 26627 26598 26542 26514 26495 26466 26389 26399 26381 26405 26482 26434 26474 26427 26358 26342 26403 26346 26315 26314 26291 26218 26165 26178 26165 26143 26189 26225 26257 26308 26392 26461 26541 26659 26702 26703 26648 26606 26604 26596 26573 26502 26566 26526 26518 26439 26371 26217 26132 26055 26023 26053 26074 26112 26104 26106 26070 26040 26037 26076 26126 26193 26284 26334 26337 26409 26382 26458 26388 26345 26376 26413 26358 26404 26413 26379 26427 26400 26410 26395 26283 26129 26018 26019 26001 26035 26199 26443 26317 26445 26322 26237 26211 26236 26370 26408 26493 26459 26468 26435 26495 26496 26462 26443 26450 26475 26465 26507 26515 26747 26703 26855 26930 27069 27187 27216 27333 27385 27398 27357 27470 27528 27563 27566 27488 27436 27404 27430 27379 27366 27362 27363 27363 27344 27392 27448 27407 27606 27644 27685 27703 27721 27778 27767 27748 27676 27741 27640 27578 27531 27511 27565 27533 27593 27648 27740 27843 27923 27982 27977 27987 28019 28029 28036 28057 28075 28134 28261 28217 28150 28068 27972 27850 27831 27747 27751 27732 27757 27765 27785 27793 27782 27764 27722 27805 27801 27857 27860 27803 27746 27774 27671 27619 27507 27381 27385 27360 27343 27324 27301 27318 27353 27318 27245 27208 27178 27189 27190 27094 27361 27338 27348 27292 27311 27183 27088 27067 26984 26945 26825 26736 26765 26657 26647 26625 26664 26571 26681 26654 26728 26777 26779 26767 26771 26747 26717 26637 26547 26459 26379 26306 26299 26390 26444 26547 26573 26540 26526 26511 26537 26529 26506 26554 26563 26586 26640 26671 26584 26578 26565 26524 26514 26524 26502 26435 26455 26432 26513 26662 26812 26914 26981 27081 27152 27286 27390 27463 27542 27602 27646 27687 27719 27637 27546 27606 27581 27535 27496 27457 27377 27329 27228 27122 27048 26994 26990 27018 27051 27074 27111 27141 27178 27203 27218 27206 27142 27120 27069 26981 26953 26916 26920 26988 27006 26992 26979 26966 26936 26889 26896 26930 26926 26957 27058 27093 27017 26968 26889 26890 26928 26994 26900 26861 26814 26805 26703 26590 26511 26517 26517 26618 26595 26562 26566 26573 26583 26632 26591 26542 26573 26621 26521 26450 26424 26364 26320 26327 26362 26416 26446 26511 26594 26621 26640 26618 26660 26761 26795 26767 26727 26670 26528 26596 26522 26457 26422 26386 26385 26335 26302 26288 26347 26420 26479 26521 26549 26574 26641 26657 26663 26722 26607 26551 26449 26385 26336 26292 26255 26274 26280 26262 26256 26255 26233 26170 26146 26127 26083 26079 26013 25996 25986 25968 25955 25943 25938 25951 25952 25933 25931 25891 25836 25802 25750 25718 25766 25826 25890 25921 25957 25953 25959 25997 25953 25957 25854 25777 25685 25675 25627 25654 25649 25682 25759 25767 25862 25923 26009 26088 26153 26172 26233 26254 26289 26388 26369 26355 26299 26429 26312 26233 26257 26226 26235 26189 26144 26056 26027 26071 26133 26171 26211 26232 26274 26358 26307 26542 26620 26535 26471 26459 26417 26539 26621 26485 26434 26379 26375 26342 26277 26242 26220 26252 26236 26257 26225 26299 26375 26350 26362 26315 26340 26298 26285 26266 26164 26102 26043 26020 26002 26019 26078 26155 26210 26255 26302 26341 26354 26393 26464 26373 26457 26419 26325 26290 26275 26190 26097 26034 25979 25933 25899 25849 25907 25970 25983 25984 25925 25996 25937 25926 25948 25911 25867 25871 25816 25716 25658 25587 25562 25468 25420 25441 25460 25462 25485 25489 25489 25454 25389 25366 25348 25324 25376 25299 25464 25440 25423 25405 25318 25297 25253 25214 25166 25205 25337 25436 25545 25614 25652 25686 25616 25584 25547 25482 25398 25408 25330 25284 25263 25366 25442 25459 25517 25512 25529 25548 25532 25507 25474 25499 25475 25445 25327 25346 25691 25612 25690 25659 25540 25445 25344 25298 25270 25280 25325 25406 25468 25528 25571 25636 25681 25621 25644 25611 25511 25424 25347 25344 25301 25277 25204 25186 25145 25113 25133 25158 25309 25365 25422 25444 25507 25567 25550 25588 25494 25410 25412 25359 25337 25367 25388 25384 25396 25422 25430 25401 25405 25391 25436 25432 25441 25449 25406 25400 25398 25370 25376 25244 25205 25073 25048 24963 24886 24901 24854 24873 24813 24826 24776 24929 24896 25050 25075 25105 25113 25184 25256 25338 25356 25323 25314 25336 25448 25420 25446 25493 25609 25781 25892 25821 25754 25740 25793 25825 25914 25850 25896 25890 25867 25922 25868 25842 25809 25781 25791 25818 25775 25833 25820 25789 25813 25811 25799 25872 25883 25985 26148 26200 26263 26351 26369 26421 26467 26441 26536 26496 26634 26737 26858 26953 26997 26993 27004 26947 26941 26984 27014 27036 27001 27002 27058 27071 27091 27077 27054 26949 26975 26978 27004 27064 27087 27101 27253 27215 27189 27238 27161 27154 27125 27054 27007 27110 27100 27017 26963 26915 26817 26796 26836 26866 26890 26882 26955 27010 27036 27092 27096 27038 26951 26917 26884 26756 26707 26654 26639 26632 26610 26571 26510 26418 26400 26380 26438 26437 26460 26464 26460 26470 26518 26505 26457 26359 26284 26292 26256 26243 26303 26371 26401 26386 26341 26272 26184 26096 25983 25978 25971 25866 25867 25823 25751 25649 25558 25626 25527 25477 25452 25339 25361 25328 25212 25246 25205 25203 25149 25194 25209 25300 25348 25274 25280 25350 25396 25472 25481 25483 25515 25581 25714 25723 25726 25715 25684 25730 25685 25679 25637 25626 25654 25702 25796 25848 25943 26042 26063 26136 26206 26212 26174 26372 26481 26456 26493 26423 26398 26457 26413 26321 26513 26690 26813 26843 26860 26922 27020 27180 27353 27504 27625 27640 27668 27686 27750 27863 27960 28031 28104 28144 28172 28197 28157 28172 28193 28239 28292 28313 28358 28374 28388 28359 28396 28395 28349 28394 28359 28361 28362 28394 28443 28466 28531 28615 28671 28675 28614 28601 28534 28469 28376 28322 28401 28571 28714 28870 28969 28997 29019 28982 28972 28926 28852 28773 28832 28904 28892 28867 28918 28956 29001 29053 29036 29019 28971 28925 28898 28871 28912 29006 29028 29027 28997 29019 29050 29069 29039 29046 29047 29110 29125 29086 29069 29034 29020 29088 29046 29036 29031 29027 29022 29076 29063 29080 29059 28987 28872 28773 28668 28641 28700 28710 28717 28710 28722 28759 28835 28891 28935 28949 28930 28904 28849 28801 28779 28737 28728 28768 28833 28899 28952 28983 28995 28952 28888 28821 28722 28660 28640 28635 28680 28737 28823 28889 28942 28997 29025 28999 28964 28935 28907 28895 28836 28782 28707 28640 28580 28528 28443 28344 28239 28159 28100 27994 27884 27751 27646 27476 27353 27122 26932 26793 26691 26607 26547 26435 26288 26187 26041 25877 25775 25703 25636 25580 25523 25480 25398 25409 25340 25296 25271 25233 25204 25162 25144 25122 25123 24976 24816 24754 24636 24481 24329 24232 24242 24227 24248 24243 24255 24247 24242 24212 24103 24004 23896 23811 23779 23796 23839 23892 23961 23994 23955 23846 23720 23651 23696 23690 23728 23730 23695 23693 23697 23688 23700 23655 23632 23670 23619 23535 23570 23548 23496 23544 23596 23741 23947 23999 23994 23986 24026 24095 24075 24077 24146 24200 24196 24219 24302 24304 24216 24210 24262 24304 24382 24405 24411 24417 24421 24440 24401 24382 24296 24247 24211 24241 24237 24336 24322 24276 24299 24264 24225 24221 24204 24162 24200 24227 24253 24251 24250 24259 24244 24249 24297 24295 24350 24352 24363 24360 24395 24392 24332 24344 24395 24463 24465 24441 24441 24496 24522 24551 24553 24533 24610 24600 24577 24518 24404 24373 24394 24479 24561 24579 24568 24581 24584 24603 24636 24684 24645 24600 24636 24640 24712 24764 24791 24837 24847 24878 24924 24930 24934 24967 25027 25093 25146 25158 25209 25238 25246 25300 25284 25224 25119 25005 24943 24931 24935 25045 25233 25396 25533 25617 25703 25760 25809 25953 26075 26173 26301 26391 26484 26630 26705 26741 26762 26756 26716 26727 26684 26722 26711 26718 26669 26616 26571 26540 26408 26301 26191 26051 25979 25952 25952 25962 26055 26229 26365 26544 26637 26715 26742 26771 26744 26692 26611 26607 26612 26663 26708 26744 26814 26800 26750 26686 26657 26649 26647 26645 26665 26638 26627 26619 26595 26561 26541 26580 26616 26639 26676 26742 26777 26837 26856 26890 26937 26943 26928 26855 26810 26783 26759 26739 26687 26684 26660 26622 26529 26455 26388 26408 26396 26416 26424 26407 26461 26496 26547 26563 26546 26466 26415 26369 26347 26334 26294 26296 26229 26201 26196 26160 26141 26103 26063 26048 26061 26136 26161 26215 26357 26393 26470 26545 26577 26610 26637 26673 26672 26761 26836 26911 26964 27017 27063 27073 27086 27035 27006 26975 26952 26921 26882 26849 26813 26832 26814 26741 26656 26591 26545 26482 26466 26378 26291 26200 26112 26096 25954 25810 25670 25497 25376 25256 25177 25089 25046 25055 25057 25085 25062 25061 25098 25171 25209 25281 25362 25389 25414 25482 25482 25463 25410 25369 25336 25293 25262 25208 25199 25222 25248 25294 25351 25404 25434 25417 25427 25420 25421 25337 25339 25338 25353 25429 25443 25478 25505 25594 25708 25796 25899 26002 26121 26213 26298 26360 26388 26401 26349 26343 26330 26343 26334 26320 26311 26345 26321 26231 26136 26054 25937 25854 25734 25661 25516 25497 25521 25519 25617 25438 25356 25437 25505 25610 25677 25693 25684 25675 25747 25787 25794 25794 25763 25778 25771 25779 25771 25765 25777 25807 25854 25824 25713 25595 25529 25446 25385 25393 25400 25408 25388 25337 25298 25228 25181 25114 25134 25276 25401 25527 25650 25792 25907 26019 26087 26140 26142 26173 26183 26222 26270 26322 26350 26392 26389 26406 26450 26434 26443 26379 26289 26214 26149 26106 26008 25955 25909 25840 25728 25750 25694 25616 25503 25418 25357 25394 25458 25549 25624 25742 25816 25866 25920 26014 26072 26085 26104 26089 26071 26072 26040 26008 25995 25959 25944 25858 25794 25682 25606 25479 25395 25344 25347 25323 25318 25282 25281 25325 25409 25473 25562 25598 25686 25752 25857 25969 26044 26136 26197 26295 26373 26435 26479 26538 26529 26495 26500 26505 26495 26526 26540 26534 26513 26503 26452 26431 26367 26267 26132 26050 25920 25877 25883 25952 25968 25984 25991 26029 26117 26146 26155 26136 26114 26104 26146 26170 26157 26153 26100 26090 26116 26161 26133 26072 25943 25865 25772 25674 25626 25604 25600 25519 25477 25384 25294 25219 25194 25206 25192 25201 25240 25305 25437 25566 25626 25717 25793 25862 25896 25958 26013 26098 26181 26256 26289 26319 26341 26362 26379 26407 26441 26398 26344 26265 26198 26111 26019 25985 25978 26025 26113 26223 26353 26454 26545 26633 26716 26810 26886 26977 27025 27116 27168 27217 27250 27300 27316 27323 27314 27323 27357 27370 27394 27433 27451 27450 27416 27380 27347 27264 27205 27110 27041 26925 26850 26776 26738 26748 26758 26791 26819 26789 26793 26760 26747 26759 26752 26753 26741 26752 26724 26734 26705 26622 26554 26474 26447 26373 26295 26234 26158 26092 26034 25964 25874 25786 25725 25726 25783 25881 25960 26049 26156 26247 26347 26433 26505 26572 26584 26570 26572 26584 26627 26669 26737 26783 26803 26824 26862 26836 26764 26678 26561 26455 26361 26297 26203 26129 26035 25929 25834 25797 25781 25782 25847 25950 26075 26182 26233 26258 26241 26269 26305 26351 26361 26336 26308 26303 26301 26275 26259 26281 26259 26239 26260 26195 26130 26018 25889 25803 25723 25652 25577 25602 25700 25835 25961 26046 26181 26247 26279 26278 26296 26320 26352 26421 26466 26570 26592 26647 26673 26648 26561 26435 26300 26184 26101 26040 25974 25922 25868 25800 25760 25703 25611 25557 25579 25635 25743 25854 25973 26073 26155 26203 26259 26277 26280 26245 26211 26162 26127 26101 26053 26038 26014 25975 25939 25926 25879 25756 25694 25639 25593 25530 25494 25485 25486 25490 25513 25538 25614 25654 25663 25648 25626 25656 25729 25810 25908 25982 26058 26166 26241 26324 26314 26297 26267 26245 26227 26212 26189 26149 26069 26046 25927 25833 25719 25611 25571 25619 25721 25837 26000 26146 26292 26405 26510 26607 26654 26655 26669 26651 26662 26685 26683 26689 26656 26581 26577 26522 26479 26402 26293 26216 26174 26120 26043 25955 25938 25989 26071 26164 26251 26272 26223 26160 26080 26046 26006 25978 25924 25902 25876 25869 25902 25910 25880 25841 25805 25782 25751 25757 25700 25679 25645 25535 25451 25363 25269 25162 25105 25062 25033 25026 25090 25128 25159 25215 25322 25459 25604 25652 25681 25692 25737 25808 25907 25960 26022 26064 26089 26088 26073 26002 25918 25831 25760 25706 25661 25629 25566 25478 25438 25506 25663 25772 25860 25955 26013 26101 26205 26293 26372 26475 26525 26581 26648 26686 26676 26663 26645 26625 26658 26676 26682 26640 26564 26489 26437 26331 26197 26017 25829 25670 25613 25601 25598 25579 25552 25534 25494 25512 25543 25538 25542 25595 25654 25735 25803 25858 25918 25936 25956 26000 26043 25951 25805 25649 25508 25405 25379 25343 25305 25240 25178 25117 25065 25050 24935 24843 24778 24729 24756 24828 24916 25020 25149 25252 25385 25517 25582 25631 25652 25574 25524 25557 25606 25665 25693 25683 25617 25535 25434 25286 25125 25044 25036 25097 25256 25425 25569 25745 25854 25973 26074 26141 26181 26161 26174 26234 26322 26428 26512 26561 26621 26703 26774 26840 26847 26867 26890 26908 26937 26984 27034 27087 27117 27171 27207 27254 27271 27249 27231 27227 27240 27247 27275 27306 27308 27334 27330 27350 27356 27310 27236 27160 27101 27047 27019 26983 26959 26931 26882 26821 26778 26778 26702 26649 26607 26578 26570 26587 26617 26631 26680 26715 26760 26794 26815 26813 26783 26795 26825 26817 26853 26895 26835 26763 26808 26887 26966 27003 27004 26953 26877 26781 26713 26672 26637 26696 26868 27020 27129 27196 27223 27216 27180 27151 27135 27112 27121 27138 27183 27249 27300 27333 27348 27296 27324 27297 27283 27230 27197 27148 27089 27080 26998 26945 26835 26666 26551 26478 26433 26396 26386 26389 26410 26467 26522 26527 26527 26490 26481 26487 26505 26555 26587 26611 26592 26564 26518 26492 26420 26285 26131 26006 25959 25878 25843 25836 25835 25890 25935 25954 25905 25778 25672 25636 25647 25657 25650 25697 25739 25802 25846 25873 25919 25882 25824 25765 25716 25670 25639 25591 25520 25460 25377 25296 25269 25255 25143 25091 25086 25088 25218 25348 25482 25655 25806 25927 26063 26175 26215 26265 26291 26337 26406 26475 26515 26614 26664 26715 26768 26811 26820 26732 26624 26541 26472 26428 26361 26300 26226 26194 26169 26167 26165 26114 26062 26101 26138 26222 26307 26380 26460 26556 26613 26675 26738 26780 26761 26746 26733 26751 26777 26817 26841 26842 26845 26845 26822 26827 26804 26718 26620 26573 26556 26552 26584 26625 26694 26759 26824 26875 26925 26917 26912 26911 26920 26929 26948 26961 26977 27008 27025 27048 27019 26936 26832 26712 26646 26603 26573 26531 26523 26512 26496 26503 26540 26566 26571 26580 26609 26640 26706 26754 26790 26840 26878 26910 26956 26979 26953 26917 26923 26932 26950 26970 26967 26963 26945 26957 26923 26914 26811 26735 26674 26642 26643 26664 26709 26735 26767 26814 26833 26858 26845 26791 26699 26676 26696 26734 26746 26789 26813 26817 26828 26857 26833 26820 26802 26792 26793 26802 26817 26857 26875 26903 26942 27001 27036 27046 27023 26996 26995 27033 27072 27101 27129 27167 27199 27247 27282 27290 27257 27228 27203 27214 27244 27251 27295 27319 27331 27365 27390 27408 27368 27322 27280 27267 27266 27262 27270 27258 27246 27235 27231 27269 27274 27224 27176 27128 27104 27070 27035 27002 26973 26950 26942 26949 26937 26887 26876 26883 26923 26967 27012 27074 27109 27171 27232 27286 27263 27222 27139 27138 27167 27259 27323 27362 27390 27419 27447 27488 27471 27432 27396 27332 27299 27243 27191 27140 27121 27071 27044 26985 26870 26696 26518 26361 26213 26119 26082 26089 26091 26145 26182 26226 26227 26146 26036 25926 25848 25824 25803 25813 25815 25847 25865 25909 25916 25829 25769 25708 25668 25638 25627 25589 25564 25544 25537 25527 25530 25460 25429 25357 25388 25414 25410 25400 25383 25431 25501 25639 25776 25873 25956 26014 26086 26178 26248 26308 26380 26447 26500 26581 26627 26691 26678 26602 26543 26500 26440 26430 26392 26354 26294 26259 26249 26285 26330 26342 26315 26320 26364 26434 26544 26638 26742 26803 26860 26945 27020 27018 27019 27043 27048 27070 27108 27159 27193 27236 27290 27347 27397 27417 27401 27384 27354 27347 27340 27316 27296 27268 27230 27202 27187 27108 27036 26982 26985 27034 27099 27141 27186 27241 27260 27242 27217 27203 27288 27294 27263 27293 27360 27386 27360 27238 27129 27094 27088 27109 27135 27147 27107 27165 27298 27404 27526 27644 27777 27856 27885 27932 28001 28006 28068 28153 28246 28340 28322 28322 28303 28274 28289 28278 28232 28214 28117 27974 27934 27903 27870 27815 27741 27632 27514 27382 27254 27109 26947 26795 26646 26539 26539 26551 26604 26664 26710 26732 26753 26736 26690 26632 26597 26614 26636 26720 26772 26849 26929 26986 27032 27053 27079 27051 27022 26953 26957 26950 26954 26960 26953 26945 26939 26932 26885 26787 26729 26671 26615 26614 26539 26376 26192 26038 25919 25870 25833 25736 25623 25454 25338 25236 25135 25070 25012 24952 24901 24835 24799 24723 24644 24663 24744 24829 24904 24988 25030 25080 25116 25139 25130 25028 24938 24839 24746 24773 24804 24878 24942 24976 25034 25116 25221 25276 25289 25290 25305 25336 25392 25447 25505 25573 25651 25723 25819 25937 26021 26095 26159 26235 26316 26397 26473 26560 26624 26717 26794 26868 26882 26893 26905 26910 26943 27001 27051 27097 27119 27170 27226 27255 27277 27253 27263 27297 27283 27229 27176 27100 27056 27084 27127 27195 27212 27221 27212 27223 27245 27262 27279 27265 27267 27245 27249 27238 27208 27180 27168 27169 27197 27236 27276 27310 27334 27375 27405 27433 27447 27400 27387 27364 27406 27438 27463 27500 27497 27499 27498 27489 27492 27436 27393 27356 27325 27294 27244 27207 27171 27141 27132 27145 27146 27106 27081 27065 27074 27046 27043 27023 26992 26958 26932 26889 26840 26756 26700 26655 26659 26661 26687 26738 26790 26836 26855 26881 26931 26938 26923 26901 26939 26965 27016 27028 27062 27107 27137 27178 27206 27188 27146 27109 27103 27137 27139 27187 27183 27215 27231 27231 27231 27150 27029 26909 26803 26740 26669 26626 26630 26644 26668 26704 26760 26805 26810 26845 26889 26956 27012 27077 27133 27178 27209 27252 27277 27260 27215 27182 27160 27156 27174 27144 27131 27086 27021 26936 26852 26794 26716 26637 26533 26467 26372 26309 26350 26466 26633 26740 26862 26973 27011 27027 27018 27035 27096 27140 27222 27332 27417 27491 27575 27630 27693 27694 27661 27649 27657 27652 27669 27702 27728 27763 27767 27769 27722 27675 27569 27437 27281 27198 27114 27046 27017 27003 27010 27088 27163 27279 27340 27369 27378 27415 27432 27494 27538 27578 27602 27646 27666 27688 27740 27707 27704 27672 27664 27700 27721 27770 27807 27813 27824 27812 27777 27743 27673 27595 27484 27415 27409 27430 27451 27469 27517 27554 27612 27681 27697 27712 27704 27718 27744 27775 27800 27820 27847 27877 27890 27927 27969 27968 27959 27932 27901 27856 27820 27773 27712 27646 27562 27474 27391 27318 27177 27021 26900 26819 26709 26674 26652 26672 26723 26781 26838 26930 26992 27006 26985 26932 26889 26832 26783 26753 26764 26791 26812 26846 26875 26872 26812 26736 26656 26597 26593 26647 26660 26662 26670 26674 26708 26784 26843 26851 26900 26932 26970 27045 27104 27175 27250 27324 27379 27439 27506 27486 27449 27389 27382 27387 27382 27409 27443 27465 27518 27529 27561 27502 27386 27269 27169 27100 27002 26934 26834 26776 26731 26697 26740 26781 26800 26820 26822 26843 26877 26911 26964 27006 27033 27077 27113 27120 27133 27079 26986 26960 26937 26923 26904 26875 26785 26623 26457 26320 26234 26196 26105 26121 26120 26190 26230 26231 26233 26218 26190 26207 26316 26523 26679 26758 26781 26838 26888 26957 26995 27014 27056 27085 27113 27119 27144 27111 27087 27074 27047 27046 27029 27019 26965 26919 26881 26832 26769 26769 26727 26582 26531 26456 26336 26266 26313 26390 26469 26545 26639 26752 26838 26901 26939 27022 27119 27193 27268 27340 27376 27419 27465 27511 27563 27592 27566 27489 27457 27452 27438 27461 27484 27534 27570 27607 27643 27677 27645 27614 27580 27578 27574 27605 27646 27662 27693 27753 27767 27813 27851 27802 27763 27722 27697 27697 27694 27677 27686 27679 27670 27696 27718 27693 27681 27629 27564 27537 27502 27495 27524 27504 27485 27468 27460 27459 27454 27420 27350 27263 27184 27129 27050 26911 26826 26766 26718 26743 26789 26744 26635 26490 26347 26256 26215 26235 26284 26398 26457 26520 26627 26706 26758 26732 26696 26688 26698 26806 26851 26910 26979 27044 27096 27135 27161 27141 27066 27015 26970 26973 26948 26939 26919 26919 26901 26878 26856 26892 26826 26798 26774 26770 26849 26865 26974 27046 27113 27173 27227 27268 27312 27294 27265 27227 27249 27267 27316 27359 27395 27421 27422 27424 27446 27418 27339 27244 27184 27149 27142 27165 27140 27145 27132 27115 27097 27076 26998 26910 26763 26605 26522 26463 26396 26387 26427 26489 26588 26704 26761 26734 26726 26757 26790 26815 26895 26963 27015 27034 27045 27058 27042 27007 26958 26856 26829 26765 26690 26656 26599 26475 26387 26276 26184 26079 25963 25784 25639 25519 25424 25399 25411 25443 25451 25520 25667 25866 26055 26093 26198 26253 26311 26405 26478 26563 26623 26679 26727 26767 26805 26751 26680 26611 26593 26566 26523 26508 26438 26380 26299 26220 26144 26054 25893 25703 25629 25603 25556 25540 25596 25563 25573 25588 25629 25661 25699 25637 25624 25650 25732 25835 25987 26093 26188 26267 26318 26364 26375 26402 26395 26388 26358 26406 26448 26517 26556 26592 26553 26516 26472 26439 26361 26221 26038 25891 25836 25847 25892 25959 26067 26143 26246 26344 26434 26473 26489 26524 26560 26613 26677 26707 26770 26810 26824 26851 26897 26937 26928 26861 26826 26788 26765 26778 26784 26788 26757 26730 26719 26707 26691 26606 26421 26236 26085 25953 25915 25901 25915 25995 26071 26192 26310 26390 26448 26435 26392 26346 26335 26347 26357 26392 26436 26451 26478 26522 26574 26581 26511 26398 26294 26189 26152 26088 26034 26002 25965 25973 25948 25944 25884 25772 25743 25759 25851 25929 26023 26124 26218 26295 26414 26494 26566 26573 26511 26495 26475 26467 26480 26515 26556 26601 26659 26692 26729 26784 26716 26573 26458 26348 26265 26218 26193 26142 26110 26111 26094 26109 26210 26245 26282 26354 26407 26470 26560 26614 26675 26720 26771 26803 26855 26889 26897 26887 26879 26879 26909 26922 26935 26956 26942 26950 26939 26941 26902 26789 26678 26565 26522 26492 26503 26535 26583 26670 26743 26816 26900 26950 26949 26946 26973 26987 27025 27052 27089 27101 27129 27157 27183 27190 27164 27117 27072 27057 27038 27034 27021 27028 27004 26962 26924 26909 26866 26797 26728 26735 26762 26812 26858 26894 26971 27015 27041 27081 27115 27070 27022 26982 26954 26946 26942 26959 26956 26966 26975 26937 26932 26830 26672 26498 26361 26240 26162 26110 26048 25973 25903 25866 25838 25816 25789 25752 25741 25809 25865 25950 26008 26046 26138 26210 26287 26352 26428 26424 26415 26422 26423 26433 26462 26469 26454 26403 26345 26255 26121 25906 25651 25479 25398 25382 25409 25485 25579 25725 25878 26088 26256 26441 26582 26661 26707 26754 26796 26858 26911 26942 27002 27043 27081 27151 27175 27220 27191 27122 27070 27039 27005 26972 26925 26880 26869 26847 26845 26878 26916 26965 27005 27034 27091 27152 27210 27280 27315 27337 27370 27385 27373 27342 27301 27250 27260 27281 27299 27293 27305 27265 27248 27222 27193 27176 27123 27025 26933 26864 26753 26666 26664 26785 26876 27000 27111 27196 27291 27298 27311 27312 27342 27372 27436 27488 27545 27576 27626 27676 27700 27716 27682 27642 27598 27591 27547 27549 27546 27509 27524 27536 27572 27592 27596 27553 27507 27493 27467 27481 27491 27515 27546 27578 27567 27587 27529 27463 27347 27318 27249 27164 27080 27014 26985 26959 26943 26996 27019 27029 26975 26969 26979 27021 27101 27156 27226 27276 27334 27390 27448 27436 27354 27196 27066 27029 27015 27016 27028 27059 27104 27138 27162 27212 27213 27171 27080 27036 26981 26946 26899 26818 26694 26602 26621 26679 26724 26725 26661 26571 26459 26411 26372 26331 26273 26198 26066 25931 25824 25730 25588 25442 25316 25234 25183 25154 25123 25079 25122 25140 25135 25169 25202 25277 25337 25390 25455 25594 25719 25848 25943 26031 26144 26242 26293 26354 26349 26313 26250 26206 26141 26110 26060 26027 25986 25984 25944 25936 25843 25724 25622 25585 25592 25657 25802 25980 26158 26312 26468 26645 26772 26862 26934 27004 27057 27125 27187 27219 27280 27349 27393 27457 27487 27471 27467 27447 27438 27425 27414 27413 27401 27406 27424 27443 27470 27456 27461 27454 27486 27504 27520 27547 27570 27605 27656 27723 27766 27823 27835 27833 27838 27861 27903 27943 27976 27995 28016 28046 28083 28091 28042 27980 27967 27941 27924 27930 27927 27910 27913 27908 27931 27924 27891 27858 27822 27823 27820 27824 27839 27863 27878 27882 27931 27936 27912 27870 27843 27783 27772 27743 27698 27662 27652 27579 27548 27513 27439 27361 27286 27221 27226 27242 27293 27344 27383 27434 27466 27506 27565 27589 27558 27538 27494 27458 27435 27410 27407 27428 27459 27471 27460 27440 27332 27193 27035 26887 26739 26619 26516 26414 26291 26215 26160 26083 25987 25888 25770 25700 25683 25710 25814 25920 26083 26218 26325 26439 26535 26564 26484 26406 26359 26306 26311 26332 26261 26165 26099 26037 26010 25943 25849 25631 25512 25434 25324 25288 25293 25297 25322 25380 25417 25473 25517 25478 25451 25444 25459 25550 25609 25768 25861 25904 25923 25932 25942 25891 25788 25715 25701 25691 25626 25619 25595 25600 25618 25577 25597 25623 25568 25528 25481 25463 25498 25600 25681 25824 25924 25997 26035 26018 26052 26058 26041 26037 26078 26033 26054 26063 26074 26127 26163 26207 26257 26270 26305 26345 26401 26485 26523 26521 26521 26482 26448 26434 26510 26545 26649 26697 26733 26740 26707 26699 26720 26757 26809 26865 26939 27007 27093 27126 27067 27048 26994 26946 26905 26899 26892 26884 26881 26873 26840 26846 26806 26734 26599 26538 26535 26532 26563 26600 26595 26630 26698 26786 26878 26910 26939 26981 27006 27069 27115 27151 27183 27210 27223 27243 27272 27224 27160 27063 26991 26957 26949 26942 26946 26928 26922 26892 26857 26828 26713 26577 26494 26505 26530 26612 26680 26739 26816 26877 26935 26986 27074 27063 27055 27069 27083 27087 27117 27135 27180 27212 27255 27264 27289 27285 27209 27126 27051 27035 27021 27014 26990 26962 26947 26982 27062 27124 27146 27151 27167 27191 27230 27272 27314 27376 27406 27450 27495 27541 27548 27522 27513 27500 27507 27547 27553 27567 27534 27490 27488 27435 27390 27295 27158 27058 26964 26906 26870 26940 27034 27117 27217 27300 27398 27443 27457 27467 27464 27493 27517 27526 27561 27595 27623 27679 27748 27789 27774 27730 27662 27599 27562 27527 27514 27470 27440 27408 27395 27450 27426 27402 27395 27393 27445 27490 27548 27600 27641 27709 27729 27775 27754 27707 27649 27622 27607 27605 27609 27632 27648 27660 27691 27675 27642 27550 27368 27193 27007 26865 26776 26716 26709 26741 26800 26857 26966 27072 27095 27071 27054 27023 27007 26996 27025 27056 27068 27121 27142 27177 27126 27008 26830 26686 26551 26415 26318 26264 26190 26159 26173 26209 26220 26227 26262 26318 26393 26493 26596 26713 26830 26959 27047 27165 27258 27350 27397 27377 27348 27315 27323 27366 27396 27467 27544 27621 27707 27780 27819 27788 27757 27734 27767 27798 27846 27885 27931 27977 28035 28056 28102 28093 28069 28026 28011 28003 28044 28061 28075 28095 28089 28104 28098 28096 28021 27907 27800 27735 27662 27570 27498 27423 27351 27274 27236 27196 27148 27010 26876 26752 26632 26543 26459 26396 26337 26278 26253 26228 26218 26182 26121 26060 25990 25932 25864 25801 25731 25658 25610 25582 25584 25610 25597 25534 25460 25415 25407 25419 25489 25523 25597 25661 25766 25848 25941 26039 26061 26094 26124 26197 26239 26282 26286 26319 26316 26313 26343 26294 26236 26160 26114 26092 26091 26111 26178 26287 26429 26549 26664 26786 26844 26857 26919 26951 27014 27097 27135 27199 27247 27296 27333 27383 27390 27330 27269 27229 27191 27210 27215 27203 27203 27212 27202 27218 27237 27194 27135 27097 27046 27096 27139 27186 27268 27346 27422 27478 27548 27584 27531 27424 27325 27263 27282 27287 27307 27368 27422 27497 27564 27613 27606 27557 27515 27507 27521 27548 27585 27644 27691 27737 27774 27846 27889 27896 27830 27776 27762 27763 27779 27800 27829 27844 27868 27899 27933 27950 27940 27871 27828 27848 27859 27873 27890 27909 27935 27961 27994 28031 28067 28042 27981 27930 27920 27933 27951 27994 28039 28051 28098 28129 28147 28150 28128 28093 28046 28007 27993 27921 27877 27819 27786 27846 27882 27911 27889 27745 27540 27368 27225 27080 26965 26891 26803 26765 26712 26677 26600 26529 26351 26164 26037 25970 25939 25906 25890 25864 25843 25796 25781 25774 25762 25678 25611 25593 25589 25598 25631 25602 25560 25521 25483 25465 25420 25328 25240 25184 25175 25205 25236 25252 25204 25177 25154 25158 25185 25142 25070 25030 24993 25076 25225 25396 25622 25853 26035 26179 26313 26424 26468 26497 26552 26618 26708 26764 26828 26911 26956 27028 27081 27135 27119 27080 27063 27058 27057 27102 27132 27142 27167 27212 27251 27286 27246 27223 27206 27212 27235 27256 27284 27322 27363 27402 27448 27516 27517 27505 27482 27474 27497 27539 27576 27610 27637 27661 27694 27729 27747 27727 27700 27672 27675 27684 27716 27700 27728 27741 27780 27807 27839 27795 27756 27740 27728 27762 27767 27798 27800 27835 27844 27886 27924 27925 27900 27880 27866 27855 27886 27906 27917 27941 27947 27985 28012 28010 27990 27979 27948 27935 27935 27955 27975 27986 28018 28018 28049 28049 28003 27936 27894 27864 27881 27873 27832 27823 27819 27847 27865 27873 27851 27798 27752 27726 27729 27733 27748 27750 27745 27744 27719 27703 27685 27552 27425 27297 27229 27202 27183 27154 27101 27070 27074 27106 27156 27210 27205 27188 27196 27234 27270 27333 27371 27431 27462 27523 27581 27630 27628 27582 27582 27607 27633 27684 27706 27730 27745 27786 27837 27884 27908 27883 27831 27817 27834 27857 27872 27860 27839 27830 27848 27850 27852 27788 27714 27690 27658 27701 27732 27754 27770 27815 27865 27888 27935 27966 27937 27889 27877 27885 27918 27932 27950 27961 27995 28018 28036 28084 28034 27977 27950 27955 27948 27970 27989 28016 28041 28034 28065 28093 28084 28005 27957 27962 27977 28013 28027 28047 28072 28086 28112 28142 28152 28119 28070 28066 28080 28110 28124 28138 28151 28161 28180 28188 28148 28019 27876 27755 27657 27593 27530 27451 27362 27274 27186 27084 27017 26868 26704 26570 26480 26444 26360 26273 26162 26022 25920 25822 25706 25556 25425 25343 25315 25335 25367 25386 25341 25297 25260 25241 25232 25180 25053 24936 24863 24837 24817 24803 24810 24811 24790 24805 24850 24852 24799 24777 24758 24757 24766 24754 24770 24775 24818 24874 24976 24987 25020 25070 25140 25223 25334 25410 25480 25564 25617 25662 25715 25646 25556 25510 25532 25584 25650 25701 25663 25684 25798 25979 26131 26236 26281 26323 26372 26431 26481 26557 26635 26703 26762 26842 26918 26875 26861 26839 26823 26834 26825 26854 26886 26896 26919 26950 26984 26977 26942 26896 26866 26861 26835 26881 26896 26937 26980 27039 27074 27112 27093 27054 27032 26998 26996 27009 27026 27049 27096 27130 27169 27203 27230 27196 27090 26993 26900 26798 26753 26715 26686 26649 26643 26658 26706 26766 26785 26729 26611 26492 26386 26281 26208 26141 26091 26002 25942 25895 25869 25875 25846 25762 25694 25624 25568 25568 25552 25536 25548 25550 25592 25612 25612 25581 25556 25507 25484 25451 25424 25431 25455 25495 25540 25582 25640 25727 25775 25824 25796 25750 25747 25807 25908 26003 26100 26209 26344 26447 26584 26683 26793 26866 26894 26905 26931 26973 27015 27079 27137 27180 27251 27290 27362 27402 27452 27469 27427 27405 27425 27440 27469 27507 27524 27577 27612 27646 27670 27715 27744 27722 27693 27702 27710 27720 27752 27788 27807 27860 27890 27938 27975 28003 28010 28001 28003 28004 28015 28067 28098 28120 28137 28174 28182 28226 28257 28243 28220 28211 28209 28228 28245 28280 28297 28320 28344 28375 28382 28420 28411 28414 28396 28400 28403 28420 28435 28454 28477 28503 28546 28552 28572 28576 28562 28521 28520 28498 28522 28542 28545 28559 28568 28555 28588 28589 28536 28489 28441 28426 28431 28414 28398 28425 28401 28389 28354 28337 28282 28213 28198 28145 28169 28164 28188 28211 28228 28249 28272 28290 28329 28350 28293 28245 28232 28226 28199 28219 28220 28204 28200 28202 28197 28173 28115 28013 27931 27879 27864 27843 27813 27805 27806 27791 27774 27757 27673 27570 27449 27346 27296 27280 27238 27199 27192 27179 27163 27139 27146 27115 27063 27002 26964 26972 26985 26962 26953 26949 26967 26983 27030 27088 27082 27098 27068 27083 27128 27126 27134 27088 27096 27078 27088 27040 26944 26816 26737 26674 26631 26580 26503 26419 26383 26321 26335 26320 26294 26215 26160 26065 26007 25966 25942 25928 25937 25955 26024 26091 26125 26108 26059 26079 26083 26124 26118 26120 26105 26081 26087 26106 26123 26049 25984 25943 25874 25889 25880 25880 25835 25865 25895 25929 25960 26057 26046 26008 25944 25900 25880 25803 25780 25841 25816 25927 25793 25775 25686 25555 25437 25344 25302 25301 25283 25254 25177 25127 25119 25113 25177 25208 25181 25111 25059 25050 25034 25026 25025 25042 25054 25110 25156 25150 25155 25177 25286 25276 25224 25231 25192 25227 25227 25255 25322 25310 25379 25441 25581 25606 25595 25579 25622 25665 25748 25824 25879 25948 25966 26006 25984 26021 26046 25947 25847 25775 25715 25680 25615 25546 25469 25396 25330 25276 25243 25205 25167 25060 24889 24774 24705 24687 24651 24602 24543 24496 24492 24503 24485 24457 24454 24407 24321 24260 24239 24230 24274 24192 24201 24143 24079 24026 24014 24001 23906 23803 23772 23737 23720 23705 23666 23640 23555 23510 23457 23439 23490 23445 23373 23264 23251 23273 23255 23229 23207 23376 23314 23401 23447 23665 23592 23552 23504 23493 23550 23708 23841 23847 23856 23880 23913 23996 24148 24271 24322 24342 24349 24305 24306 24315 24255 24223 24252 24268 24253 24281 24282 24331 24240 24175 24123 24092 24110 24191 24177 24172 24190 24177 24186 24209 24223 24173 24111 24146 24163 24133 24160 24174 24142 24182 24182 24179 24180 24148 24193 24136 24518 24504 24639 24678 24631 24570 24522 24457 24590 24566 24490 24343 24228 24122 24082 24069 24024 23947 24000 23953 23970 23947 23990 23990 23946 23920 23887 23919 24014 24039 24043 24048 24026 23980 23975 23897 24163 24321 24210 24166 24071 24388 24497 24483 24497 24429 24419 24499 24605 24669 24642 24590 24649 24734 24794 24828 24865 24866 24914 24982 24982 25005 25033 24991 24977 25033 24996 25105 25044 24968 24919 24870 24861 24921 25024 24994 24828 24781 24724 24713 24790 24816 24859 24899 24823 24802 24829 24899 24875 24943 24928 25001 25061 25121 25230 25330 25400 25468 25585 25584 25654 25692 25666 25606 25602 25621 25613 25636 25600 25601 25574 25563 25531 25543 25559 25540 25474 25353 25335 25253 25255 25330 25286 25306 25412 25465 25505 25470 25491 25472 25419 25435 25502 25460 25514 25485 25591 25570 25575 25604 25562 25626 25544 25572 25492 25430 25406 25332 25218 25138 25053 24945 24873 24823 24853 24781 24748 24737 24708 24664 24611 24542 24507 24446 24351 24393 24338 24373 24363 24353 24429 24389 24377 24418 24383 24329 24340 24523 24525 24512 24540 24507 24391 24312 24273 24211 24240 24257 24262 24295 24339 24404 24425 24413 24456 24411 24478 24486 24483 24540 24612 24647 24620 24610 24618 24676 24675 24641 24533 24460 24373 24423 24522 24555 24624 24665 24737 24863 24984 25102 25123 25156 25145 25237 25332 25415 25375 25408 25396 25399 25391 25397 25608 25627 25536 25465 25427 25462 25404 25445 25416 25365 25409 25390 25345 25378 25304 25262 25206 25165 25132 25112 25070 25019 24990 25098 24973 24934 24841 24775 24577 24457 24432 24335 24269 24167 24090 24027 24088 24062 24177 24116 24033 23940 23861 23813 23899 23853 23781 23848 23899 23895 23905 23978 23940 23988 23883 23837 23765 23932 23954 24009 24090 24039 23991 24215 24238 24257 24179 24284 24309 24479 24435 24352 24284 24270 24248 24300 24426 24492 24534 24571 24493 24521 24454 24476 24524 24652 24734 24835 24885 24905 24907 24875 24880 24851 24865 24808 24833 24934 24976 25033 25015 25024 24980 25045 25110 25189 25289 25328 25307 25301 25312 25357 25407 25443 25478 25564 25599 25656 25674 25741 25750 25735 25687 25643 25684 25737 25807 25846 25897 25919 25988 26023 26043 26077 26117 26070 25999 25968 25915 25899 25905 25888 25879 25843 25798 25792 25806 25757 25766 25683 25599 25535 25501 25508 25472 25534 25513 25499 25523 25530 25497 25539 25498 25482 25445 25420 25412 25462 25519 25547 25636 25679 25737 25773 25838 25912 25961 26012 26010 26082 26120 26168 26108 26085 26020 26010 26011 26033 26030 25996 25906 25809 25795 25730 25718 25682 25709 25687 25746 25727 25753 25773 25747 25763 25725 25645 25654 25592 25599 25567 25597 25597 25542 25545 25507 25489 25481 25506 25521 25518 25421 25362 25329 25284 25196 25130 25099 25074 25041 25095 25134 25272 25227 25205 25161 25175 25266 25360 25522 25582 25610 25694 25745 25842 25942 25958 25994 25948 25983 26004 26045 26105 26140 26161 26175 26183 26258 26234 26260 26255 26228 26189 26253 26274 26342 26328 26355 26402 26423 26451 26466 26479 26434 26383 26318 26262 26251 26223 26198 26202 26157 26154 26097 26107 26146 26087 26007 25991 25928 25902 25894 25853 25821 25799 25832 25838 25848 25892 25872 25818 25786 25751 25754 25768 25766 25733 25744 25801 25833 25828 25848 25827 25803 25731 25650 25713 25727 25714 25686 25716 25697 25771 25802 25789 25770 25726 25624 25683 25734 25730 25781 25835 25780 25830 25839 25864 25900 25884 25861 25858 25798 25782 25754 25769 25810 25783 25750 25782 25753 25758 25813 25755 25728 25690 25619 25636 25660 25597 25669 25666 25641 25708 25676 25723 25757 25657 25568 25436 25401 25408 25419 25418 25420 25348 25361 25387 25331 25383 25416 25433 25404 25319 25248 25289 25222 25239 25175 25194 25118 25131 25116 25122 25155 25206 25270 25294 25169 25046 25187 25166 25193 25325 25289 25303 25354 25401 25356 25445 25405 25403 25427 25329 25259 25178 25284 25287 25265 25414 25479 25500 25598 25610 25736 25798 25875 25964 25941 25941 25951 25989 26048 26126 26088 26039 26108 26083 26039 26060 25987 25991 25898 25858 25699 25724 25680 25622 25566 25440 25360 25365 25298 25219 25260 25156 25183 25112 25031 24982 24987 24950 24982 24949 24918 24974 24973 25039 25233 25204 25316 25228 25187 25108 25217 25200 25227 25281 25291 25360 25367 25337 25357 25341 25365 25308 25332 25243 25221 25264 25333 25467 25641 25668 25753 25872 25859 25958 25999 25991 26062 25960 25985 25910 25931 26001 25936 25917 25924 25927 26009 25968 26034 25951 26059 25991 25904 25825 25824 25868 25810 25779 25792 25721 25680 25596 25559 25494 25373 25249 25141 25131 25268 25228 25171 25444 25560 25530 25488 25493 25477 25568 25583 25554 25678 25683 25760 25813 25918 25930 25922 25976 26016 26022 26137 26099 26092 26054 26048 26105 26190 26169 26212 26189 26232 26262 26227 26214 26124 26044 26009 25858 25813 25672 25671 25756 25745 25718 25695 25587 25600 25512 25416 25258 25163 25177 25132 25102 25135 25096 25131 25204 25386 25471 25642 25633 25726 25702 25770 25808 25861 25852 25913 25927 25965 25984 26070 26090 26072 26006 25977 25951 25946 25886 25989 25924 25967 25986 25930 25940 25943 25939 25947 25900 25966 25918 25852 25880 25989 25978 26032 26012 26054 26096 26048 26127 26107 26033 26033 26035 26012 26091 26031 26122 26044 26094 26100 26156 26176 26218 26223 26132 26212 26245 26234 26293 26260 26239 26298 26306 26332 26334 26556 26588 26509 26452 26448 26447 26417 26398 26338 26252 26206 26133 26200 26120 26085 26017 25912 25725 25972 26052 25999 26154 26177 26203 26195 26167 26154 26173 26152 26125 26055 25971 25925 25982 26004 25998 25970 25995 26017 25997 26112 26123 26191 26193 26236 26168 26161 26194 26172 26201 26173 26196 26177 26106 26112 26076 26144 26102 26051 25958 25999 25946 25949 25957 25978 25950 25982 25930 25992 25993 26084 26022 25974 25854 25772 25772 25962 27630 27628 27519 27480 27320 27245 27263 27191 27198 27083 26990 26940 26926 26895 26910 26930 26877 26858 26813 26733 26733 26708 26569 26348 26137 25913 25753 25820 25840 25724 25739 25755 25662 25775 25799 25797 25780 25719 25637 25634 25621 25628 25728 25825 25915 26064 26160 26265 26336 26402 26439 26398 26462 26491 26537 26587 26604 26669 26686 26674 26666 26685 26680 26670 26622 26540 26523 26506 26491 26461 26481 26485 26513 26540 26558 26554 26526 26568 26508 26450 26471 26511 26485 26434 26401 26339 26255 26264 26214 26199 26281 26245 26190 26258 26212 26196 26182 26165 26136 26088 26032 26027 26044 26076 26197 26241 26221 26310 26388 26483 26567 26686 26726 26788 26830 26902 26981 26995 27029 27031 27049 27013 27013 26986 26970 26946 26887 26853 26808 26725 26639 26635 26608 26578 26552 26440 26340 26316 26275 26280 26253 26211 26199 26156 26056 26011 25925 25900 25875 25780 25796 25705 25785 25803 25755 25760 25743 25749 25766 25791 25821 25798 25761 25664 25570 25508 25465 25461 25512 25564 25743 26087 26248 26308 26368 26344 26271 26262 26146 26294 26331 26392 26401 26357 26325 26287 26431 26353 26373 26261 26185 26244 26198 26166 26163 26169 26145 26183 26158 26133 26086 26069 26058 26021 26018 25987 25956 25957 25918 25840 25784 25769 25793 25787 25766 25768 25771 25663 25788 25821 25818 25902 25960 26011 26039 25994 25928 25886 25831 25773 25706 25601 25449 25399 25399 25403 25401 25410 25421 25481 25542 25601 25626 25609 25558 25524 25555 25549 25526 25598 25668 25765 25788 25798 25807 25812 25828 25877 25884 25884 25888 25939 25953 26029 26122 26204 26337 26386 26468 26569 26589 26558 26537 26522 26441 26329 26346 26391 26393 26298 26231 26143 26128 26119 26110 26112 26054 25968 25889 25829 25842 25862 25859 25830 25797 25749 25688 25581 25495 25344 25219 25120 25039 25000 25029 25004 25043 25075 25106 25132 25122 25075 25028 24997 24965 24912 24895 24865 24844 24817 24796 24734 24696 24673 24637 24647 24618 24597 24560 24538 24512 24495 24496 24531 24554 24646 24723 24850 24962 25008 25018 25269 25381 25389 25396 25373 25416 25481 25635 25774 25901 25977 26045 26088 26094 26033 26096 25872 25705 25485 25289 25123 25027 25012 25009 25152 25281 25420 25465 25508 25507 25548 25603 25664 25672 25642 25565 25518 25462 25453 25443 25413 25419 25430 25374 25348 25384 25340 25332 25297 25227 25191 25132 25148 25193 25285 25231 25231 25193 25160 25239 25288 25340 25304 25299 25271 25284 25236 25224 25162 25083 25088 25051 25112 25128 25067 25013 24965 24926 25002 24978 24978 24920 24920 24774 24644 24603 24610 24599 24653 24658 24627 24764 24860 24921 25062 25136 25182 25202 25142 25131 25182 25122 25062 25060 25060 25021 25043 25094 25182 25197 25217 25261 25178 25158 25103 25080 25049 25049 25068 25025 24990 24904 24849 24823 24749 24627 24528 24448 24398 24391 24433 24462 24481 24476 24454 24535 24553 24537 24540 24604 24682 24776 24847 24921 24955 25022 24995 25020 25003 24959 24916 24962 25021 25063 25065 25066 25039 25022 24999 24989 25014 25013 25001 24907 24833 24788 24720 24712 24675 24704 24612 24632 24658 24688 24710 24693 24603 24487 24361 24283 24194 24147 24103 24050 23960 23933 23866 23805 23736 23713 23757 23764 23734 23671 23610 23604 23692 23844 23930 23932 23868 23751 23653 23536 23406 23362 23372 23411 23482 23617 23771 23955 24017 24030 24106 24153 24234 24465 24478 24411 24294 24226 24238 24174 24119 24076 24051 24110 24232 24264 24352 24430 24534 24579 24600 24611 24565 24499 24437 24375 24328 24407 24487 24599 24722 24827 24898 24924 24949 24973 25017 25057 25095 25182 25224 25266 25243 25203 25118 25068 25005 24921 24845 24760 24774 24870 25006 25123 25159 25150 25184 25205 25222 25275 25400 25500 25574 25633 25670 25692 25697 25673 25742 25822 25870 25896 25916 25905 25894 25855 25814 25771 25710 25621 25482 25369 25287 25376 25458 25628 25778 25911 25987 26095 26144 26154 26126 26061 25967 25948 25954 26024 26127 26196 26226 26241 26243 26213 26202 26174 26136 26053 25964 25880 25814 25753 25708 25624 25570 25540 25566 25640 25704 25794 25867 25886 25883 25841 25852 25880 25933 25960 26004 26051 26068 26170 26216 26294 26330 26321 26284 26256 26254 26266 26303 26300 26302 26279 26265 26219 26175 26096 26023 25986 25966 25977 26041 26084 26126 26199 26254 26306 26335 26327 26353 26367 26361 26431 26445 26419 26405 26373 26345 26348 26302 26226 26174 26091 25958 25865 25783 25733 25661 25555 25477 25467 25450 25382 25367 25418 25547 25730 25896 26043 26158 26252 26344 26390 26442 26470 26536 26584 26625 26678 26716 26757 26827 26889 26932 26966 26968 26886 26781 26651 26543 26448 26364 26239 26199 26159 26093 26090 26082 26081 26109 26073 26072 26065 26141 26215 26325 26388 26463 26541 26622 26698 26750 26802 26826 26841 26831 26807 26808 26816 26809 26820 26820 26805 26767 26745 26718 26675 26652 26624 26601 26602 26591 26606 26640 26672 26743 26751 26770 26763 26781 26797 26783 26771 26657 26481 26295 26216 26271 26412 26524 26551 26534 26547 26623 26632 26590 26529 26467 26400 26390 26353 26319 26247 26191 26278 26398 26466 26518 26560 26598 26619 26607 26613 26620 26656 26680 26672 26732 26778 26856 26940 27016 27054 27086 27079 27022 27001 26993 26972 26967 26964 26977 26997 27032 27037 27081 27110 27140 27105 27099 27110 27107 27125 27129 27152 27175 27185 27177 27205 27227 27253 27209 27176 27154 27154 27139 27136 27144 27152 27204 27242 27290 27317 27347 27382 27363 27319 27299 27308 27304 27290 27301 27309 27284 27273 27252 27255 27245 27213 27186 27197 27161 27170 27184 27185 27163 27172 27184 27173 27197 27232 27240 27200 27180 27202 27200 27258 27275 27317 27314 27377 27413 27419 27437 27442 27393 27288 27197 27159 27136 27129 27132 27123 27152 27187 27240 27297 27346 27385 27406 27369 27352 27338 27342 27351 27390 27411 27434 27475 27484 27520 27510 27459 27368 27250 27176 27109 27038 27005 26937 26932 26924 26895 26923 26950 26998 27008 27012 26957 26998 27024 27034 27045 27060 27076 27071 27117 27150 27189 27223 27241 27231 27229 27217 27235 27241 27243 27262 27253 27258 27261 27279 27299 27286 27270 27249 27259 27300 27309 27373 27378 27387 27426 27449 27463 27502 27508 27464 27433 27399 27400 27397 27414 27414 27406 27402 27397 27373 27397 27390 27310 27211 27143 27072 27039 27030 27060 27092 27125 27146 27202 27236 27257 27244 27171 27105 27088 27098 27115 27127 27106 27079 27054 27027 26990 26928 26894 26832 26759 26671 26618 26570 26532 26564 26615 26669 26715 26789 26868 26966 27017 27058 27060 27081 27084 27129 27142 27186 27220 27239 27265 27286 27266 27236 27123 26994 26870 26730 26621 26538 26444 26377 26300 26264 26289 26368 26455 26477 26504 26555 26628 26687 26746 26788 26852 26903 26936 26955 26979 26992 26978 26938 26923 26901 26910 26891 26859 26782 26701 26643 26571 26483 26446 26373 26193 26075 25973 25951 25954 26056 26128 26214 26277 26369 26421 26479 26523 26522 26500 26465 26468 26502 26549 26582 26592 26579 26566 26505 26440 26381 26322 26238 26150 26046 25967 25955 25965 26063 26140 26220 26267 26349 26444 26510 26571 26560 26555 26568 26588 26601 26605 26530 26494 26411 26366 26297 26228 26207 26164 26075 25989 25891 25796 25760 25709 25729 25719 25693 25691 25687 25701 25760 25832 25948 26022 26110 26163 26166 26154 26185 26205 26178 26112 26053 26007 25952 25820 25631 25432 25308 25219 25225 25328 25346 25365 25335 25445 25543 25707 25805 25842 25865 25876 25935 26007 26076 26156 26213 26253 26295 26327 26309 26284 26185 26116 26028 25938 25798 25704 25612 25513 25418 25385 25360 25478 25622 25749 25874 25980 26097 26130 26183 26265 26314 26351 26358 26377 26398 26410 26427 26421 26357 26290 26219 26177 26136 26074 25999 25939 25866 25819 25752 25691 25590 25442 25330 25197 25093 25090 25116 25238 25390 25523 25605 25634 25607 25489 25367 25308 25351 25564 25674 25775 25917 25925 25990 26002 26097 26188 26134 26120 26067 26035 25973 25909 25913 25955 25953 25945 25924 25906 25985 26053 26141 26268 26371 26511 26621 26700 26791 26848 26864 26876 26903 26885 26842 26735 26617 26457 26301 26163 26033 25932 25836 25748 25694 25638 25559 25460 25402 25401 25445 25482 25582 25711 25805 25905 26030 26128 26199 26263 26317 26298 26291 26323 26331 26372 26399 26391 26365 26386 26347 26250 26154 26067 25903 25730 25545 25369 25249 25163 25096 24973 24902 24842 24810 24915 25007 25100 25217 25357 25511 25684 25840 25957 26055 26161 26232 26298 26360 26412 26469 26507 26469 26470 26434 26430 26426 26385 26328 26269 26219 26192 26136 26150 26133 26019 25917 25936 25954 25975 26013 26084 26187 26364 26473 26547 26633 26618 26584 26538 26522 26546 26539 26549 26550 26545 26514 26497 26460 26412 26311 26137 25974 25857 25750 25710 25634 25554 25533 25531 25638 25751 25912 26069 26149 26156 26121 26087 26097 26211 26368 26522 26613 26719 26765 26780 26739 26668 26565 26431 26361 26278 26272 26251 26226 26215 26135 26099 26072 26025 25932 25871 25743 25638 25567 25512 25514 25611 25759 25870 26017 26137 26201 26227 26241 26197 26163 26096 26065 26033 26027 26113 26134 26177 26152 26129 26087 26033 25969 25873 25758 25651 25571 25482 25412 25355 25294 25300 25275 25217 25136 25197 25299 25402 25542 25708 25850 25994 26077 26148 26187 26227 26256 26355 26406 26400 26360 26292 26229 26191 26117 26025 25941 25891 25824 25700 25591 25491 25361 25195 25054 24958 25002 25118 25212 25442 25632 25825 25992 26124 26188 26203 26175 26154 26128 26151 26127 26060 25973 25904 25829 25743 25657 25602 25518 25410 25253 25157 25098 25035 25015 24973 24940 24955 24982 25045 25078 25155 25257 25416 25597 25795 25971 26154 26309 26465 26620 26730 26849 26973 27059 27097 27113 27120 27132 27156 27159 27149 27133 27097 27040 26964 26870 26789 26638 26469 26277 26106 25978 25865 25813 25725 25714 25643 25727 25878 26056 26214 26291 26341 26373 26434 26473 26511 26498 26451 26426 26406 26392 26353 26304 26215 26075 25990 25949 25887 25819 25784 25734 25704 25586 25510 25442 25342 25200 25008 24862 24721 24713 24792 24853 24983 25065 25149 25204 25296 25352 25377 25386 25424 25433 25463 25502 25478 25444 25337 25225 25103 25080 25129 24978 24779 24541 24371 24225 24114 24019 24051 24082 24024 23966 23893 24011 24158 24208 24137 24096 24085 24148 24252 24279 24338 24377 24527 24567 24608 24555 24493 24382 24316 24284 24244 24158 24117 24065 24032 24087 24097 24080 24044 24031 23896 23728 23625 23745 23910 24078 24224 24311 24394 24437 24498 24565 24696 24871 24965 25024 25036 25057 25092 25107 25051 25031 24945 24882 24806 24755 24686 24606 24504 24370 24286 24260 24215 24223 24201 24219 24201 24363 24516 24716 24922 25088 25252 25378 25501 25612 25652 25710 25755 25773 25880 25968 26033 26030 25960 25869 25781 25716 25631 25573 25507 25421 25357 25294 25226 25160 25068 24952 24836 24720 24637 24571 24532 24533 24581 24576 24581 24638 24679 24667 24594 24529 24538 24506 24458 24406 24322 24221 24153 24155 24114 24052 23998 23892 23752 23591 23460 23401 23326 23251 23170 23210 23300 23351 23439 23469 23442 23418 23390 23325 23305 23308 23451 23576 23734 23830 23925 23986 24018 23961 23978 23959 23947 23953 23965 23992 24027 24060 24099 24115 24140 24102 24074 24051 24020 23991 23979 24076 24215 24325 24438 24525 24583 24732 24900 25075 25119 25147 25166 25283 25346 25393 25382 25404 25396 25400 25375 25399 25309 25254 25152 25030 24918 24847 24789 24783 24830 24871 24835 24839 24790 24738 24709 24712 24683 24732 24788 24868 24923 25058 25161 25252 25295 25265 25199 25162 25160 25183 25166 25184 25159 25118 25065 25006 24956 24878 24775 24660 24587 24547 24605 24579 24601 24567 24598 24635 24677 24681 24646 24599 24601 24514 24410 24385 24399 24446 24484 24488 24528 24511 24470 24474 24494 24554 24647 24753 24849 24927 24961 25013 25027 24977 24938 24855 24792 24798 24789 24780 24845 24826 24858 24879 24950 24919 24847 24768 24642 24554 24635 24619 24627 24676 24772 24848 24929 24992 25002 24976 24960 24971 25028 25093 25230 25259 25295 25335 25376 25330 25243 25196 25206 25173 25113 25049 24953 24908 24859 24809 24771 24760 24854 24866 24840 24809 24800 24748 24680 24662 24667 24654 24709 24678 24608 24527 24493 24501 24597 24604 24590 24562 24530 24478 24518 24454 24400 24353 24333 24294 24291 24315 24392 24399 24429 24464 24463 24474 24467 24409 24433 24413 24405 24409 24410 24434 24405 24420 24412 24453 24430 24601 24570 24490 24577 24661 24711 24815 24906 25030 25104 25192 25294 25374 25407 25392 25407 25439 25450 25419 25403 25352 25298 25238 25154 25038 24927 24879 24784 24709 24708 24712 24820 24850 24861 24841 24817 24885 24956 24955 25154 25177 25224 25298 25285 25290 25279 25300 25369 25401 25464 25526 25554 25538 25451 25416 25411 25369 25378 25346 25314 25271 25246 25233 25173 25138 25133 25121 25175 25227 25210 25157 25113 25125 25179 25287 25280 25143 25113 25001 24919 24880 24898 24903 24955 24950 24945 24950 25026 25074 25013 24939 24910 24912 24911 24958 25152 25314 25560 25864 26251 26520 26578 26468 26183 25917 25560 25211 24917 24699 24685 24946 25099 25192 25236 25528 25910 26159 26268 26279 26160 26101 26088 26119 26120 26162 26191 26178 26125 26094 26089 26069 26084 26091 26251 26330 26241 26074 25931 26002 26198 26507 26756 26809 26839 26860 26913 26915 26933 26983 27059 27187 27296 27343 27394 27440 27497 27522 27543 27587 27646 27709 27791 27886 27976 28015 28019 28020 28050 28072 28125 28157 28172 28152 28133 28104 28091 28044 27985 27881 27758 27639 27477 27317 27137 26993 26823 26659 26522 26448 26437 26512 26508 26564 26819 27089 27465 27815 28037 28209 28352 28458 28536 28605 28627 28672 28755 28767 28790 28748 28607 28447 28259 28158 28127 28044 27924 28017 28265 28353 28357 28356 28397 28445 28536 28606 28689 28755 28787 28826 28847 28870 28883 28877 28842 28798 28721 28640 28619 28578 28531 28421 28315 28274 28248 28151 28072 28001 28027 28025 28041 28158 28287 28322 28359 28374 28410 28403 28441 28496 28596 28671 28726 28721 28623 28494 28412 28292 28215 28143 28063 28012 27953 27937 27889 27869 27868 27840 27773 27702 27610 27496 27370 27288 27241 27149 27009 26888 26697 26520 26349 26276 26206 26149 26066 26021 25916 25872 25849 25782 25700 25593 25531 25349 25719 25794 25827 25716 25679 25734 25766 25754 25804 25712 25687 25634 25613 25636 25644 25643 25672 25690 25690 25694 25656 25559 25408 25276 25160 25044 25072 25124 25192 25295 25355 25300 25197 25185 25216 25247 25326 25377 25462 25532 25602 25588 25505 25370 25254 25181 25139 25125 25087 25088 25052 24997 24951 24973 24958 24961 24993 25025 25089 25188 25289 25391 25400 25420 25392 25356 25307 25262 25207 25214 25176 25177 25226 25195 25042 24879 24830 24821 24759 24699 24668 24688 24755 24812 24884 24953 24988 25086 25063 25051 25072 25072 25137 25204 25234 25350 25369 25526 25493 25477 25401 25315 25281 25264 25264 25249 25233 25264 25294 25268 25265 25188 25132 25080 25008 24971 24928 24868 24822 24781 24775 24789 24802 24803 24837 24833 24888 24886 24896 24879 24892 24902 24933 24914 24886 24876 24882 24876 24926 24960 24980 25006 25005 24991 24896 24795 24728 24636 24646 24635 24513 24440 24366 24320 24273 24257 24184 24203 24185 24332 24441 24502 24523 24493 24473 24467 24430 24338 24241 24186 24149 24147 24164 24159 24245 24204 24219 24142 24000 23920 23812 23699 23627 23579 23522 23408 23308 23349 23396 23355 23382 23418 23463 23520 23576 23647 23604 23630 23670 23697 23757 23799 23953 24092 24208 24258 24313 24389 24461 24552 24463 24368 24299 24242 24192 24172 24124 24060 24052 24057 24094 24138 24161 24170 24180 24221 24325 24322 24352 24384 24441 24447 24401 24309 24269 24287 24343 24432 24565 24669 24723 24753 24762 24807 24803 24633 24481 24319 24210 24121 24071 24031 23974 24006 24003 24049 24046 24066 24104 24150 24132 24135 24134 24133 24159 24251 24250 24251 24272 24298 24294 24218 24122 24061 24011 23941 23871 23781 23638 23556 23480 23504 23527 23576 23675 23783 23892 24003 24093 24151 24113 24043 23972 23887 23842 23918 24016 24106 24208 24282 24342 24414 24460 24480 24463 24422 24448 24473 24505 24476 24410 24423 24425 24405 24330 24350 24365 24381 24382 24350 24366 24391 24467 24464 24391 24335 24370 24421 24502 24575 24646 24669 24643 24614 24508 24497 24543 24624 24675 24683 24799 24821 24875 24906 24874 24862 24814 24756 24629 24540 24447 24385 24385 24448 24511 24634 24774 24910 24994 24990 24907 24858 24816 24861 24900 24976 25049 25124 25128 25136 25125 25051 24977 24888 24871 24870 24862 24835 24839 24857 24898 24912 24960 24936 24877 24797 24741 24651 24637 24584 24517 24494 24471 24466 24559 24595 24671 24716 24711 24732 24731 24792 24817 24880 24943 24987 25039 24994 24906 24810 24682 24554 24483 24445 24402 24377 24312 24373 24381 24300 24261 24313 24296 24327 24394 24434 24444 24449 24456 24535 24584 24715 24835 24930 25059 25169 25273 25320 25334 25364 25395 25291 25161 25067 25054 25037 25057 25042 25035 24970 24893 24829 24796 24724 24612 24556 24541 24540 24586 24601 24559 24576 24622 24661 24729 24781 24795 24833 24910 25017 25114 25175 25228 25254 25280 25268 25269 25233 25132 25102 25113 25135 25135 25131 25137 25072 24987 24918 24819 24742 24678 24600 24589 24654 24709 24721 24759 24788 24726 24750 24719 24728 24755 24827 24898 25002 25125 25247 25332 25427 25479 25568 25689 25695 25644 25582 25493 25442 25429 25358 25339 25313 25342 25342 25374 25403 25373 25404 25442 25377 25396 25396 25617 25645 25636 25567 25444 25307 25176 25087 25015 25007 25062 25132 25210 25280 25286 25341 25294 25230 25185 25141 25159 25169 25183 25203 25182 25146 25107 25076 24989 24873 24823 24869 24941 25065 25156 25193 25191 25177 25107 25028 24893 24818 24849 24807 24753 24738 24754 24800 24842 24866 24852 24829 24788 24781 24747 24688 24672 24665 24634 24593 24577 24562 24556 24553 24540 24559 24562 24592 24635 24704 24789 24865 24897 24917 24877 24824 24747 24713 24790 24897 25059 25146 25208 25151 25143 25174 25244 25255 25212 25174 25151 25153 25162 25212 25260 25299 25341 25352 25323 25370 25369 25356 25342 25277 25261 25240 25219 25200 25199 25191 25147 25085 25078 25126 25251 25360 25428 25452 25499 25502 25602 25685 25696 25703 25670 25648 25654 25673 25659 25679 25677 25694 25798 25899 25936 25905 25892 25869 25831 25818 25777 25729 25651 25571 25582 25623 25686 25709 25683 25678 25680 25750 25865 25981 26081 26180 26262 26350 26378 26366 26351 26364 26427 26457 26480 26510 26463 26470 26486 26570 26540 26532 26474 26390 26318 26263 26198 26153 26075 26022 25961 26060 26056 26062 26098 26127 26173 26257 26375 26454 26511 26581 26629 26617 26620 26632 26651 26680 26727 26842 26877 26906 26903 26883 26836 26747 26569 26389 26230 26114 26056 26025 25972 25900 25828 25791 25693 25587 25518 25445 25399 25358 25379 25438 25557 25675 25798 25861 25847 25864 25869 25888 25965 26060 26090 26113 26135 26283 26316 26191 26091 26041 25972 25922 25901 25868 25794 25903 25984 25983 25970 25872 25784 25722 25700 25692 25724 25813 25843 25829 25800 25777 25768 25806 25863 25916 26004 26062 26113 26108 26133 26188 26205 26160 26066 26016 25996 26052 26135 26195 26273 26306 26357 26355 26282 26143 26045 25930 25855 25771 25799 25822 25779 25777 25744 25698 25696 25763 25869 25935 26030 26094 26101 26136 26173 26225 26265 26297 26283 26296 26205 26175 26152 26005 25823 25746 25656 25575 25478 25438 25412 25403 25387 25390 25332 25348 25378 25378 25362 25285 25257 25201 25244 25300 25287 25348 25428 25486 25564 25667 25733 25744 25777 25867 25996 26154 26257 26385 26388 26321 26275 26211 26207 26187 26154 26173 26180 26071 25992 25868 25709 25594 25475 25326 25277 25252 25279 25333 25403 25489 25537 25611 25646 25712 25717 25740 25741 25797 25839 25945 26049 26189 26262 26337 26354 26209 26150 26056 26000 26023 26039 26070 26068 26027 25966 25859 25698 25459 25263 25105 25073 25107 25198 25332 25421 25572 25748 25898 25970 26036 26068 26119 26218 26303 26380 26432 26526 26623 26699 26654 26586 26503 26433 26423 26427 26429 26388 26334 26213 26101 25906 25702 25516 25381 25316 25251 25231 25214 25171 25115 25075 25000 24838 24732 24656 24624 24632 24640 24707 24745 24805 24909 24994 25044 25078 25095 25171 25256 25353 25394 25369 25368 25296 25147 24955 24769 24663 24593 24571 24588 24615 24660 24712 24701 24803 24864 24915 24920 25012 25107 25165 25315 25468 25506 25440 25339 25302 25265 25209 25208 25208 25255 25281 25337 25387 25449 25430 25388 25228 25149 25123 25168 25216 25167 25114 25055 24968 24911 24887 24802 24774 24721 24704 24666 24650 24713 24816 24911 25020 25110 25154 25210 25292 25361 25460 25545 25621 25661 25680 25738 25814 25867 25828 25833 25747 25608 25520 25475 25444 25386 25297 25223 25156 25055 25033 25009 25007 24988 25044 24997 24943 24911 24951 24939 24902 24882 24891 24926 24998 25094 25208 25337 25451 25553 25564 25551 25539 25558 25565 25557 25573 25557 25552 25541 25514 25405 25251 25114 24943 24882 24827 24786 24701 24650 24615 24570 24482 24422 24402 24441 24479 24556 24619 24655 24677 24707 24689 24657 24623 24676 24718 24798 24828 24910 24935 24923 24896 24767 24634 24546 24488 24379 24370 24353 24377 24352 24319 24296 24225 24240 24342 24506 24683 24800 24920 25013 25113 25205 25281 25300 25282 25279 25244 25248 25262 25282 25265 25219 25133 25068 24960 24857 24773 24725 24698 24655 24751 24847 24841 25042 25127 25191 25255 25298 25394 25460 25607 25713 25842 25989 26067 26091 26001 25932 25894 25867 25909 25926 25920 25953 25974 26018 26137 26189 26241 26269 26297 26323 26371 26392 26410 26441 26485 26544 26575 26592 26560 26579 26669 26630 26618 26612 26630 26582 26529 26430 26333 26281 26256 26236 26194 26134 26077 26048 26006 26010 25950 25877 25843 25893 25960 26035 26165 26310 26459 26566 26661 26734 26744 26760 26708 26679 26586 26486 26456 26488 26646 26846 27031 27173 27250 27295 27363 27464 27616 27807 27988 28173 28356 28540 28663 28749 28844 28937 28980 29014 29045 29077 29070 29058 28974 28825 28653 28494 28371 28227 28128 28001 27868 27609 27154 26555 26696 26969 27120 27233 27387 27661 27917 28094 28210 28288 28310 28202 28030 27905 27764 27663 27555 27453 27376 27334 27292 27245 27133 26996 26929 27150 27266 27386 27533 27607 27626 27658 27697 27780 27857 27895 27942 27974 28030 28104 28139 28172 28186 28168 28126 28052 28015 27971 27942 27912 27885 27877 27872 27885 27893 27828 27756 27725 27726 27766 27793 27876 27951 28022 28075 28132 28156 28079 28034 28012 27964 27978 27977 27987 27991 28012 28031 28003 27907 27834 27745 27723 27694 27701 27684 27688 27707 27698 27683 27576 27485 27433 27392 27379 27376 27381 27354 27359 27364 27312 27212 27102 26995 26962 26897 26864 26844 26830 26799 26780 26735 26611 26493 26390 26333 26289 26214 26175 26110 26049 25963 25860 25713 25590 25474 25433 25374 25304 25244 25172 25062 24976 24877 24778 24642 24549 24478 24428 24494 24615 24677 24606 24530 24395 24260 24077 23978 24069 24134 24108 24119 24127 24083 24216 24540 24814 25184 25505 25846 26047 26243 26435 26650 26847 27108 27292 27411 27444 27385 27283 27113 26904 26657 26334 26022 25731 25512 25372 25259 25196 25117 25056 24995 24955 24911 24823 24744 24759 24497 24975 24893 24771 24711 24600 24451 24337 24092 24039 23937 23903 23948 24005 24121 24144 24162 24141 24095 24075 23832 23765 23985 23908 23991 23997 24064 24334 24502 24543 24750 25021 25318 25504 25466 25407 25303 25263 25207 25169 25112 25072 24911 24735 24560 24512 24602 24747 24923 25117 25212 25371 25505 25582 25699 25924 26134 26381 26576 26775 26948 27098 27241 27343 27410 27429 27464 27483 27487 27492 27547 27592 27621 27624 27564 27451 27355 27181 27062 26959 26853 26785 26757 26846 26897 26875 26766 26620 26560 26605 26740 26857 26942 26970 27084 27242 27415 27531 27619 27702 27811 27915 27968 28023 28051 28082 28094 28063 27943 27808 27738 27713 27787 27892 28010 28119 28173 28135 27918 27587 27415 27386 27512 27620 27634 27621 27649 27702 27823 27961 28151 28339 28427 28525 28633 28733 28739 28704 28713 28683 28641 28584 28489 28414 28319 28260 28237 28210 28183 28175 28161 28142 28113 27927 27785 27664 27560 27519 27461 27443 27415 27376 27320 27240 27187 27164 27162 27176 27175 27205 27221 27228 27251 27188 27110 27028 26978 26985 27000 27020 27070 27086 27133 27169 27174 27125 27095 27066 27047 27058 27089 27106 27130 27132 27135 27071 27017 27009 27018 27031 27074 27127 27173 27211 27250 27229 27229 27204 27230 27223 27188 27147 27138 27130 27099 27064 26957 26819 26670 26560 26435 26327 26229 26125 26067 26015 25937 25833 25722 25670 25638 25668 25760 25878 26003 26136 26233 26266 26202 26170 26191 26234 26295 26380 26415 26435 26476 26513 26416 26300 26211 26170 26146 26155 26153 26156 26158 26197 26239 26219 26160 26123 26105 26115 26128 26081 25993 25933 25825 25712 25472 25343 25291 25319 25377 25349 25342 25366 25378 25384 25327 25232 25074 24964 24999 25060 25043 25050 25031 25083 25123 25132 25105 25127 25164 25237 25311 25376 25401 25414 25436 25511 25464 25396 25391 25381 25413 25495 25522 25556 25609 25666 25746 25726 25698 25671 25652 25634 25658 25608 25583 25563 25567 25509 25459 25429 25432 25506 25524 25558 25581 25569 25586 25494 25379 25250 25245 25231 25291 25290 25270 25358 25435 25488 25497 25367 25192 25150 25156 25017 24873 24773 24682 24628 24641 24639 24686 24779 24940 25108 25312 25505 25658 25766 25857 25961 26075 26184 26209 26219 26241 26288 26363 26443 26504 26516 26527 26530 26526 26487 26444 26454 26474 26511 26543 26580 26610 26622 26624 26646 26618 26520 26479 26502 26533 26535 26589 26587 26618 26596 26561 26414 26296 26181 26072 25945 25879 25828 25769 25691 25617 25488 25280 25133 25167 25238 25359 25467 25516 25573 25553 25472 25400 25285 25163 25059 25008 25041 25092 25149 25253 25330 25456 25538 25486 25471 25512 25502 25505 25491 25457 25441 25487 25534 25550 25465 25443 25403 25390 25378 25344 25330 25316 25386 25452 25455 25466 25488 25544 25600 25666 25697 25740 25768 25820 25933 25962 25922 25894 25833 25781 25743 25714 25660 25603 25563 25594 25530 25479 25506 25545 25606 25667 25724 25758 25720 25654 25584 25526 25475 25437 25350 25235 25160 25089 25087 25100 25087 25053 25084 25179 25291 25455 25583 25625 25841 25945 26164 26434 26662 26717 26691 26702 26723 26821 26962 26937 27031 27168 27343 27440 27553 27645 27688 27695 27770 27805 27760 27698 27605 27552 27545 27343 27206 27042 26926 26868 26758 26686 26595 26489 26415 26243 26048 25850 25716 25692 25689 25711 25712 25725 25716 25693 25539 25278 24989 24737 24584 24494 24469 24531 24629 24754 24999 25136 25098 24998 24993 24965 25003 25016 25204 25322 25459 25455 25353 25359 25270 25106 25034 24963 24893 24818 24858 24843 24812 24793 24761 24756 24788 24831 24788 24694 24637 24552 24578 24626 24562 24497 24511 24613 24629 24591 24533 24490 24573 24635 24660 24698 24751 24883 24974 25111 25310 25408 25389 25349 25311 25167 25116 24999 24908 24838 24815 24724 24642 24615 24558 24558 24564 24533 24426 24367 24292 24223 24179 24239 24260 24272 24280 24278 24184 24171 24091 24082 24116 24091 24049 24080 24115 24200 24261 24293 24336 24468 24619 24751 24910 25173 25391 25632 25836 25952 26065 26139 26256 26321 26281 26330 26271 26238 26127 26012 25861 25685 25510 25390 25331 25274 25240 25255 25295 25313 25308 25249 25221 25232 25278 25314 25372 25418 25456 25482 25515 25544 25493 25443 25383 25329 25319 25342 25387 25448 25559 25640 25752 25871 26028 26054 26097 26099 26217 26123 26047 26015 25870 25633 25389 25206 25108 25074 25009 24948 24925 24882 24852 24767 24716 24792 24929 25015 25023 25012 24998 24970 24986 24954 24923 24905 24876 24848 24906 24941 24967 24973 25015 24937 24922 24882 24898 24913 24850 24874 24822 24819 24852 24864 24847 24809 24721 24766 24903 25021 25153 25248 25242 25174 25159 25113 25007 24949 24990 25122 25239 25316 25322 25309 25286 25257 25245 25239 25319 25417 25496 25585 25673 25763 25904 25996 26078 26129 26151 26170 26150 26175 26231 26296 26372 26322 26274 26215 26079 25938 25836 25768 25667 25588 25554 25540 25445 25465 25599 25658 25777 25880 26023 26117 26194 26263 26267 26271 26251 26233 26254 26253 26251 26307 26427 26593 26745 26915 27068 27208 27345 27473 27499 27503 27482 27475 27479 27498 27528 27569 27533 27535 27555 27544 27489 27475 27518 27606 27670 27713 27730 27727 27669 27691 27658 27555 27359 27130 26974 26919 26919 26950 26993 27008 26996 26999 26914 26800 26714 26640 26629 26685 26756 26839 26981 27059 27161 27151 27211 27251 27240 27214 27210 27176 27184 27115 27139 27272 27287 27183 27023 26963 26842 26756 26661 26610 26432 26385 26216 26068 25954 25829 25669 25670 25746 25808 25815 25868 25936 25929 25892 25805 25789 25831 25891 25967 26033 26142 26273 26348 26443 26449 26338 26243 26159 26100 26013 25954 25922 25804 25797 25794 25714 25689 25639 25573 25634 25734 25781 25819 25714 25787 25761 25714 25719 25702 25633 25556 25442 25451 25545 25574 25575 25570 25610 25618 25572 25577 25549 25530 25494 25437 25384 25368 25414 25414 25394 25302 25270 25217 25297 25426 25521 25567 25597 25606 25589 25484 25401 25383 25374 25368 25395 25424 25482 25558 25695 25771 25877 25963 26068 26134 26149 26222 26160 26167 26149 26155 26150 26176 26213 26264 26285 26353 26508 26608 26686 26775 26886 26965 26995 27017 27074 27152 27269 27380 27440 27511 27566 27587 27613 27552 27485 27428 27385 27371 27334 27297 27271 27222 27234 27205 27109 27029 26937 26896 26859 26930 26946 27058 27240 27288 27324 27345 27364 27239 27228 27165 27127 27105 27065 27034 26999 26988 26981 26925 26865 26801 26718 26696 26763 26869 27030 27146 27262 27395 27453 27486 27510 27527 27549 27561 27545 27512 27547 27563 27552 27522 27474 27403 27333 27311 27243 27217 27233 27225 27232 27214 27126 27020 26907 26819 26724 26581 26475 26391 26321 26304 26442 26579 26755 26877 26984 27087 27200 27310 27421 27524 27603 27678 27749 27786 27799 27792 27790 27774 27782 27808 27834 27845 27843 27856 27861 27843 27839 27764 27777 27807 27890 27875 27922 27959 27992 27976 27867 27701 27603 27533 27420 27349 27269 27194 27124 27054 27005 26976 26931 26897 26875 26892 26933 26936 26963 26953 26927 26990 27013 27047 27029 26984 26962 26942 26949 26958 27031 27116 27199 27287 27380 27439 27455 27477 27519 27556 27567 27588 27605 27651 27757 27833 27830 27793 27795 27701 27644 27561 27526 27467 27399 27288 27174 27012 26836 26691 26588 26631 26773 27007 27259 27441 27610 27740 27868 27939 27985 28008 28035 28032 28005 27988 27982 27967 27965 27952 27918 27875 27903 27947 28016 28061 28119 28197 28234 28276 28336 28315 28350 28369 28372 28313 28296 28261 28205 28204 28164 28142 28010 27885 27802 27746 27641 27535 27539 27553 27618 27730 27868 27977 28046 28081 28117 28164 28199 28234 28290 28339 28388 28410 28443 28435 28390 28361 28353 28381 28390 28411 28458 28493 28517 28537 28502 28453 28462 28462 28460 28461 28405 28306 28324 28267 28213 28072 27880 27682 27545 27380 27284 27245 27293 27322 27386 27447 27481 27501 27497 27532 27585 27610 27634 27654 27747 27819 27929 28039 28113 28126 28170 28200 28226 28296 28360 28396 28468 28543 28595 28585 28568 28534 28535 28479 28365 28366 28277 28170 28098 27990 27905 27798 27618 27434 27364 27302 27216 27324 27425 27512 27535 27521 27486 27459 27426 27391 27380 27389 27368 27329 27319 27349 27390 27464 27496 27577 27604 27659 27777 27905 28010 28073 28167 28192 28236 28282 28382 28402 28417 28379 28282 28229 28158 28025 27967 27903 27860 27741 27642 27610 27508 27462 27415 27385 27453 27542 27640 27822 27984 28089 28153 28224 28300 28355 28398 28432 28431 28451 28439 28433 28432 28430 28444 28462 28511 28575 28632 28663 28713 28766 28837 28871 28878 28836 28743 28673 28599 28497 28395 28277 28174 28103 27966 27751 27586 27400 27337 27345 27442 27591 27712 27861 27971 28080 28123 28154 28183 28219 28268 28310 28353 28371 28367 28362 28376 28368 28314 28268 28229 28165 28140 28080 28035 27979 27940 27916 27904 27804 27721 27665 27595 27565 27447 27335 27163 27061 26932 26799 26740 26658 26589 26534 26548 26555 26603 26732 26793 26910 27000 27041 27007 26972 26974 26962 27003 27037 27139 27200 27286 27395 27485 27581 27662 27724 27810 27838 27874 27859 27844 27822 27792 27767 27687 27566 27428 27308 27176 27115 27075 27003 26964 26899 26831 26806 26884 27017 27148 27300 27389 27488 27528 27572 27631 27645 27696 27718 27690 27675 27661 27670 27696 27726 27816 27890 27973 28066 28146 28187 28259 28272 28307 28371 28454 28543 28623 28678 28709 28689 28614 28517 28508 28494 28492 28442 28360 28292 28179 28108 27986 27818 27570 27402 27184 27089 27064 27092 27156 27226 27254 27319 27385 27469 27451 27421 27418 27444 27451 27480 27460 27486 27514 27534 27611 27614 27635 27704 27716 27806 27906 27963 28035 28058 28147 28218 28280 28250 28288 28281 28237 28190 28119 28040 27990 27940 27953 27943 27842 27669 27456 27284 27109 26926 26746 26628 26625 26642 26663 26697 26653 26563 26530 26537 26558 26560 26578 26603 26619 26657 26730 26832 26895 26913 26933 26980 27032 27084 27150 27201 27236 27261 27270 27292 27224 27129 26985 26915 26894 26947 27050 27129 27110 27172 27234 27225 27195 27111 27025 26970 26915 26885 26913 26958 26999 27054 27150 27207 27206 27160 27146 27169 27170 27181 27149 27129 27098 27086 27115 27093 27119 27167 27183 27275 27340 27409 27435 27456 27491 27420 27372 27256 27181 27088 27115 27104 27130 27131 27131 27071 27053 26979 26854 26698 26549 26503 26526 26528 26622 26654 26800 26899 27035 27110 27185 27225 27244 27316 27363 27374 27396 27402 27404 27400 27325 27257 27231 27248 27249 27315 27419 27447 27434 27446 27388 27287 27157 27058 26951 26886 26896 26924 26982 26944 26971 26963 26897 26785 26662 26498 26435 26371 26362 26358 26489 26659 26816 26958 27050 27098 27171 27256 27311 27359 27436 27529 27616 27716 27796 27846 27865 27897 27940 27996 28067 28111 28160 28186 28199 28196 28153 28058 27941 27848 27758 27682 27627 27573 27508 27481 27353 27181 26980 26772 26590 26424 26302 26187 26101 26046 25970 25968 26014 25959 25889 25825 25767 25771 25797 25798 25837 25909 26036 26144 26277 26387 26460 26510 26612 26670 26800 26981 27111 27236 27333 27373 27358 27335 27332 27351 27413 27435 27431 27453 27442 27441 27428 27369 27258 27155 27093 27049 26958 26915 26822 26770 26746 26806 26840 26794 26841 26892 26936 27072 27195 27323 27444 27583 27717 27817 27849 27879 27911 27972 28055 28108 28173 28196 28248 28309 28360 28356 28352 28325 28326 28349 28347 28385 28429 28468 28496 28537 28540 28488 28423 28379 28354 28362 28381 28387 28398 28408 28414 28416 28348 28291 28249 28178 28148 28128 28110 28094 28051 27991 27954 27928 27801 27607 27337 27298 27447 27706 27939 28115 28336 28421 28497 28508 28440 28399 28378 28321 28315 28350 28348 28317 28199 28160 28064 28129 27977 27795 27674 27564 27422 27323 27268 27223 27159 27186 27290 27271 27275 27317 27372 27419 27488 27579 27526 27505 27445 27418 27409 27346 27331 27300 27234 27226 27275 27387 27497 27649 27794 27913 27978 27979 27999 27968 27942 27943 27927 27912 27836 27784 27790 27803 27875 27925 27898 27828 27732 27708 27686 27715 27788 27877 27926 27828 27792 27745 27690 27630 27613 27598 27627 27598 27615 27658 27688 27689 27636 27559 27466 27404 27380 27459 27524 27535 27580 27673 27828 27987 28075 28142 28200 28234 28280 28327 28326 28326 28312 28341 28309 28288 28217 28117 28039 27986 27946 27906 27908 27869 27862 27853 27840 27805 27723 27664 27663 27719 27763 27801 27851 27894 27981 28018 28016 27902 27729 27533 27400 27311 27273 27268 27284 27310 27312 27316 27264 27162 27081 27024 27000 27009 26999 27005 27001 26994 27005 26973 26899 26824 26775 26745 26709 26704 26679 26656 26631 26628 26617 26541 26470 26415 26394 26423 26483 26553 26633 26725 26798 26877 26824 26725 26676 26644 26659 26692 26725 26757 26803 26843 26883 26895 26844 26794 26776 26795 26842 26881 26918 26939 26992 27022 27071 27057 27020 26977 27008 27047 27097 27137 27193 27243 27293 27353 27395 27379 27365 27341 27363 27409 27457 27490 27522 27543 27580 27616 27634 27616 27597 27579 27617 27662 27704 27734 27774 27797 27823 27850 27846 27843 27868 27925 27989 28054 28129 28186 28241 28291 28326 28365 28363 28352 28351 28372 28439 28469 28530 28582 28619 28648 28694 28693 28658 28614 28564 28570 28573 28600 28617 28634 28648 28666 28663 28607 28528 28465 28426 28381 28340 28331 28286 28256 28219 28205 28100 27993 27896 27878 27836 27850 27841 27853 27840 27865 27830 27727 27619 27555 27510 27503 27521 27527 27536 27544 27557 27518 27412 27310 27249 27238 27254 27259 27269 27284 27295 27317 27288 27196 27099 27016 26977 26961 26975 26966 26968 26977 26952 26864 26719 26557 26487 26453 26451 26450 26471 26483 26473 26443 26317 26139 25924 25739 25596 25465 25389 25333 25301 25283 25262 25223 25123 25058 25022 25036 25053 25108 25138 25179 25188 25231 25218 25186 25153 25147 25162 25207 25240 25286 25336 25371 25441 25490 25492 25480 25470 25516 25545 25596 25626 25672 25687 25704 25713 25691 25643 25634 25642 25693 25740 25795 25863 25979 26107 26186 26182 26111 26014 25927 25880 25885 25937 25993 26044 26048 26015 25951 25800 25599 25381 25222 25148 25408 25754 26100 26433 26693 26927 27045 27160 27307 27453 27557 27616 27625 27666 27657 27681 27655 27628 27594 27537 27462 27378 27312 27232 27158 27140 27142 27206 27286 27354 27369 27420 27490 27607 27683 27727 27728 27714 27680 27634 27616 27558 27463 27362 27312 27287 27278 27230 27211 27156 27108 27029 26927 26752 26580 26456 26341 26246 26200 26156 26130 26101 26061 26015 25991 25970 25962 26033 26092 26223 26316 26398 26469 26523 26593 26616 26587 26535 26491 26443 26409 26387 26330 26268 26195 26128 26090 26024 25947 25847 25796 25793 25796 25828 25845 25810 25786 25782 25804 25788 25780 25800 25837 25907 25984 26054 26130 26189 26262 26334 26369 26336 26259 26176 26138 26130 26181 26253 26323 26389 26454 26448 26416 26302 26262 26255 26249 26236 26197 26178 26127 26103 26092 26059 25974 25826 25734 25701 25702 25744 25777 25820 25880 25975 26074 26174 26244 26312 26336 26396 26449 26498 26501 26509 26509 26509 26532 26531 26491 26452 26429 26404 26384 26349 26333 26323 26325 26357 26400 26390 26365 26311 26281 26304 26345 26379 26410 26412 26420 26425 26442 26423 26413 26391 26376 26366 26375 26428 26451 26480 26513 26554 26595 26560 26569 26517 26471 26440 26423 26420 26431 26438 26444 26453 26470 26425 26340 26300 26287 26311 26306 26327 26312 26315 26290 26282 26213 26128 26062 26055 26055 26076 26079 26086 26083 26097 26093 26079 26008 25937 25888 25874 25887 25878 25894 25900 25909 25916 25929 25930 25857 25797 25755 25747 25750 25757 25759 25762 25735 25746 25740 25709 25628 25549 25526 25518 25561 25579 25594 25600 25589 25579 25577 25544 25463 25421 25407 25430 25425 25407 25392 25384 25384 25374 25369 25313 25215 25170 25172 25237 25264 25280 25243 25209 25215 25214 25228 25202 25146 25126 25117 25137 25140 25121 25081 25054 25040 25059 25069 25086 25109 25100 25099 25161 25207 25195 25161 25085 25036 25012 24992 24957 24892 24848 24842 24854 24904 24930 24950 24959 24958 24973 25019 25069 25094 25134 25188 25250 25305 25377 25420 25446 25468 25521 25567 25614 25650 25682 25726 25732 25722 25729 25711 25684 25708 25724 25735 25697 25660 25589 25546 25533 25561 25598 25580 25579 25550 25530 25494 25455 25370 25288 25196 25095 25036 24931 24884 24835 24926 25075 25176 25197 25196 25167 25199 25210 25237 25227 25205 25263 25250 25287 25314 25302 25286 25284 25450 25826 26256 26701 27097 27448 27748 27982 28169 28313 28480 28590 28710 28746 28749 28691 28626 28512 28484 28401 28402 28448 28514 28435 28508 28712 28822 28911 29048 29125 29300 29399 29564 29688 29771 29925 30024 30097 30145 30185 30180 30078 29997 29879 29670 29340 29441 29417 29372 29428 29497 29654 29815 29917 29931 29759 29730 29771 29819 29891 29954 30036 30111 30158 30196 30259 30299 30267 30241 30222 30178 30143 29969 29792 29747 29724 29691 29592 29441 29330 29216 29110 29009 28942 28897 28843 28842 28821 28754 28751 28709 28584 28463 28342 28219 28087 27993 27904 27780 27630 27384 27103 26868 26683 26539 26508 26431 26387 26377 26351 26343 26226 26069 25839 25657 25596 25601 25645 25663 25668 25641 25603 25640 25597 25527 25507 25524 25565 25642 25770 25865 26018 26196 26331 26510 26482 26350 26264 26203 26220 26250 26277 26327 26362 26383 26416 26451 26412 26313 26171 26040 25977 25932 25873 25872 25895 25931 25878 25937 25969 25920 25835 25819 25729 25744 25806 25845 25946 25958 26028 26069 26159 26193 26121 26062 25973 25940 25917 25982 25973 26032 26064 26079 26180 26246 26249 26218 26169 26215 26268 26310 26391 26479 26661 26744 26814 26876 26929 26928 26948 26996 27029 27147 27228 27330 27506 27671 27835 27951 28045 28054 27957 27917 27937 27863 27840 27780 27777 27700 27688 27651 27660 27676 27657 27643 27610 27585 27564 27545 27480 27476 27448 27399 27363 27351 27259 27168 27092 27093 27116 27134 27169 27184 27166 27175 27150 27159 27119 27020 26933 26901 26857 26807 26861 26836 26834 26856 26841 26786 26770 26774 26751 26728 26611 26549 26532 26507 26549 26578 26621 26575 26617 26612 26630 26541 26498 26450 26473 26484 26493 26481 26473 26468 26489 26586 26522 26445 26457 26414 26285 26257 26222 26196 26180 26121 26108 26096 26092 26057 25974 25898 25847 25781 25763 25767 25767 25790 25843 25806 25796 25804 25753 25727 25695 25740 25736 25778 25801 25850 25877 25955 25994 26058 26083 26083 26156 26134 26187 26256 26285 26291 26326 26336 26364 26340 26300 26265 26212 26175 26200 26202 26189 26229 26217 26135 26222 26244 26299 26342 26353 26431 26487 26585 26680 26671 26733 26672 26604 26596 26637 26597 26637 26691 26753 26769 26817 26805 26779 26784 26830 26870 26910 26932 26860 26781 26706 26721 26676 26702 26726 26758 26805 26834 26851 26808 26765 26664 26594 26572 26536 26525 26505 26446 26436 26493 26555 26564 26518 26513 26539 26544 26531 26487 26375 26303 26294 26224 26213 26250 26246 26387 26467 26341 26318 26335 26313 26340 26370 26360 26468 26555 26516 26541 26666 26665 26616 26576 26525 26519 26527 26617 26593 26639 26667 26676 26647 26586 26466 26388 26360 26357 26357 26428 26511 26538 26560 26547 26463 26422 26307 26134 26079 25995 25922 25852 25861 25935 25975 25963 25927 25867 25737 25753 25616 25606 25602 25522 25520 25495 25518 25561 25646 25561 25522 25585 25656 25628 25640 25595 25629 25589 25591 25535 25433 25461 25460 25503 25564 25639 25751 25841 25891 25958 26011 26062 26082 26055 26127 26151 26294 26298 26292 26264 26284 26232 26209 26210 26089 26016 25920 25902 25816 25827 25785 25703 25695 25640 25686 25711 25738 25769 25760 25667 25615 25582 25614 25635 25735 25791 25795 25727 25704 25674 25671 25700 25745 25679 25707 25751 25834 25855 25797 25767 25751 25736 25752 25955 25973 25946 25902 25871 25851 25801 25744 25660 25642 25581 25642 25711 25771 25765 25784 25859 25871 25904 25864 25944 25883 25811 25812 25839 25859 25822 25851 25916 26034 26059 26085 26157 26231 26319 26379 26504 26601 26732 26764 26847 26904 26952 26888 26904 26786 26799 26735 26663 26621 26603 26604 26655 26743 26796 26754 26751 26690 26712 26689 26742 26763 26841 26882 26914 26979 26987 26984 26876 26830 26809 26863 26935 27004 27090 27110 27173 27181 27254 27335 27259 27304 27231 27208 27177 27164 27069 27048 26981 26923 26837 26729 26615 26511 26510 26500 26425 26350 26301 26258 26218 26173 26133 26107 26030 25993 26014 25985 25946 25923 25881 25965 26057 26132 26274 26351 26326 26315 26287 26276 26251 26234 26223 26253 26222 26176 26226 26226 26201 26246 26302 26294 26345 26400 26471 26495 26524 26518 26504 26507 26549 26586 26627 26642 26625 26693 26644 26660 26670 26685 26658 26645 26691 26601 26489 26440 26437 26396 26370 26311 26311 26323 26330 26384 26437 26403 26425 26418 26396 26431 26491 26503 26514 26503 26515 26516 26520 26507 26436 26351 26270 26158 26120 26087 26102 26166 26212 26285 26306 26387 26460 26543 26610 26579 26590 26621 26635 26632 26569 26524 26501 26489 26477 26515 26538 26618 26681 26743 26790 26825 26823 26845 26829 26797 26846 26861 26850 26831 26831 26782 26802 26761 26659 26598 26666 26666 26715 26808 26764 26688 26651 26634 26580 26559 26535 26490 26459 26412 26359 26297 26189 26116 26086 26122 26148 26160 26144 26116 26149 26135 26117 26099 26038 26058 26038 26000 25961 25987 25987 25996 25981 26006 26004 25973 25905 25858 25826 25772 25721 25695 25664 25616 25648 25722 25777 25829 25851 25881 25856 25808 25843 25904 25900 25907 25961 25995 25994 25988 25964 25941 25972 25993 26043 26123 26215 26309 26400 26482 26560 26555 26567 26672 26713 26743 26725 26724 26686 26618 26586 26547 26449 26323 26255 26226 26185 26152 26147 26181 26220 26221 26279 26312 26375 26346 26346 26361 26323 26291 26291 26296 26311 26371 26371 26394 26383 26414 26514 26481 26693 26689 26773 26760 26709 26650 26583 26447 26321 26208 26124 26025 26021 26029 25991 25971 25990 25970 26018 26041 26042 26057 25993 26022 26002 25967 25980 25975 26038 26065 26130 26122 26073 26015 26021 25915 25891 25948 25925 25942 25922 25870 25826 25823 25780 25717 25653 25717 25710 25657 25670 25693 25727 25761 25764 25767 25791 25774 25769 25738 25700 25663 25651 25613 25594 25615 25612 25677 25660 25650 25642 25640 25629 25629 25609 25626 25635 25628 25591 25527 25500 25554 25637 25710 25734 25703 25717 25767 25714 25662 25702 25808 25869 25877 25881 25884 25904 25860 25800 25828 25836 25856 25959 25998 25970 25893 25820 25773 25747 25804 25822 25865 25909 25910 25913 25913 25974 26031 26031 26102 26163 26130 26139 26136 26145 26166 26182 26176 26202 26236 26237 26192 26270 26314 26353 26370 26424 26416 26399 26392 26380 26346 26324 26296 26359 26396 26447 26481 26524 26521 26542 26545 26577 26605 26619 26599 26514 26432 26386 26338 26278 26210 26260 26345 26381 26424 26489 26443 26474 26521 26569 26558 26591 26580 26567 26524 26451 26313 26232 26163 26105 26124 26134 26109 26100 26048 26029 26003 26015 25920 25842 25785 25748 25774 25794 25776 25716 25704 25690 25727 25663 25522 25390 25238 25142 25080 25037 24982 24920 24998 25105 25141 25208 25273 25306 25273 25216 25207 25230 25200 25160 25141 25150 25168 25152 25177 25143 25081 25058 25097 25078 25050 25102 25123 25079 25037 25044 24999 24981 24986 24966 24974 25047 25148 25175 25251 25266 25199 25140 25095 25126 25126 25166 25261 25326 25345 25394 25413 25521 25534 25550 25599 25665 25658 25630 25555 25452 25406 25376 25374 25359 25351 25359 25363 25419 25471 25513 25569 25610 25603 25534 25623 25735 25812 25832 25894 26005 26078 26176 26279 26315 26293 26265 26250 26228 26223 26204 26188 26136 26108 26103 26062 25991 25963 25904 25884 25842 25801 25770 25755 25727 25696 25694 25658 25604 25526 25435 25364 25310 25287 25328 25384 25405 25384 25448 25494 25503 25517 25514 25460 25494 25593 25666 25694 25827 25981 26083 26159 26188 26258 26355 26416 26527 26483 26516 26567 26601 26659 26663 26734 26819 26860 26864 26742 26659 26633 26571 26578 26589 26621 26549 26484 26427 26333 26235 26140 26067 25966 25848 25712 25639 25715 25779 25845 25885 25910 25915 25871 25846 25869 25871 25882 25885 25902 25866 25909 25937 25960 26013 26005 25972 25949 25904 25803 25729 25682 25655 25610 25584 25583 25519 25467 25400 25381 25334 25318 25266 25224 25219 25253 25340 25402 25446 25507 25536 25554 25583 25554 25547 25551 25555 25575 25669 25757 25774 25814 25898 25972 26029 26086 26076 26057 26052 26015 26003 25963 25928 25881 25851 25952 26000 25998 25994 26013 26100 26170 26167 26317 26360 26350 26374 26342 26275 26205 26200 26123 26084 26180 26235 26284 26331 26448 26445 26528 26471 26462 26365 26280 26217 26133 26111 26070 26095 26055 26146 26184 26219 26173 26155 26070 25971 25941 25969 26035 26060 26146 26250 26335 26432 26490 26488 26486 26445 26469 26439 26410 26379 26334 26292 26252 26210 26134 26121 26161 26113 26117 26114 26158 26226 26236 26298 26403 26469 26525 26601 26649 26732 26764 26761 26759 26794 26803 26820 26762 26764 26729 26678 26623 26595 26523 26573 26653 26770 26812 26841 26866 26887 26950 27006 27043 27059 27065 27060 27020 27013 27001 26955 26936 26965 26920 26904 26900 26937 27021 27008 26983 26991 27004 27012 27031 27013 26978 26949 26912 26881 26833 26753 26650 26560 26421 26299 26206 26154 25987 25890 25795 25779 25807 25846 25783 25736 25738 25699 25667 25608 25516 25448 25297 25202 25190 25156 25158 25214 25183 25238 25308 25433 25441 25630 25667 25725 25797 25729 25673 25591 25604 25754 25773 25909 26016 26091 26148 26244 26313 26424 26545 26656 26745 26810 26855 26908 26880 26925 26934 26915 26932 26949 27011 27061 27078 27084 27083 27125 27157 27171 27145 27129 27075 27044 27014 26994 26937 26926 26895 26911 26899 26915 26871 26865 26804 26790 26743 26739 26660 26617 26607 26653 26707 26757 26766 26777 26773 26782 26759 26753 26738 26697 26635 26580 26521 26513 26530 26554 26496 26452 26443 26314 26278 26079 25898 25704 25547 25412 25320 25301 25260 25185 25158 25170 25234 25207 25236 25309 25435 25516 25644 25745 25847 26018 26211 26366 26393 26352 26342 26385 26465 26645 26870 27004 27048 27012 26985 26962 26863 26765 26693 26651 26669 26693 26720 26741 26790 26865 26968 27043 27124 27136 27057 26967 26925 26884 26839 26792 26732 26570 26436 26244 26077 25975 25904 25876 25885 25961 25998 26123 26236 26339 26365 26329 26265 26226 26199 26239 26224 26146 26020 25869 25682 25567 25060 25365 25669 25907 26009 26129 26279 26387 26523 26603 26698 26829 26847 26951 26920 26841 26685 26513 26420 26333 26280 26256 26224 26145 26151 26125 26106 26073 26046 26005 25965 25928 25902 25920 25928 25947 25981 25992 25997 25962 25853 25799 25801 25788 25835 25792 25730 25680 25604 25587 25584 25600 25656 25631 25613 25583 25548 25492 25438 25437 25436 25414 25378 25334 25276 25275 25351 25819 26849 27108 27328 27377 27473 27606 27679 27722 27803 27829 27654 27813 27784 27809 27791 27757 27751 27732 27713 27780 27888 27969 28049 28100 28171 28165 28191 28212 28218 28252 28311 28421 28608 28684 28775 28782 28826 28879 28836 28763 28612 28482 28389 28342 28346 28329 28279 28298 28302 28288 28278 28259 28215 28165 28122 28054 28041 28051 28101 28151 28165 28209 28247 28273 28404 28394 28404 28392 28398 28397 28413 28447 28505 28571 28572 28647 28629 28661 28748 28767 28704 28673 28635 28662 28654 28695 28718 28731 28721 28716 28718 28676 28647 28636 28602 28583 28598 28589 28601 28609 28654 28672 28686 28676 28680 28635 28594 28584 28594 28603 28648 28682 28709 28725 28743 28796 28841 28835 28769 28702 28649 28570 28540 28499 28447 28408 28365 28359 28358 28303 28232 28138 28092 28093 28091 28082 28062 28041 28062 28105 28130 28117 28081 27994 27957 27944 27933 27906 27890 27912 27926 27918 27921 27910 27941 27908 27822 27786 27746 27714 27632 27534 27466 27435 27359 27387 27331 27354 27251 27244 27195 27142 27190 27165 27107 27054 27040 27037 27003 27044 26976 27008 26971 27006 27047 27126 27208 27263 27281 27256 27284 27311 27287 27242 27106 27133 27159 27179 27195 27166 27171 27184 27190 27151 27116 27052 27020 26988 27015 26996 26931 26897 26928 26939 26973 26992 27052 27112 27165 27199 27210 27219 27238 27269 27301 27333 27372 27429 27483 27491 27503 27489 27436 27400 27383 27344 27336 27304 27264 27270 27258 27199 27153 27139 27163 27271 27356 27388 27405 27386 27300 27320 27343 27343 27337 27266 27236 27233 27203 27248 27213 27254 27323 27336 27279 27245 27260 27243 27218 27244 27229 27219 27250 27307 27307 27330 27362 27316 27305 27212 27171 27161 27167 27115 27068 27081 27122 27192 27254 27297 27286 27268 27251 27175 27150 27179 27167 27155 27159 27161 27121 27110 27114 27083 27047 26997 26975 26970 26961 26943 26966 26978 26957 26998 27036 27120 27124 27218 27266 27282 27342 27412 27535 27557 27561 27594 27626 27623 27546 27469 27548 27477 27524 27547 27554 27486 27451 27412 27384 27391 27362 27280 27274 27264 27239 27238 27297 27362 27368 27335 27341 27356 27384 27372 27254 27196 27231 27217 27179 27179 27163 27236 27251 27356 27398 27437 27435 27434 27470 27472 27501 27568 27567 27540 27570 27557 27663 27683 27630 27640 27654 27604 27547 27501 27579 27609 27554 27546 27530 27522 27461 27506 27439 27423 27362 27420 27495 27482 27539 27577 27592 27545 27443 27516 27554 27496 27393 27372 27335 27363 27375 27450 27464 27478 27437 27469 27493 27460 27393 27471 27457 27525 27605 27599 27630 27661 27659 27622 27620 27519 27499 27480 27451 27501 27581 27627 27510 27669 27641 27733 27800 27790 27780 27651 27571 27482 27494 27496 27501 27496 27468 27536 27521 27574 27558 27528 27468 27451 27456 27471 27506 27506 27462 27486 27500 27490 27434 27393 27325 27317 27338 27337 27352 27338 27337 27274 27289 27317 27307 27230 27188 27141 27078 27071 27085 27083 27104 27109 27117 27139 27154 27152 27092 27045 27031 27051 27053 27086 27082 27084 27015 27015 27038 27081 27092 27075 27139 27154 27140 27100 27232 27276 27337 27379 27443 27497 27481 27563 27615 27590 27577 27592 27573 27532 27531 27459 27469 27498 27479 27402 27334 27298 27256 27279 27361 27435 27412 27388 27418 27391 27418 27388 27329 27274 27225 27217 27238 27250 27276 27324 27331 27325 27377 27387 27454 27459 27564 27511 27508 27568 27490 27533 27593 27596 27637 27666 27701 27800 27806 27832 27850 27859 27813 27956 28056 28233 28311 28359 28376 28349 28355 28414 28418 28380 28377 28387 28401 28420 28422 28384 28368 28353 28332 28300 28291 28280 28252 28203 28216 28204 28192 28185 28195 28235 28233 28192 28145 28105 28092 28139 28134 28172 28217 28194 28142 28178 28173 28159 28076 28055 28030 27971 27943 28001 27975 28027 27997 27996 27997 28011 27962 28033 27906 28015 28007 28046 28020 27984 28026 28074 28146 28199 28257 28307 28312 28308 28203 28297 28273 28175 28038 28065 28100 28107 28079 28052 27973 27865 27770 27799 27728 27748 27628 27710 27708 27749 27796 27764 27800 27735 27726 27780 27766 27737 27723 27704 27744 27825 27855 27792 27903 27953 27810 27800 27724 27717 27676 27561 27593 27568 27544 27493 27543 27580 27506 27454 27487 27472 27500 27508 27526 27574 27594 27671 27642 27634 27592 27508 27454 27197 27491 27498 26852 27011 27155 27226 27207 27217 27298 27600 27676 27683 27528 27530 27516 27468 27482 27524 27536 27539 27494 27435 27366 27350 27378 27298 27309 27404 27379 27320 27371 27337 27341 27388 27374 27417 27400 27328 27293 27325 27275 27306 27353 27346 27362 27351 27387 27377 27256 27227 27207 27319 27267 27279 27376 27415 27448 27496 27462 27452 27500 27465 27429 27441 27390 27432 27452 27519 27532 27537 27545 27624 27690 27702 27647 27617 27712 27648 27635 27681 27624 27617 27638 27569 27474 27506 27489 27485 27443 27395 27355 27394 27434 27440 27447 27440 27562 27534 27482 27549 27682 27774 27677 27642 27771 27660 27691 27660 27716 27713 27723 27674 27751 27713 27780 27786 27731 27691 27740 27691 27667 27695 27730 27822 27773 27923 27775 27846 27902 27929 27944 27941 27898 27907 27970 27991 28025 28008 27962 28166 28298 28386 28336 28367 28300 28216 28174 28123 28086 28030 27983 27916 28082 28048 28044 28041 27928 28035 27907 27789 27677 27667 27600 27663 27652 27719 27757 27682 27652 27684 27703 27696 27639 27557 27475 27582 27607 27606 27766 27730 27714 27692 27708 27695 27664 27626 27521 27412 27467 27473 27484 27413 27424 27422 27370 27373 27410 27380 27350 27286 27235 27203 27197 27200 27245 27276 27330 27317 27395 27393 27381 27377 27319 27294 27285 27267 27307 27283 27230 27344 27303 27395 27357 27489 27512 27495 27489 27476 27502 27545 27578 27585 27533 27574 27606 27577 27619 27599 27592 27554 27507 27424 27448 27399 27435 27434 27474 27497 27545 27474 27628 27689 27519 27716 27614 27590 27617 27657 27612 27643 27656 27597 27662 27674 27592 27610 27624 27567 27524 27477 27516 27490 27510 27451 27479 27466 27434 27445 27392 27398 27401 27308 27292 27332 27349 27375 27325 27347 27345 27392 27377 27350 27278 27237 27085 27290 27327 27305 27339 27390 27383 27505 27582 27706 27689 27670 27637 27581 27612 27651 27618 27655 27616 27661 27668 27706 27676 27720 27629 27553 27455 27357 27327 27321 27314 27365 27255 27241 27310 27294 27383 27390 27325 27256 27269 27242 27178 27144 27198 27222 27190 27159 27170 27201 27239 27297 27296 27287 27261 27246 27252 27252 27246 27284 27270 27268 27295 27313 27341 27381 27362 27254 27246 27270 27214 27223 27197 27167 27218 27216 27217 27213 27218 27264 27360 27447 27400 27388 27401 27489 27517 27407 27503 27617 27690 27634 27683 27701 27631 27642 27685 27750 27710 27741 27728 27651 27681 27708 27788 27927 28014 28122 28081 28086 28000 28011 27983 27932 27962 28018 27949 27967 27983 27997 28052 28043 28006 28069 28006 28057 28056 28103 28063 28027 28061 27962 28017 28040 28008 28005 27951 27871 27934 27955 27937 28039 27997 28021 28026 28036 28113 28126 28128 28117 28159 28089 28177 28199 28166 28184 28096 28098 28056 27991 28006 28061 27996 27983 28053 28072 28074 28100 28115 28112 28043 28024 27929 27907 27872 27850 27831 27789 27792 27816 27826 27735 27675 27671 27585 27525 27486 27351 27365 27331 27339 27374 27324 27263 27230 27305 27375 27432 27418 27597 27556 27519 27400 27572 27606 27486 27544 27519 27558 27543 27615 27646 27664 27646 27538 27462 27444 27424 27436 27460 27451 27528 27566 27643 27630 27669 27575 27557 27510 27452 27484 27413 27433 27471 27448 27535 27568 27678 27713 27699 27611 27591 27651 27687 27697 27711 27681 27778 27833 27762 27778 27749 27763 27731 27719 27729 27638 27743 27702 27782 27778 27838 27859 27846 27905 27930 27976 27875 27939 27977 27987 28013 28058 28100 28214 28181 28330 28378 28399 28452 28404 28401 28381 28428 28392 28412 28403 28445 28408 28465 28409 28570 28500 28512 28462 28417 28357 28324 28270 28250 28265 28234 28216 28182 28181 28225 28278 28317 28314 28307 28344 28349 28361 28339 28327 28294 28270 28272 28349 28429 28536 28642 28722 28774 28824 28860 28868 28869 28857 28672 28565 28506 28463 28452 28440 28473 28510 28605 28725 28837 28949 28966 29043 29063 29110 29099 29113 29104 29136 29160 29116 29044 28915 28794 28768 28691 28686 28610 28614 28566 28585 28582 28556 28563 28594 28622 28606 28580 28524 28517 28507 28521 28588 28679 28782 28866 29001 29081 29136 29094 29102 29079 29090 29067 28995 29012 29007 29062 29029 29084 29118 29126 29169 29218 29230 29209 29072 29205 29027 29055 29011 28922 28834 28794 28662 28614 28652 28605 28584 28587 28609 28618 28675 28652 28691 28659 28685 28721 28714 28718 28715 28735 28739 28750 28752 28780 28794 28781 28760 28739 28723 28752 28766 28784 28779 28785 28787 28752 28770 28763 28728 28697 28668 28634 28544 28540 28528 28478 28375 28364 28304 28230 28208 28188 28133 28090 28202 28216 28326 28379 28417 28475 28510 28545 28566 28523 28483 28461 28366 28361 28375 28350 28274 28254 28197 28127 28086 28079 28078 28088 28056 28004 27977 27991 27993 28012 28061 28106 28131 28184 28224 28259 28238 28238 28239 28245 28319 28393 28451 28487 28496 28528 28515 28530 28535 28479 28441 28429 28420 28435 28406 28390 28372 28350 28351 28319 28332 28311 28291 28281 28259 28265 28275 28241 28223 28186 28172 28167 28251 28346 28407 28512 28599 28658 28632 28618 28565 28556 28566 28567 28527 28578 28634 28696 28734 28776 28763 28740 28721 28722 28707 28731 28649 28618 28611 28636 28657 28699 28680 28639 28591 28548 28589 28593 28639 28699 28744 28771 28788 28797 28778 28677 28521 28442 28422 28393 28353 28313 28308 28268 28249 28234 28252 28252 28180 28101 27954 27815 27686 27623 27617 27541 27469 27471 27466 27519 27502 27561 27630 27696 27685 27664 27648 27649 27659 27712 27747 27771 27832 27895 27925 27939 27987 28041 28108 28075 27973 27862 27811 27754 27639 27529 27382 27256 27169 27147 27087 27048 27085 27131 27103 27015 27038 27014 27059 27117 27103 27140 27207 27248 27272 27281 27321 27391 27468 27480 27437 27381 27349 27351 27403 27457 27492 27495 27526 27512 27537 27519 27496 27493 27405 27319 27312 27323 27285 27292 27220 27211 27159 27103 27007 26952 26869 26849 26815 26846 26821 26770 26753 26790 26868 26957 26997 27066 27067 27029 27076 27080 27042 27000 26964 26964 26988 27036 27095 27212 27297 27376 27405 27445 27416 27441 27415 27428 27442 27472 27457 27471 27482 27478 27425 27380 27396 27449 27418 27447 27485 27461 27491 27517 27469 27444 27317 27269 27221 27246 27331 27436 27475 27387 27361 27436 27536 27568 27576 27571 27627 27713 27815 27899 28008 28108 28180 28279 28328 28334 28405 28468 28506 28597 28619 28626 28659 28718 28767 28766 28731 28683 28645 28622 28555 28490 28491 28478 28452 28414 28368 28301 28196 28132 28047 27954 27886 27814 27795 27741 27711 27724 27731 27764 27871 27968 28022 28051 28062 28061 28098 28144 28171 28223 28244 28275 28302 28322 28343 28324 28324 28285 28224 28189 28241 28195 28272 28212 28235 28164 28087 28064 28065 28033 27997 27897 27804 27846 27778 27744 27683 27697 27759 27778 27780 27795 27835 27852 27781 27705 27697 27680 27712 27740 27750 27798 27820 27830 27882 27906 27964 27909 27932 27858 27868 27858 27818 27838 27827 27762 27778 27747 27705 27712 27647 27595 27544 27414 27398 27395 27366 27354 27356 27453 27492 27588 27648 27732 27743 27766 27809 27803 27865 27914 27952 28014 28036 28025 28039 28177 28163 28152 28158 28192 28249 28269 28305 28318 28318 28364 28276 28390 28424 28314 28288 28240 28192 28095 28049 28022 27949 27965 28034 28062 28179 28189 28180 28262 28374 28376 28490 28452 28460 28483 28488 28478 28484 28478 28499 28506 28481 28470 28462 28446 28458 28443 28409 28353 28223 28171 28146 28147 28063 28002 28015 28052 28034 28049 28022 28071 28076 27975 27954 27917 27909 27928 27863 27899 27863 27770 27726 27665 27652 27688 27695 27663 27656 27639 27605 27575 27619 27625 27634 27667 27671 27681 27688 27725 27780 27782 27767 27767 27669 27662 27667 27668 27768 27805 27815 27824 27855 27904 27946 28005 28062 28100 28129 28137 28178 28242 28242 28317 28405 28472 28519 28550 28599 28643 28668 28692 28715 28672 28709 28704 28685 28672 28620 28589 28607 28662 28642 28652 28648 28602 28526 28522 28478 28483 28451 28419 28432 28491 28583 28675 28711 28761 28759 28757 28792 28815 28855 28882 28935 28994 29013 29029 29111 29166 29165 29181 29208 29173 29076 29053 29046 28996 28972 28908 28864 28788 28733 28685 28620 28580 28563 28418 28492 28402 28424 28467 28456 28391 28442 28374 28401 28378 28419 28481 28514 28540 28586 28647 28654 28664 28711 28751 28757 28791 28790 28829 28797 28771 28806 28759 28768 28725 28670 28640 28572 28567 28486 28487 28471 28415 28370 28329 28222 28221 28280 28237 28267 28286 28324 28392 28490 28539 28627 28665 28672 28686 28677 28671 28712 28677 28635 28658 28709 28779 28802 28831 28821 28829 28831 28780 28745 28707 28689 28654 28646 28596 28557 28496 28449 28369 28403 28461 28480 28567 28682 28814 28828 28921 28946 28871 28888 28827 28856 28849 28890 28841 28905 28927 28976 28932 28978 28935 28895 28850 28864 28851 28816 28794 28831 28826 28812 28850 28859 28868 28858 28767 28726 28669 28676 28704 28721 28754 28771 28766 28782 28789 28785 28736 28596 28506 28456 28311 28274 28266 28260 28241 28283 28245 28350 28293 28335 28309 28326 28304 28343 28265 28241 28167 28141 28135 28155 28141 28134 28162 28143 28156 28134 28115 28155 28141 28170 28157 28177 28135 28153 28210 28160 28115 28166 28137 28171 28208 28241 28268 28325 28385 28497 28453 28513 28572 28509 28568 28504 28443 28397 28334 28282 28205 28129 28052 28012 27957 27910 27849 27813 27757 27786 27745 27779 27796 27829 27868 27874 27886 27856 27799 27797 27793 27742 27677 27618 27599 27575 27522 27562 27602 27630 27607 27636 27637 27581 27581 27516 27543 27512 27592 27591 27640 27574 27574 27515 27531 27491 27514 27468 27411 27387 27305 27243 27179 27090 27071 27045 26991 27006 26918 26912 26925 26949 26946 27026 27013 26988 26927 26997 27063 27152 27275 27287 27348 27309 27347 27306 27289 27313 27265 27307 27273 27361 27357 27301 27288 27226 27215 27345 27424 27454 27513 27533 27562 27545 27718 27723 27689 27721 27734 27659 27700 27730 27693 27752 27720 27897 27901 27914 27865 27779 27730 27620 27539 27471 27433 27359 27357 27371 27402 27452 27497 27499 27481 27511 27503 27479 27510 27480 27421 27466 27454 27504 27470 27541 27564 27570 27560 27518 27514 27495 27453 27421 27475 27498 27431 27481 27419 27525 27389 27349 27276 27275 27284 27289 27296 27398 27441 27431 27381 27388 27341 27264 27196 27141 27063 27057 26979 26907 26864 26869 26845 26789 26759 26733 26695 26716 26775 26840 26862 26944 27021 27005 26988 26977 26912 26868 26849 26782 26690 26629 26557 26582 26644 26685 26805 26874 26943 27059 27103 27204 27189 27113 27039 26988 26976 27090 27201 27353 27494 27556 27585 27677 27660 27689 27696 27682 27644 27659 27581 27579 27517 27378 27258 27257 27150 27276 27134 27229 27181 27237 27184 27060 27126 27114 27110 27177 27264 27305 27234 27185 27143 27120 27151 27154 27160 27087 27131 27124 27172 27210 27267 27244 27211 27215 27233 27214 27329 27308 27347 27368 27399 27411 27453 27393 27323 27247 27194 27133 27264 27348 27368 27356 27386 27428 27346 27356 27361 27488 27502 27678 27703 27743 27784 27710 27763 27682 27723 27654 27585 27606 27455 27391 27443 27353 27376 27421 27446 27505 27599 27704 27775 27768 27608 27579 27571 27568 27654 27610 27663 27678 27719 27811 27889 27948 27935 27903 27905 27889 27883 27902 27893 27922 27943 27981 28057 27958 28003 27974 27881 27923 27932 27947 27964 27938 27911 27962 27922 27935 27880 27809 27762 27704 27698 27641 27666 27649 27597 27590 27586 27605 27580 27540 27530 27527 27558 27604 27600 27596 27609 27592 27590 27622 27662 27694 27713 27697 27660 27702 27663 27698 27675 27709 27740 27737 27753 27764 27830 27816 27882 27842 27891 27951 27949 27964 27954 27949 27954 27914 27926 27867 27758 27646 27563 27561 27482 27479 27456 27455 27481 27446 27486 27460 27473 27443 27444 27431 27418 27411 27396 27393 27384 27395 27379 27493 27520 27553 27613 27736 27763 27808 27771 27711 27826 27867 27863 27864 27879 27858 27877 27852 27919 27960 28025 28231 28260 28366 28370 28381 28372 28302 28257 28229 28193 28145 28143 28145 28164 28184 28234 28306 28306 28356 28360 28360 28387 28414 28458 28533 28549 28543 28613 28542 28557 28577 28499 28502 28480 28416 28383 28362 28334 28272 28224 28153 28137 28034 27966 27878 27799 27763 27789 27818 27850 27891 27937 27960 27948 27922 27905 27892 27883 27909 27806 27847 27775 27729 27705 27745 27728 27686 27637 27548 27504 27490 27480 27518 27505 27459 27483 27449 27386 27388 27388 27353 27304 27279 27278 27295 27323 27298 27331 27367 27379 27393 27392 27323 27296 27285 27277 27287 27330 27339 27382 27415 27416 27349 27326 27243 27246 27235 27108 27117 27071 27026 27075 27083 27162 27240 27344 27454 27521 27497 27478 27522 27689 27695 27749 27736 27859 27771 27833 27883 27846 27806 27722 27811 27808 27764 27675 27698 27612 27607 27567 27563 27597 27603 27573 27570 27635 27761 27801 27930 28044 28050 28028 27972 27933 27942 27940 27904 27887 27896 27892 27941 27968 27936 27937 27929 27846 27785 27773 27752 27749 27799 27829 27839 27828 27864 27880 27887 27944 27873 27890 27847 27808 27814 27854 27865 27855 27808 27851 27831 27876 27851 27858 27755 27696 27650 27584 27536 27581 27448 27491 27507 27482 27502 27435 27495 27407 27427 27483 27501 27489 27533 27560 27578 27618 27645 27641 27679 27633 27637 27654 27664 27642 27687 27717 27740 27775 27750 27812 27803 27822 27779 27749 27779 27808 27756 27780 27820 27882 27900 27906 27950 27956 27973 28049 28010 28090 28063 28151 28190 28151 28173 28249 28281 28293 28255 28209 28150 28086 28065 28036 27986 27934 27895 27881 27845 27782 27782 27714 27669 27686 27681 27679 27654 27649 27654 27663 27669 27714 27759 27762 27802 27813 27851 27870 27946 27994 27989 28050 28078 28104 28103 28153 28101 28036 27941 27863 27767 27718 27701 27675 27583 27518 27470 27380 27301 27217 27117 27076 27028 26960 26943 26901 26917 26986 27102 27235 27248 27238 27223 27249 27242 27216 27184 27223 27195 27318 27520 27604 27614 27568 27688 27732 27727 27824 27791 27816 27861 27775 27891 27779 27737 27618 27544 27452 27325 27209 27203 27209 27173 27112 27077 27187 27148 27277 27291 27327 27288 27258 27269 27359 27426 27532 27603 27617 27656 27672 27627 27701 27721 27757 27788 27786 27795 27738 27760 27765 27760 27777 27867 27896 27936 28016 28042 28086 28173 28242 28308 28328 28401 28390 28320 28243 28184 28064 28017 27944 27876 27780 27759 27756 27780 27821 27801 27755 27691 27687 27618 27553 27505 27494 27532 27500 27551 27655 27741 27749 27744 27757 27737 27709 27697 27651 27616 27589 27551 27522 27621 27610 27549 27611 27541 27704 27713 27781 27757 27814 27770 27898 27900 27930 27980 28165 28077 28003 27969 28015 28008 27900 28008 27944 27838 27940 27845 27771 27716 27641 27567 27518 27444 27361 27333 27342 27339 27387 27351 27320 27289 27232 27228 27251 27308 27318 27349 27379 27394 27360 27406 27440 27447 27412 27456 27518 27560 27638 27727 27774 27836 27927 27928 27993 28027 27974 27962 27885 27833 27817 27740 27765 27734 27718 27703 27635 27635 27592 27586 27572 27493 27506 27486 27537 27544 27614 27585 27615 27600 27608 27610 27623 27607 27614 27612 27637 27625 27587 27572 27578 27607 27600 27608 27645 27528 27538 27512 27583 27655 27709 27785 27875 27974 28044 28128 28103 28123 28105 28147 28072 28086 28119 28125 28062 28026 27990 27950 27875 27803 27710 27627 27574 27545 27553 27505 27530 27573 27651 27733 27764 27811 27808 27764 27772 27771 27737 27732 27700 27695 27701 27688 27710 27732 27750 27792 27801 27809 27848 27828 27798 27835 27823 27764 27838 27860 27922 27873 27933 27880 27846 27861 27848 27796 27807 27739 27786 27850 27883 27882 27883 27889 27915 27883 27849 27820 27752 27674 27650 27598 27578 27557 27574 27576 27559 27529 27526 27544 27477 27521 27572 27587 27602 27638 27634 27697 27737 27755 27768 27806 27799 27837 27826 27817 27771 27738 27718 27685 27689 27729 27696 27714 27745 27742 27884 27873 27948 27975 28025 27973 27951 27979 27980 28031 28047 28052 28042 28030 27994 27942 27887 27828 27714 27648 27657 27585 27603 27596 27623 27587 27555 27533 27542 27519 27414 27439 27348 27440 27433 27482 27539 27625 27726 27774 27898 27992 27979 28005 28053 28074 28097 28168 28105 28108 28049 28003 27861 27916 27810 27749 27609 27624 27558 27459 27461 27438 27362 27288 27257 27189 27113 27050 26951 26871 26824 26875 26934 27019 27082 27124 27174 27268 27320 27285 27216 27185 27208 27239 27207 27208 27244 27223 27237 27276 27269 27296 27277 27233 27304 27353 27368 27389 27379 27446 27485 27533 27593 27703 27696 27937 27871 27912 27913 27845 27867 27799 27715 27686 27691 27678 27789 27669 27765 27652 27640 27566 27515 27440 27418 27373 27401 27481 27507 27525 27545 27511 27549 27573 27613 27668 27699 27702 27730 27729 27672 27679 27662 27576 27512 27591 27531 27617 27731 27715 27791 27779 27873 27819 27845 27779 27824 27740 27741 27747 27774 27814 27980 28086 28084 28171 28145 28190 28149 28144 28135 28128 28074 28028 27985 27932 27893 27871 27811 27788 27740 27730 27667 27662 27634 27637 27657 27662 27601 27566 27495 27417 27356 27342 27342 27367 27327 27388 27460 27503 27628 27638 27717 27764 27647 27800 27798 27809 27933 27936 28070 28163 28152 28114 28133 28094 28031 27931 27997 27980 28000 28070 28103 28176 28118 28111 28000 28073 27953 27893 27848 27873 27856 27811 27787 27831 27877 27875 27866 27807 27807 27777 27746 27735 27710 27721 27710 27752 27753 