27808 27678 27537 27436 27310 27211 27146 29184 29178 29187 29211 29211 29198 29147 29096 29042 29015 28967 28937 28895 28845 28802 28744 28731 28678 28637 28600 28571 28537 28497 28452 28409 28346 28279 28204 28142 28058 27973 27880 27777 27707 27620 27552 27522 27451 27412 27353 27295 27253 27292 27320 27371 27413 27457 27497 27533 27549 27583 27582 27541 27508 27464 27371 27248 27169 27086 26966 26881 26778 26720 26678 26645 26593 26577 26476 26330 26242 26180 26144 26115 26154 26285 26131 26050 26006 26028 26064 26143 26188 26131 26151 26206 26177 26227 26231 26257 26302 26409 26425 26337 26330 26368 26441 26503 26540 26546 26515 26503 26528 26495 26510 26493 26498 26574 26719 26622 26607 26634 26675 26735 26774 26854 26820 26884 26869 26835 26845 26899 26944 27064 27036 26893 26844 26821 26838 26890 26951 26986 27089 27124 27110 27056 27042 27054 27084 27192 27178 27069 27047 27032 27077 27129 27195 27223 27286 27355 27298 27223 27161 27202 27218 27328 27363 27263 27235 27212 27218 27289 27315 27375 27413 27476 27448 27377 27370 27442 27491 27698 27726 27609 27583 27599 27648 27682 27721 27732 27757 27813 27762 27800 27782 27838 27976 28046 27977 27973 27971 28021 28038 28058 28122 28061 28102 28164 28121 28158 28198 28250 28327 28271 28213 28155 28153 28165 28190 28243 28242 28296 28355 28244 28352 28364 28370 28480 28418 28318 28268 28219 28241 28286 28299 28347 28333 28435 28455 28472 28556 28620 28733 28732 28615 28561 28565 28557 28584 28609 28642 28648 28689 28730 28864 28891 28822 28808 28788 28719 28686 28654 28632 28636 28662 28679 28673 28599 28694 28665 28707 28731 28748 28844 29043 28972 28919 28905 28896 28872 28869 28863 28778 28860 28846 28859 28806 28822 28813 28773 28769 28706 28623 28598 28571 28573 28590 28613 28641 28664 28672 28743 28800 28782 28771 28672 28644 28568 28518 28502 28536 28531 28597 28608 28736 28694 28700 28714 28632 28565 28498 28436 28391 28364 28367 28392 28402 28432 28458 28509 28434 28418 28466 28530 28651 28811 28848 28802 28730 28689 28695 28644 28627 28628 28588 28618 28625 28647 28723 28735 28709 28701 28637 28561 28458 28402 28363 28344 28368 28458 28486 28561 28617 28668 28722 28714 28719 28606 28572 28498 28441 28421 28421 28427 28447 28469 28439 28393 28339 28333 28349 28325 28337 28259 28192 28139 28167 28149 28152 28165 28212 28259 28255 28276 28258 28322 28345 28331 28356 28395 28265 28206 28151 28097 28134 28156 28162 28230 28244 28326 28323 28345 28386 28398 28387 28354 28306 28271 28261 28289 28327 28350 28382 28446 28499 28507 28473 28500 28665 28789 28821 28894 28888 28868 28827 28757 28722 28696 28680 28700 28753 28773 28816 28842 28956 29082 29124 29154 29145 29084 28994 28954 28940 28939 28932 28956 29035 29071 29095 29064 29169 29382 29566 29607 29658 29564 29555 29517 29474 29479 29425 29417 29391 29408 29396 29396 29390 29427 29466 29472 29451 29517 29373 29310 29234 29232 29207 29222 29221 29237 29233 29223 29165 29147 29175 29206 29202 29297 29209 29212 29159 29111 29070 29005 28971 28933 28905 28796 28786 28746 28719 28728 28679 28625 28705 28586 28522 28490 28473 28474 28471 28479 28506 28469 28399 28347 28301 28332 28396 28452 28395 28396 28393 28342 28295 28269 28247 28237 28188 28173 28123 28148 28133 28168 28183 28237 28219 28215 28132 28012 27930 27923 27931 27932 27943 27950 27977 27988 27880 27824 27799 27780 27810 27820 27830 27952 27915 27897 27855 27832 27796 27760 27757 27768 27730 27733 27736 27734 27814 27878 27941 27940 28047 28134 28067 28043 28025 27997 28006 28006 28017 27969 27979 27977 27981 27938 27882 27957 28039 28072 28082 28113 28052 27941 27891 27839 27832 27843 27853 27884 27898 28050 28030 27956 27943 27990 28043 28066 28181 28243 28180 28155 28139 28116 28105 28097 28084 28084 28109 28161 28147 28113 28130 28168 28221 28266 28348 28346 28233 28196 28160 28131 28132 28156 28199 28197 28210 28188 28123 28095 28145 28228 28298 28300 28402 28361 28356 28314 28236 28224 28206 28197 28231 28245 28218 28196 28206 28289 28341 28350 28331 28419 28354 28287 28263 28236 28232 28230 28275 28282 28312 28282 28193 28155 28157 28256 28383 28503 28521 28613 28516 28471 28427 28358 28327 28346 28354 28381 28405 28379 28372 28323 28306 28341 28442 28409 28405 28426 28391 28359 28356 28327 28324 28309 28298 28298 28283 28330 28277 28250 28220 28230 28227 28158 28233 28265 28254 28241 28231 28204 28218 28256 28267 28276 28240 28182 28143 28125 28183 28236 28260 28211 28249 28222 28215 28177 28125 28118 28103 28125 28161 28173 28201 28229 28236 28250 28297 28367 28385 28427 28465 28401 28382 28333 28328 28356 28344 28344 28330 28286 28304 28292 28278 28275 28334 28437 28419 28458 28384 28348 28292 28257 28246 28246 28272 28300 28330 28355 28356 28302 28250 28298 28309 28326 28307 28335 28285 28305 28285 28283 28251 28249 28242 28247 28273 28371 28295 28271 28291 28387 28443 28395 28429 28357 28389 28344 28326 28316 28300 28317 28344 28352 28400 28315 28290 28258 28338 28432 28488 28497 28553 28490 28463 28395 28349 28313 28304 28324 28354 28371 28402 28435 28392 28372 28428 28517 28564 28551 28590 28542 28532 28466 28457 28435 28427 28383 28372 28343 28440 28357 28330 28361 28439 28533 28547 28512 28449 28396 28347 28300 28264 28266 28281 28291 28294 28224 28198 28125 28074 28050 28154 28236 28270 28273 28221 28230 28165 28089 28044 28020 28040 28036 28051 28031 28034 28050 27993 27972 27972 28023 27993 28086 27994 27995 27998 27982 27983 27980 27953 27938 27927 27884 27870 27875 27855 27861 27899 27998 28035 28000 28098 27977 27948 27918 27891 27911 27912 27948 27973 27959 27896 27878 27808 27840 27924 27998 28050 28041 28019 27974 27895 27832 27779 27801 27783 27798 27830 27818 27818 27831 27776 27771 27848 27959 28057 28085 28072 28131 28094 28087 28104 28103 28080 28087 28047 28044 28054 28054 28067 28109 28229 28369 28419 28504 28510 28423 28372 28305 28275 28284 28302 28297 28270 28204 28145 28104 28112 28139 28239 28349 28389 28374 28281 28216 28128 28088 28041 28028 28026 28026 28052 28043 28061 28047 27979 27980 28039 28111 28088 28102 28079 28059 28019 27987 27962 27922 27867 27855 27847 27864 27865 27841 27870 27953 28058 28063 28030 27937 27901 27843 27823 27800 27814 27849 27867 27839 27758 27711 27663 27674 27756 27873 27983 27961 28016 27982 27919 27815 27745 27716 27697 27711 27741 27770 27849 27812 27805 27767 27812 27918 28013 27993 28021 28021 27990 27940 27913 27881 27852 27819 27815 27790 27783 27789 27817 27853 27931 28070 28127 28105 28117 28056 27980 27960 27942 27919 27925 27958 27986 27977 27929 27914 27909 27954 28056 28206 28237 28245 28202 28199 28160 28140 28120 28085 28074 28099 28077 28096 28150 28143 28172 28268 28405 28436 28463 28461 28420 28359 28319 28280 28263 28253 28218 28230 28232 28237 28263 28337 28439 28516 28538 28486 28433 28428 28365 28327 28309 28292 28279 28314 28333 28338 28390 28363 28364 28487 28638 28679 28642 28622 28617 28584 28535 28519 28507 28482 28475 28461 28465 28436 28411 28441 28529 28587 28598 28559 28496 28459 28403 28378 28355 28352 28341 28324 28278 28230 28192 28200 28271 28396 28451 28449 28426 28366 28249 28179 28112 28108 28093 28115 28105 28070 28050 28019 28000 28058 28085 28079 28062 28028 27998 27985 27979 27977 28013 28055 28060 28038 27954 27937 27909 27923 28014 28134 28203 28165 28233 28159 28143 28139 28155 28176 28188 28201 28220 28150 28141 28099 28052 28117 28226 28247 28252 28248 28187 28132 27999 27918 27867 27850 27865 27893 27882 27894 27837 27755 27709 27775 27806 27804 27769 27751 27728 27697 27666 27650 27616 27621 27601 27565 27507 27518 27493 27494 27611 27639 27623 27528 27410 27317 27275 27264 27247 27286 27337 27335 27250 27116 27037 26973 26964 27040 27174 27290 27264 27272 27152 27067 27024 27008 27030 27086 27138 27181 27176 27164 27128 27085 27109 27227 27384 27376 27369 27362 27346 27366 27342 27321 27302 27330 27334 27347 27344 27304 27291 27266 27276 27290 27260 27242 27237 27245 27243 27281 27282 27306 27319 27327 27292 27283 27276 27261 27298 27367 27458 27524 27497 27610 27548 27542 27535 27550 27576 27608 27653 27700 27678 27638 27638 27627 27666 27746 27856 27909 27890 27898 27856 27811 27788 27776 27766 27803 27853 27881 27863 27932 27946 27955 27983 28103 28184 28217 28214 28202 28228 28240 28253 28248 28247 28260 28297 28316 28346 28341 28381 28387 28533 28669 28757 28740 28810 28730 28717 28697 28681 28669 28662 28661 28649 28606 28623 28629 28608 28629 28759 28858 28823 28801 28716 28666 28623 28601 28572 28558 28561 28555 28502 28467 28396 28350 28348 28378 28452 28481 28470 28438 28389 28325 28270 28223 28207 28215 28240 28244 28246 28219 28162 28093 28063 28088 28089 28094 28051 28082 28013 27975 27969 27913 27924 27907 27930 27946 27906 27910 27859 27813 27822 27896 27981 27970 27961 27926 27923 27884 27863 27809 27769 27721 27699 27708 27713 27706 27705 27705 27807 27876 27916 27835 27824 27702 27664 27628 27623 27617 27648 27627 27569 27490 27425 27402 27408 27497 27597 27677 27661 27646 27493 27425 27353 27344 27350 27356 27398 27397 27330 27238 27190 27121 27195 27306 27470 27546 27572 27520 27490 27391 27323 27284 27279 27305 27347 27336 27370 27355 27308 27300 27333 27449 27534 27563 27588 27543 27542 27502 27468 27455 27430 27427 27435 27427 27450 27449 27459 27466 27521 27598 27594 27611 27533 27532 27526 27529 27522 27552 27549 27557 27519 27523 27501 27490 27512 27581 27703 27788 27786 27803 27747 27759 27743 27715 27745 27772 27793 27794 27748 27746 27708 27715 27767 27849 27950 28006 28004 27959 27917 27870 27855 27826 27844 27868 27907 27919 27946 27879 27864 27848 27899 28008 28119 28109 28119 28076 28074 28058 28035 28022 28023 28057 28063 28067 28077 28073 28040 28016 28035 28062 28084 28064 28103 28045 28045 28075 28078 28052 28056 28064 28092 28100 28088 28101 28101 28118 28142 28236 28295 28293 28258 28248 28229 28223 28217 28216 28212 28209 28239 28248 28226 28260 28256 28286 28337 28414 28449 28395 28394 28336 28343 28346 28333 28379 28405 28402 28386 28344 28356 28384 28364 28393 28424 28469 28438 28453 28351 28315 28280 28285 28276 28300 28304 28310 28282 28269 28217 28184 28162 28203 28221 28201 28249 28195 28123 28093 28035 27991 28003 28017 28036 28046 28043 27992 27954 27915 27941 27974 27963 27971 27994 27931 27905 27874 27862 27813 27804 27813 27835 27795 27729 27749 27714 27668 27632 27618 27567 27570 27535 27501 27494 27517 27535 27523 27494 27511 27502 27455 27430 27425 27426 27459 27480 27512 27460 27469 27413 27381 27383 27389 27399 27434 27442 27450 27421 27340 27330 27291 27281 27324 27403 27435 27418 27358 27298 27282 27289 27293 27294 27346 27378 27404 27368 27272 27257 27269 27271 27317 27387 27409 27370 27296 27274 27257 27266 27278 27287 27318 27369 27415 27434 27392 27375 27387 27403 27471 27563 27640 27670 27747 27660 27633 27624 27606 27605 27634 27677 27721 27726 27755 27731 27673 27669 27687 27745 27812 27855 27889 27785 27751 27708 27686 27688 27701 27715 27759 27764 27736 27768 27714 27703 27719 27756 27774 27766 27791 27775 27795 27777 27787 27794 27792 27800 27840 27848 27860 27891 27886 27906 27927 27943 27983 27955 27973 27970 27962 27960 27943 27929 27928 27927 27929 27917 27912 27927 27954 27979 28058 28108 28119 28073 28178 28116 28083 28070 28062 28063 28039 28038 28025 28031 28008 28012 28030 28067 28127 28224 28260 28207 28211 28163 28136 28118 28136 28149 28149 28128 28101 28075 28016 27971 27972 27979 27993 28006 28031 28035 28009 28110 27985 27931 27925 27923 27934 27947 27988 27985 27955 27886 27923 27930 27960 27986 28083 28160 28154 28345 28236 28172 28159 28166 28164 28173 28228 28246 28234 28201 28182 28184 28174 28210 28264 28335 28410 28442 28563 28508 28425 28404 28383 28374 28398 28404 28436 28411 28467 28456 28454 28430 28473 28518 28596 28645 28646 28663 28576 28551 28535 28559 28578 28600 28631 28647 28556 28496 28503 28476 28468 28462 28460 28473 28467 28469 28391 28352 28349 28345 28369 28375 28410 28435 28471 28412 28388 28367 28378 28418 28473 28534 28549 28618 28537 28487 28440 28400 28398 28400 28423 28416 28450 28422 28426 28329 28253 28215 28216 28227 28362 28334 28280 28275 28279 28257 28243 28247 28250 28217 28252 28220 28208 28195 28233 28227 28231 28222 28182 28176 28164 28155 28178 28207 28227 28196 28132 28129 28097 28078 28095 28167 28198 28205 28171 28047 28017 28005 27986 28008 28026 28047 28084 28053 28016 27971 27935 27945 28010 28099 28127 28108 28104 28056 27984 27949 27950 27933 27968 27999 28030 28018 28031 27992 27978 28001 28005 28007 27976 27998 27941 27922 27892 27859 27833 27823 27817 27849 27809 27828 27808 27794 27812 27834 27838 27803 27905 27830 27768 27756 27759 27745 27735 27725 27710 27651 27665 27663 27629 27618 27643 27645 27633 27742 27654 27603 27586 27600 27615 27656 27682 27701 27666 27669 27591 27544 27568 27606 27679 27724 27810 27721 27688 27653 27632 27643 27670 27711 27734 27744 27748 27683 27625 27602 27636 27740 27823 27860 27927 27877 27910 27864 27844 27843 27879 27917 27923 27886 28003 27894 27809 27761 27792 27826 27881 28039 28138 28009 27972 27925 27897 27874 27850 27844 27793 27798 27746 27707 27661 27688 27743 27734 27705 27792 27713 27688 27682 27692 27711 27731 27717 27715 27656 27689 27662 27652 27671 27735 27786 27802 27776 27852 27728 27707 27679 27675 27691 27720 27735 27688 27613 27601 27575 27548 27563 27628 27672 27676 27720 27712 27627 27599 27594 27634 27649 27681 27713 27733 27684 27643 27655 27646 27700 27758 27842 27877 27903 27846 27791 27783 27783 27806 27819 27855 27882 27882 27855 27823 27800 27801 27886 27989 27988 27977 27938 27939 27906 27896 27877 27892 27916 27933 27938 27912 27928 27898 27885 27869 27891 27898 27897 27957 27961 27944 27972 27983 27994 28000 28009 28029 28058 28166 28141 28060 28069 28104 28154 28151 28095 28209 28134 28095 28085 28119 28104 28120 28118 28120 28151 28090 28110 28095 28101 28150 28207 28225 28205 28275 28180 28171 28177 28176 28188 28202 28209 28208 28206 28198 28175 28165 28176 28227 28277 28311 28288 28316 28217 28197 28188 28183 28180 28215 28229 28197 28193 28127 28093 28092 28090 28128 28192 28218 28174 28161 28082 28039 28046 28026 28033 28053 28083 28099 28061 28020 27996 27964 27986 28014 28064 28087 28069 28070 27968 27951 27950 27940 27941 27973 27991 28007 28012 27935 27917 27883 27886 27908 27951 27968 27951 27955 27900 27842 27826 27814 27810 27830 27867 27888 27894 27875 27838 27816 27807 27841 27912 27933 27930 27976 27924 27906 27899 27879 27863 27881 27908 27935 27944 27918 27904 27859 27855 27869 27922 27929 27905 27889 27871 27863 27841 27829 27830 27832 27855 27882 27861 27855 27840 27856 27853 27881 27903 27896 27892 27860 27844 27840 27848 27852 27853 27863 27853 27855 27841 27809 27805 27785 27788 27818 27838 27831 27801 27793 27721 27718 27750 27729 27772 27770 27748 27734 27718 27684 27677 27640 27643 27695 27693 27647 27618 27607 27581 27582 27599 27627 27651 27682 27695 27672 27617 27634 27592 27586 27599 27674 27694 27643 27622 27547 27527 27495 27492 27523 27555 27582 27595 27573 27506 27495 27464 27448 27482 27520 27562 27508 27481 27420 27370 27352 27367 27391 27418 27470 27504 27532 27472 27394 27357 27344 27359 27410 27445 27448 27423 27349 27234 27204 27174 27184 27208 27247 27270 27326 27290 27256 27199 27158 27155 27162 27201 27216 27236 27262 27198 27171 27170 27161 27213 27249 27299 27311 27310 27238 27226 27161 27164 27188 27270 27304 27416 27459 27378 27346 27289 27282 27317 27349 27368 27362 27388 27391 27356 27303 27273 27273 27286 27282 27370 27328 27313 27332 27334 27373 27368 27376 27367 27352 27329 27316 27299 27318 27348 27370 27349 27427 27387 27339 27332 27346 27391 27403 27420 27423 27395 27345 27335 27339 27349 27338 27362 27383 27386 27359 27371 27275 27252 27271 27301 27352 27382 27401 27377 27335 27348 27283 27285 27290 27358 27430 27487 27479 27485 27429 27435 27430 27447 27470 27520 27524 27541 27509 27459 27454 27454 27482 27550 27663 27805 27845 27847 27764 27730 27721 27754 27801 27866 27915 27937 27925 27863 27830 27851 27872 27914 27981 28007 28008 28009 27954 27938 27924 27912 27911 27933 27968 28036 28040 27983 27980 27993 27979 28036 28146 28241 28288 28281 28292 28205 28208 28206 28222 28224 28275 28321 28337 28320 28334 28353 28377 28428 28488 28539 28576 28575 28568 28562 28582 28592 28599 28634 28678 28707 28746 28765 28800 28816 28839 28892 28997 29097 29148 29198 29211 29248 29252 29248 29256 29277 29296 29320 29330 29309 29339 29380 29408 29442 29518 29577 29560 29584 29546 29585 29594 29616 29630 29657 29685 29706 29713 29728 29784 29824 29857 29906 29973 29985 29944 30017 29961 29985 29997 29997 29994 29999 29993 30013 30040 30104 30118 30146 30206 30274 30315 30291 30265 30216 30223 30230 30247 30221 30223 30234 30231 30230 30214 30230 30288 30285 30321 30327 30340 30332 30275 30268 30255 30268 30265 30260 30270 30245 30249 30244 30232 30286 30268 30269 30278 30302 30302 30301 30326 30239 30170 30139 30125 30119 30106 30111 30108 30073 30006 30002 29985 29942 29897 29874 29877 29836 29865 29891 29767 29724 29694 29673 29666 29637 29619 29639 29612 29521 29464 29474 29483 29461 29436 29437 29421 29356 29347 29219 29191 29178 29146 29142 29151 29168 29140 29082 28976 28970 28959 28948 28988 29033 29064 29003 29038 28903 28849 28806 28770 28762 28785 28818 28804 28764 28748 28735 28709 28717 28721 28745 28753 28866 28870 28750 28707 28693 28667 28676 28710 28717 28705 28693 28740 28741 28758 28793 28818 28836 28945 28948 28882 28867 28836 28819 28806 28833 28846 28814 28825 28875 28884 28866 28873 28891 28907 28888 28989 28926 28944 28931 28920 28895 28917 28918 28922 28939 28975 28999 29023 29064 29069 29065 29038 29126 29076 29065 29059 29040 29049 29022 29006 29022 28971 28980 28996 29031 29058 29077 29080 29074 29179 29127 29075 29018 29006 28968 28962 28950 28950 28867 28870 28848 28842 28824 28848 28857 28856 28833 28844 28754 28731 28692 28684 28691 28684 28668 28643 28574 28538 28534 28513 28528 28603 28654 28645 28590 28532 28500 28478 28469 28466 28464 28470 28477 28437 28356 28309 28277 28277 28333 28379 28400 28356 28353 28219 28150 28088 28066 28047 28035 28075 28073 28023 27978 27885 27832 27852 27914 27988 28024 28020 27974 27895 27829 27788 27749 27765 27799 27839 27872 27798 27764 27689 27643 27693 27755 27811 27808 27922 27875 27801 27736 27699 27668 27677 27693 27732 27761 27765 27716 27657 27614 27618 27630 27650 27626 27666 27579 27492 27447 27431 27383 27402 27423 27459 27450 27439 27380 27341 27270 27280 27343 27419 27421 27469 27415 27385 27331 27302 27288 27298 27331 27374 27394 27385 27362 27302 27243 27236 27383 27470 27483 27459 27475 27387 27325 27299 27297 27285 27310 27333 27372 27324 27312 27251 27209 27194 27244 27322 27316 27353 27352 27338 27300 27261 27227 27227 27261 27283 27292 27274 27245 27189 27132 27154 27206 27250 27231 27329 27285 27287 27276 27243 27217 27225 27262 27297 27303 27336 27291 27239 27206 27233 27301 27364 27387 27415 27407 27407 27363 27350 27309 27329 27353 27378 27342 27372 27333 27272 27252 27315 27358 27406 27405 27448 27426 27435 27438 27412 27403 27409 27436 27475 27466 27468 27469 27436 27408 27432 27479 27524 27520 27622 27592 27599 27597 27583 27567 27579 27610 27645 27626 27614 27619 27577 27565 27620 27715 27764 27752 27819 27802 27820 27818 27782 27777 27809 27826 27853 27820 27849 27844 27810 27834 27878 27911 27927 27950 27896 27928 27945 27918 27897 27874 27876 27898 27896 27869 27875 27857 27827 27836 27880 27906 27887 27903 27955 27965 27978 27978 27951 27953 27960 27962 27951 27936 27980 27968 27939 27947 27994 28029 27992 28013 28006 28021 28040 28032 28032 28004 27997 28007 27985 27964 27968 27974 27944 27982 27999 28000 27991 27992 27913 27899 27889 27863 27833 27834 27821 27822 27726 27733 27748 27707 27692 27637 27572 27544 27630 27577 27571 27581 27585 27576 27568 27546 27565 27546 27470 27444 27441 27418 27401 27355 27332 27277 27362 27293 27287 27312 27317 27323 27323 27308 27308 27215 27197 27201 27188 27230 27221 27170 27160 27181 27142 27160 27184 27195 27247 27275 27279 27239 27155 27156 27126 27139 27160 27221 27233 27204 27193 27162 27133 27165 27167 27207 27268 27258 27224 27145 27118 27096 27079 27088 27126 27164 27154 27128 27049 27046 27057 27082 27132 27181 27241 27240 27180 27100 27067 27059 27055 27111 27160 27208 27193 27149 27065 27060 27076 27106 27155 27199 27258 27252 27151 27089 27077 27076 27103 27208 27284 27308 27305 27223 27193 27215 27235 27278 27327 27382 27433 27414 27313 27276 27271 27255 27317 27379 27452 27461 27463 27448 27434 27436 27461 27486 27549 27586 27641 27620 27554 27511 27486 27499 27570 27610 27650 27669 27627 27587 27557 27545 27564 27617 27687 27724 27780 27767 27687 27655 27607 27590 27594 27651 27675 27672 27688 27631 27612 27603 27609 27640 27693 27751 27790 27772 27654 27589 27533 27484 27500 27511 27531 27569 27536 27448 27379 27360 27350 27385 27441 27470 27497 27413 27329 27224 27141 27122 27167 27218 27255 27319 27306 27200 27138 27124 27108 27151 27204 27245 27238 27223 27127 27020 26960 26954 26996 27035 27073 27175 27126 27060 26975 26936 26941 26972 27033 27036 26990 26947 26827 26721 26684 26672 26707 26718 26799 26861 26800 26725 26669 26655 26679 26764 26829 26830 26804 26794 26743 26658 26613 26617 26662 26726 26781 26841 26906 26833 26807 26804 26853 26892 26956 27030 27047 27025 27022 26926 26888 26884 26922 26986 27054 27078 27231 27179 27127 27124 27138 27168 27228 27302 27350 27327 27307 27279 27251 27221 27257 27276 27340 27377 27407 27480 27426 27449 27471 27508 27559 27619 27675 27738 27786 27778 27707 27654 27689 27750 27847 27861 27894 27984 27901 27905 27926 27941 27983 28040 28103 28125 28131 28073 28072 28050 28078 28129 28191 28223 28219 28305 28248 28268 28275 28281 28305 28366 28407 28447 28458 28405 28410 28394 28403 28442 28508 28546 28560 28629 28564 28558 28539 28516 28549 28573 28590 28622 28661 28593 28535 28525 28473 28477 28544 28586 28620 28584 28642 28560 28541 28523 28520 28527 28558 28603 28652 28657 28607 28543 28509 28484 28512 28549 28582 28562 28715 28605 28568 28534 28525 28540 28544 28567 28594 28596 28562 28463 28459 28423 28414 28469 28503 28530 28571 28518 28497 28455 28430 28420 28454 28474 28496 28498 28459 28398 28322 28297 28315 28370 28402 28416 28450 28428 28340 28307 28275 28266 28299 28315 28327 28363 28335 28239 28151 28104 28091 28128 28193 28226 28223 28287 28161 28142 28111 28109 28150 28186 28245 28274 28287 28169 28114 28068 28056 28080 28126 28159 28192 28183 28105 28072 28043 28058 28065 28094 28134 28179 28164 28061 27980 27946 27940 27968 28050 28116 28125 28091 27999 27979 27911 27912 27953 27994 28046 28067 28080 27992 27898 27855 27846 27870 27937 28015 28023 28049 27955 27898 27888 27868 27882 27931 27982 28014 28003 27901 27824 27767 27742 27804 27875 27931 27959 27965 27874 27816 27783 27792 27820 27881 27926 27969 27964 27893 27819 27777 27762 27812 27891 27936 27985 27974 27939 27860 27853 27874 27901 27939 27977 28027 28051 28004 27897 27838 27823 27838 27909 27978 28021 28006 27969 27850 27852 27892 27911 27943 27988 28045 28088 28063 28002 27916 27915 27899 27938 28017 28094 28097 28051 27997 27985 28023 28042 28061 28142 28190 28215 28187 28129 28083 28077 28103 28163 28231 28308 28301 28257 28169 28161 28158 28179 28207 28266 28282 28315 28275 28193 28153 28169 28164 28186 28211 28279 28290 28292 28258 28168 28147 28175 28204 28231 28285 28305 28282 28199 28106 28076 28067 28082 28119 28173 28185 28123 28121 28000 27978 27990 28044 28081 28120 28151 28105 27992 27907 27893 27895 27905 27951 27995 27985 27996 27852 27804 27806 27818 27848 27878 27948 27956 27874 27782 27715 27695 27680 27722 27763 27830 27834 27900 27777 27771 27786 27810 27856 27928 28006 27986 27883 27820 27777 27744 27748 27797 27838 27901 27880 27906 27726 27668 27691 27744 27814 27901 27929 27913 27769 27719 27664 27652 27689 27753 27793 27834 27891 27755 27684 27650 27671 27728 27774 27813 27843 27744 27685 27613 27606 27619 27640 27638 27675 27719 27695 27688 27701 27687 27714 27761 27800 27839 27814 27786 27757 27733 27745 27781 27804 27829 27859 27833 27889 27885 27881 27882 27943 27964 28016 27965 27999 28004 28025 28044 28042 28054 28074 28140 28138 28166 28213 28225 28228 28261 28300 28340 28307 28345 28348 28323 28326 28324 28345 28342 28398 28368 28378 28427 28427 28421 28420 28427 28446 28426 28408 28413 28417 28426 28447 28467 28441 28426 28380 28384 28406 28428 28459 28454 28450 28439 28439 28367 28353 28366 28374 28388 28377 28338 28287 28265 28214 28235 28269 28303 28321 28290 28278 28220 28137 28107 28065 28052 28110 28123 28076 28022 27987 27923 27906 27934 27973 27993 27997 27963 27960 27938 27852 27812 27823 27838 27880 27885 27857 27779 27791 27731 27734 27785 27834 27891 27911 27907 27887 27856 27817 27803 27817 27860 27909 27928 27897 27876 27849 27818 27872 27920 27942 28008 28026 28032 28004 27934 27933 27972 27986 28065 28131 28193 28184 28229 28171 28124 28143 28178 28219 28273 28293 28308 28298 28260 28259 28290 28300 28366 28452 28495 28435 28476 28435 28477 28546 28589 28627 28669 28690 28659 28632 28627 28654 28688 28749 28875 28942 28881 28866 28787 28766 28785 28797 28811 28850 28855 28793 28722 28641 28611 28597 28603 28657 28757 28780 28689 28674 28555 28550 28540 28562 28576 28636 28655 28591 28460 28320 28257 28221 28208 28253 28314 28321 28222 28135 27922 27830 27822 27846 27864 27907 27949 27872 27713 27478 27376 27335 27328 27329 27395 27378 27249 27154 27053 27050 27073 27122 27184 27256 27282 27230 27153 27022 26982 26969 26979 27029 27124 27134 27028 26918 26832 26827 26891 26943 27017 27088 27088 27075 27044 26934 26913 26922 26968 27031 27043 27036 26958 26885 26818 26866 26939 27004 27078 27182 27226 27209 27153 27081 27098 27126 27178 27245 27360 27399 27374 27379 27344 27353 27398 27444 27499 27566 27613 27585 27578 27521 27559 27565 27600 27681 27777 27821 27777 27754 27697 27749 27793 27819 27889 27929 27931 27905 27874 27828 27848 27864 27919 27993 28081 28089 28039 28044 28008 28059 28094 28145 28195 28246 28252 28233 28221 28188 28200 28233 28256 28297 28354 28393 28387 28277 28291 28206 28276 28316 28366 28373 28363 28369 28354 28314 28276 28314 28330 28337 28378 28364 28368 28358 28365 28315 28363 28383 28446 28445 28458 28445 28462 28448 28420 28404 28413 28415 28434 28480 28545 28543 28598 28459 28460 28485 28486 28469 28461 28441 28454 28366 28349 28361 28347 28353 28344 28355 28367 28300 28318 28318 28380 28402 28433 28441 28471 28480 28494 28477 28425 28432 28463 28483 28477 28482 28458 28433 28407 28412 28433 28472 28483 28503 28498 28482 28473 28427 28422 28428 28427 28455 28465 28475 28456 28497 28443 28480 28498 28536 28540 28550 28567 28573 28533 28546 28529 28544 28560 28596 28617 28629 28664 28713 28633 28651 28673 28713 28722 28714 28732 28692 28720 28677 28677 28688 28706 28706 28724 28708 28793 28758 28702 28705 28735 28772 28782 28784 28797 28738 28785 28790 28792 28775 28778 28756 28743 28769 28870 29035 29040 28958 28916 28901 28894 28889 28914 28908 28906 28935 29022 29047 28967 28911 28823 28818 28835 28885 28960 29018 28937 28842 28759 28723 28727 28758 28786 28780 28801 28832 28773 28656 28569 28551 28577 28623 28641 28727 28696 28583 28530 28523 28525 28559 28592 28617 28575 28554 28502 28398 28355 28329 28334 28371 28404 28452 28442 28346 28307 28305 28340 28378 28427 28462 28480 28449 28390 28335 28315 28338 28412 28478 28455 28502 28451 28439 28423 28445 28477 28542 28584 28633 28644 28618 28573 28565 28542 28561 28609 28654 28665 28716 28696 28630 28610 28613 28639 28679 28747 28776 28784 28740 28697 28664 28649 28671 28726 28752 28766 28839 28762 28747 28766 28759 28767 28814 28858 28880 28844 28840 28792 28733 28707 28758 28808 28797 28785 28801 28733 28718 28696 28693 28725 28760 28784 28792 28722 28669 28588 28525 28519 28602 28618 28620 28619 28560 28524 28429 28371 28334 28372 28394 28407 28365 28267 28213 28065 27947 27957 27989 28055 28023 28011 27942 27923 27855 27825 27829 27870 27889 27884 27842 27751 27657 27545 27548 27572 27604 27618 27618 27549 27558 27506 27455 27443 27487 27524 27564 27533 27519 27518 27466 27428 27465 27533 27585 27586 27597 27625 27666 27677 27693 27701 27743 27793 27817 27765 27781 27782 27777 27816 27885 27914 27919 27947 27924 27951 27961 27981 27995 28024 28082 28100 28082 28050 28076 28062 28035 28038 28075 28099 28099 28101 28098 28113 28125 28148 28150 28192 28235 28270 28270 28249 28252 28209 28213 28263 28331 28395 28412 28639 28723 28783 28755 28752 28748 28748 28806 28823 28823 28876 28861 28805 28801 28835 28954 29059 29121 29120 29168 29093 28988 28969 28908 28880 28897 28934 28947 28928 28894 28802 28728 28751 28824 28914 28918 28886 28961 28798 28542 28402 28354 28356 28410 28473 28513 28443 28362 28216 28101 28086 28186 28281 28263 28222 28206 27993 27841 27768 27778 27829 27936 28003 27996 27876 27732 27587 27529 27575 27682 27786 27762 27802 27663 27468 27360 27350 27359 27436 27498 27542 27470 27452 27350 27267 27272 27406 27505 27532 27524 27572 27451 27389 27377 27380 27401 27485 27566 27565 27519 27513 27413 27400 27470 27560 27688 27755 27800 27754 27648 27610 27602 27663 27736 27824 27874 27905 27880 27875 27788 27808 27866 28001 28065 28066 28157 28124 28062 28057 28075 28086 28141 28194 28214 28159 28233 28193 28176 28201 28252 28338 28444 28514 28560 28479 28469 28477 28515 28575 28619 28633 28606 28638 28609 28575 28544 28573 28628 28634 28645 28669 28632 28584 28583 28587 28625 28656 28694 28678 28630 28656 28617 28605 28651 28746 28774 28775 28821 28803 28815 28832 28837 28857 28899 28938 28954 28897 28913 28932 28893 28884 28911 28969 28974 28998 28911 28893 28892 28898 28883 28878 28909 28915 28879 28856 28860 28834 28773 28781 28835 28878 28905 28985 28928 28910 28906 28910 28898 28925 28974 28977 28928 29000 28989 28965 28954 28995 29051 29014 29023 28944 28925 28969 29001 29018 29011 29072 29077 29026 29059 29058 29065 29070 29113 29188 29200 29188 29170 29172 29231 29239 29258 29248 29283 29304 29308 29271 29294 29326 29341 29374 29424 29478 29450 29461 29460 29441 29481 29504 29482 29493 29503 29521 29522 29490 29512 29533 29496 29477 29552 29608 29590 29570 29555 29522 29525 29512 29474 29460 29478 29493 29479 29478 29485 29472 29428 29476 29518 29580 29565 29666 29539 29520 29539 29501 29452 29454 29470 29444 29456 29414 29410 29304 29231 29234 29264 29275 29313 29269 29171 29162 29116 29040 29021 29050 29079 29034 29110 29036 28985 28890 28835 28864 28915 28902 28922 28888 28825 28807 28778 28727 28679 28683 28693 28677 28637 28587 28542 28474 28458 28515 28581 28585 28574 28597 28525 28464 28414 28376 28406 28494 28564 28560 28535 28524 28452 28414 28432 28476 28514 28512 28567 28525 28480 28414 28382 28358 28376 28428 28439 28432 28440 28390 28296 28238 28276 28349 28380 28392 28440 28338 28325 28291 28267 28261 28321 28355 28380 28304 28277 28263 28204 28209 28257 28336 28390 28370 28414 28401 28393 28391 28414 28450 28501 28537 28546 28517 28487 28442 28407 28435 28475 28528 28598 28571 28580 28531 28480 28480 28540 28582 28645 28692 28718 28672 28671 28622 28597 28627 28691 28771 28858 28817 28856 28794 28835 28847 28885 28914 28950 29007 29017 28957 28934 28874 28885 28911 28986 29070 29083 29089 29029 28926 28900 28872 28877 28917 28946 28986 28935 28805 28662 28588 28569 28609 28696 28788 28794 28788 28627 28512 28451 28426 28444 28484 28518 28514 28365 28195 28056 27942 27920 27987 28069 28176 28243 28301 28084 27967 27954 27953 28013 28137 28193 28122 28023 27873 27753 27723 27787 27887 27976 27965 28043 27838 27660 27590 27597 27640 27735 27798 27819 27738 27602 27518 27462 27533 27644 27736 27807 27953 27931 27805 27725 27675 27672 27714 27769 27806 27792 27727 27594 27526 27521 27638 27709 27805 27849 27862 27738 27718 27719 27757 27824 27880 27937 27976 27868 27772 27682 27664 27700 27879 28076 28200 28283 28350 28359 28439 28610 28760 28920 29067 29196 29349 29395 29398 29451 29525 29649 29742 29752 29749 29672 29562 29503 29500 29516 29525 29536 29542 29553 29441 29354 29295 29251 29241 29258 29288 29273 29329 29219 29199 29176 29185 29201 29252 29282 29282 29236 29127 29009 28951 28920 28977 29017 29077 29112 29170 28996 28795 28730 28734 28768 28822 28851 28872 28794 28617 28479 28375 28311 28305 28367 28461 28507 28473 28406 28175 28109 28104 28148 28221 28300 28346 28255 28033 27871 27785 27782 27836 27914 27972 27968 27858 27744 27658 27666 27688 27748 27808 27902 27935 27844 27730 27616 27588 27574 27642 27708 27777 27784 27784 27824 27884 27953 28007 28083 28153 28211 28184 28179 28195 28216 28275 28296 28324 28383 28355 28300 28264 28252 28295 28325 28388 28423 28486 28513 28516 28487 28438 28424 28455 28468 28511 28559 28561 28539 28528 28463 28483 28556 28605 28655 28697 28727 28711 28656 28639 28694 28724 28785 28827 28834 28818 28765 28733 28783 28818 28860 28923 28971 28994 28949 28853 28811 28818 28849 28897 28944 28994 28950 28924 28854 28873 28900 28938 28988 29055 29096 29089 29012 28960 28937 28938 28973 29035 29105 29145 29177 29189 29213 29219 29251 29295 29391 29449 29488 29497 29556 29624 29721 29800 29927 30045 30126 30215 30212 30193 30152 30099 30046 30043 30013 30008 29956 29817 29622 29494 29398 29323 29337 29366 29377 29272 29118 28915 28816 28763 28766 28777 28806 28828 28738 28447 28239 28088 28006 27972 27993 27997 27968 27824 27513 27320 27271 27302 27360 27427 27508 27499 27251 26968 26792 26724 26719 26857 26996 27125 27144 27085 26828 26772 26783 26851 26956 27053 27171 27179 27004 26859 26822 26812 26897 26997 27135 27261 27225 27139 27010 27005 27055 27119 27203 27314 27400 27370 27202 27157 27147 27163 27222 27300 27405 27441 27465 27396 27429 27483 27548 27639 27718 27807 27858 27785 27805 27818 27830 27861 27933 27992 28020 28009 28018 28057 28102 28141 28193 28261 28329 28372 28394 28318 28331 28351 28415 28512 28606 28606 28646 28590 28641 28670 28717 28744 28789 28845 28876 28860 28855 28852 28844 28891 28951 29049 29103 29107 29090 29110 29120 29146 29176 29269 29424 29538 29680 29705 29772 29872 29968 30074 30203 30307 30411 30486 30578 30621 30706 30746 30801 30823 30815 30749 30746 30791 30796 30841 30870 30977 31045 31035 30973 30902 30856 30736 30603 30498 30382 30313 30141 30045 29989 29865 29714 29650 29610 29499 29453 29261 29149 29097 29035 28905 28811 28751 28684 28622 28493 28413 28329 28228 28127 28177 28358 28376 28387 28414 28487 28566 28657 28717 28852 28996 29137 29307 29413 29538 29618 29636 29680 29740 29722 29669 29610 29542 29477 29420 29293 29172 29111 29080 28985 28889 28856 28854 28785 28759 28760 28716 28655 28597 28542 28539 28564 28513 28450 28424 28425 28423 28341 28306 28291 28257 28245 28285 28330 28292 28283 28257 28258 28325 28361 28335 28351 28359 28382 28360 28343 28311 28351 28330 28317 28372 28428 28429 28406 28360 28376 28423 28441 28440 28443 28468 28524 28545 28509 28471 28446 28414 28360 28354 28375 28407 28398 28444 28437 28448 28440 28462 28484 28536 28593 28624 28616 28570 28546 28522 28508 28554 28632 28686 28729 28727 28717 28719 28720 28743 28782 28837 28908 28927 28932 28848 28814 28773 28769 28876 28997 29071 29056 29092 28984 28938 28907 28912 28916 28953 29023 29042 29053 29070 29145 29266 29401 29479 29685 29941 30048 30113 30165 30240 30315 30409 30489 30570 30684 30744 30767 30748 30684 30744 30827 30874 30942 31004 31059 31088 31036 30986 31025 31022 31048 31102 31135 31212 31297 31308 31290 31284 31354 31495 31579 31659 31747 31791 31839 31827 31791 31768 31743 31733 31753 31743 31474 31239 31033 30876 30807 30835 30868 30867 30763 30584 30358 30077 29905 29793 29728 29713 29686 29597 29393 29278 29192 29173 29222 29320 29474 29595 29646 29725 29790 29866 29938 29992 30064 30140 30160 30153 30111 30170 30218 30287 30393 30452 30561 30632 30730 30782 30855 30898 30949 30973 31023 31092 31096 31152 31239 31301 31357 31417 31462 31467 31468 31474 31252 31063 30943 30809 30728 30667 30622 30602 30496 30283 30058 29894 29787 29719 29674 29671 29710 29635 29386 29203 29042 28927 28854 28842 28840 28821 28707 28529 28322 28149 28056 28012 27985 28000 28077 28113 28056 27935 27878 27813 27793 27821 27847 27869 27795 27731 27645 27544 27547 27571 27608 27672 27720 27760 27812 27822 27887 27946 27969 27964 28003 28023 28003 27973 27953 27938 27926 27981 28066 28218 28341 28394 28427 28480 28571 28655 28718 28810 28916 29022 29134 29255 29326 29430 29536 29633 29722 29834 29946 30094 30153 30234 30299 30336 30332 30332 30297 30262 30206 30191 30165 30134 30101 30100 30112 30129 30143 30184 30212 30187 30236 30199 30177 30181 30177 30151 30132 30157 30135 30124 30109 30118 30169 30193 30201 30210 30206 30165 30165 30133 30130 30144 30161 30195 30216 30232 30211 30177 30157 30179 30218 30242 30261 30263 30241 30171 30112 30110 30066 30077 30062 30044 30000 30021 29973 29974 29955 30000 30029 30018 30004 30026 30050 30042 30101 30151 30206 30262 30298 30346 30426 30476 30557 30649 30776 30901 31004 31104 31129 31166 31231 31280 31340 31379 31401 31454 31492 31551 31560 31558 31555 31560 31603 31650 31691 31741 31749 31778 31794 31817 31834 31802 31722 31651 31541 31407 31299 31200 31143 31046 30941 30823 30746 30578 30407 30315 30268 30195 30103 30052 29911 29819 29729 29625 29551 29536 29523 29448 29303 29199 29063 28854 28696 28598 28621 28614 28620 28572 28520 28442 28379 28342 28334 28349 28380 28448 28450 28483 28493 28526 28583 28680 28761 28842 28945 29010 29077 29076 29006 28953 28949 28969 29021 29039 29048 29074 29166 29208 29275 29340 29429 29498 29589 29708 29848 29863 29872 29923 29999 30100 30207 30292 30341 30383 30391 30351 30372 30408 30463 30510 30447 30405 30318 30214 30110 30041 29984 29946 29929 29854 29806 29754 29687 29610 29592 29631 29636 29614 29620 29562 29508 29423 29355 29342 29323 29324 29332 29281 29237 29256 29177 29111 29134 29221 29321 29340 29346 29262 29249 29208 29165 29168 29205 29238 29249 29253 29322 29304 29227 29183 29262 29359 29374 29345 29312 29303 29264 29224 29143 29120 29128 29128 29118 29088 29040 28895 28754 28655 28617 28608 28647 28678 28706 28781 28832 28846 28860 28904 28945 29011 29055 29093 29123 29045 28939 28866 28835 28803 28789 28799 28771 28791 28787 28721 28713 28714 28724 28745 28761 28800 28845 28857 28946 29043 29091 29129 29133 29191 29264 29314 29375 29418 29521 29633 29788 29937 30019 30125 30225 30315 30415 30484 30589 30683 30777 30714 30683 30548 30390 30291 30204 30148 30105 30058 29986 29941 29867 29749 29677 29682 29717 29722 29664 29630 29593 29506 29390 29301 29270 29267 29253 29283 29296 29229 29123 29021 28969 28960 28968 28913 28897 28822 28781 28737 28702 28686 28711 28740 28767 28700 28640 28614 28522 28424 28380 28378 28366 28390 28372 28251 28222 28215 28149 28109 28119 28153 28189 28151 28180 28159 28097 28031 28058 28154 28261 28403 28474 28503 28560 28624 28630 28631 28704 28783 28873 28961 29046 29083 29159 29329 29510 29683 29827 29754 29787 29715 29670 29646 29560 29523 29485 29477 29428 29352 29340 29305 29233 29212 29256 29311 29277 29287 29321 29246 29273 29295 29252 29233 29241 29233 29165 29159 29154 29140 29087 29106 29194 29278 29246 29228 29166 29164 29170 29180 29181 29179 29205 29252 29258 29197 29151 29148 29180 29212 29286 29359 29399 29327 29327 29263 29268 29262 29275 29287 29360 29410 29393 29358 29322 29374 29306 29305 29306 29320 29350 29316 29393 29290 29239 29202 29153 29169 29198 29226 29270 29218 29251 29206 29129 29118 29162 29216 29272 29268 29326 29251 29238 29204 29203 29209 29254 29288 29317 29289 29285 29265 29231 29259 29333 29446 29467 29520 29489 29473 29481 29486 29457 29472 29471 29489 29441 29428 29437 29402 29338 29383 29440 29516 29479 29503 29421 29424 29439 29411 29399 29413 29424 29419 29387 29399 29429 29421 29480 29552 29630 29631 29768 29658 29626 29617 29639 29625 29600 29602 29564 29513 29476 29480 29486 29496 29514 29543 29490 29522 29579 29507 29483 29525 29510 29481 29468 29442 29383 29326 29300 29307 29344 29316 29276 29263 29185 29234 29190 29199 29239 29269 29248 29245 29188 29150 29080 29056 29093 29115 29130 29099 29112 29102 29147 29063 29045 29064 29096 29134 29130 29104 29048 28994 29001 28961 29004 29038 29052 29069 29117 29048 29088 29014 28987 29013 29077 29119 29125 29085 29041 29011 29013 29068 29092 29182 29267 29474 29512 29561 29633 29689 29725 29798 29895 29989 30059 30129 30214 30355 30483 30636 30839 30969 31039 31067 30947 30864 30822 30813 30790 30785 30771 30691 30581 30478 30413 30394 30403 30406 30490 30582 30621 30574 30462 30322 30262 30208 30175 30169 30129 30034 29904 29740 29570 29487 29400 29368 29423 29468 29397 29153 29055 28893 28797 28725 28727 28726 28651 28536 28428 28287 28174 28066 28005 27979 28024 28065 28080 27945 27900 27828 27790 27785 27846 27906 27872 27809 27747 27688 27631 27634 27601 27602 27635 27653 27642 27516 27513 27507 27515 27564 27625 27670 27651 27598 27557 27496 27487 27496 27509 27609 27675 27718 27704 27628 27658 27704 27771 27825 27893 27943 27958 27939 27906 27927 27936 27970 28009 28099 28189 28287 28282 28281 28389 28445 28447 28490 28529 28537 28533 28512 28507 28641 28697 28720 28747 28818 28951 29011 28967 29024 29042 29049 29106 29178 29322 29483 29560 29612 29680 29767 29866 30010 30220 30477 30646 30777 30901 31040 31093 31074 31068 31058 30973 30907 30794 30696 30660 30615 30662 30697 30790 30871 30859 30723 30641 30523 30479 30415 30388 30368 30331 30222 30097 29991 29903 29846 29808 29771 29808 29752 29557 29350 29190 29128 29120 29105 29133 29128 29028 28861 28636 28485 28394 28327 28348 28444 28488 28309 28176 28008 27923 27898 27919 27989 28057 28098 27945 27662 27507 27494 27476 27469 27504 27599 27641 27472 27337 27126 27114 27169 27257 27386 27483 27505 27397 27167 27070 27088 27129 27201 27323 27457 27460 27231 27053 26937 27001 27102 27206 27345 27467 27473 27372 27186 27157 27240 27326 27455 27573 27647 27613 27508 27413 27437 27506 27598 27700 27812 27886 27878 27794 27722 27725 27753 27841 27971 28094 28145 28068 27988 27977 28005 28059 28132 28191 28276 28322 28335 28301 28294 28342 28379 28461 28567 28677 28739 28703 28650 28648 28680 28731 28771 28844 28916 28942 28938 28934 28911 28963 29006 29100 29238 29447 29498 29478 29572 29671 29703 29763 29840 29948 30146 30278 30368 30450 30570 30655 30802 31018 31197 31298 31330 31467 31525 31627 31551 31442 31378 31337 31300 31221 31125 31054 30984 30937 30954 31057 31177 31218 31156 31026 31022 31060 31100 31157 31197 31224 31241 31264 31331 31443 31507 31596 31671 31727 31811 31895 31948 31988 32045 32052 32026 32005 31995 32001 31991 31930 31907 31962 32040 32097 32126 32119 32134 32122 31978 31673 31450 31173 31028 30927 30878 30813 30622 30404 30193 29943 29724 29537 29396 29307 29226 29037 28782 28592 28458 28348 28287 28262 28265 28279 28198 28061 27938 27833 27726 27656 27630 27659 27645 27576 27448 27405 27295 27206 27190 27222 27285 27327 27241 27133 27029 26953 26915 26893 26938 27014 27033 26951 26935 26908 26854 26858 26895 26980 27069 27129 27110 27080 27010 27011 27016 27032 27085 27161 27237 27209 27180 27217 27158 27185 27258 27383 27461 27460 27453 27436 27429 27444 27457 27503 27548 27673 27737 27739 27691 27681 27757 27819 27890 27951 28063 28103 28104 28081 28107 28143 28199 28258 28330 28416 28478 28479 28475 28433 28479 28488 28526 28599 28679 28680 28663 28624 28619 28617 28650 28694 28742 28760 28761 28734 28711 28682 28690 28736 28810 28864 28933 28943 28940 28944 28917 28927 28950 29031 29135 29235 29258 29241 29216 29157 29190 29205 29226 29285 29314 29307 29312 29304 29450 29514 29705 29928 30062 30220 30426 30467 30482 30489 30491 30548 30608 30672 30753 30846 30892 30983 31090 31211 31341 31465 31505 31601 31673 31762 31840 31849 31826 31724 31678 31618 31560 31450 31284 31119 30988 30888 30907 30961 31048 31094 30951 30917 30914 30954 31007 31028 31069 31166 31249 31305 31357 31420 31418 31398 31356 31335 31369 31346 31190 30955 30797 30608 30447 30346 30295 30270 30206 30027 29800 29583 29403 29234 29137 29080 29090 29138 29068 28809 28661 28459 28371 28330 28332 28349 28326 28180 28017 27829 27705 27646 27629 27632 27687 27707 27691 27536 27459 27456 27450 27496 27581 27662 27748 27695 27593 27486 27404 27388 27393 27431 27469 27558 27571 27557 27533 27499 27516 27550 27600 27676 27735 27716 27691 27650 27634 27675 27691 27764 27867 27972 28024 28034 28072 28035 28043 28080 28144 28223 28275 28289 28323 28454 28430 28541 28624 28622 28730 28712 28671 28632 28629 28621 28642 28666 28700 28762 28797 28801 28782 28753 28793 28791 28804 28773 28775 28774 28795 28851 28971 29138 29360 29564 29741 29854 29898 29890 29799 29703 29808 29886 29976 30113 30423 30576 30484 30434 30346 30266 30209 30237 30386 30601 30612 30649 30629 30613 30550 30587 30677 30796 30930 31023 30989 30976 30994 31025 31070 31191 31284 31351 31488 31435 31296 31160 31159 31170 31185 31225 31129 31013 30812 30608 30470 30382 30333 30413 30329 30165 30122 30075 30002 29943 29894 29924 29961 29885 29798 29704 29606 29504 29444 29363 29544 29699 29683 29650 29625 29589 29566 29500 29409 29716 29763 29567 29469 29347 29286 29243 29164 29106 29208 29063 28938 28893 28887 28877 28811 28718 28640 28655 28811 28840 28889 28988 29222 29371 29525 29588 29671 29786 29916 29991 30077 30177 30290 30364 30413 30441 30480 30519 30553 30628 30708 30730 30670 30580 30450 30389 30299 30219 30189 30133 30042 29917 29771 29628 29531 29505 29505 29535 29635 29690 29518 29379 29258 29195 29178 29163 29197 29212 29179 29115 29016 28920 28874 28874 28883 28939 29009 29058 28942 28783 28630 28629 28648 28688 28770 28814 28826 28754 28629 28535 28541 28550 28600 28672 28767 28708 28598 28485 28486 28528 28577 28645 28722 28765 28749 28588 28522 28463 28465 28493 28553 28654 28729 28683 28642 28522 28546 28564 28634 28699 28774 28860 28876 28829 28795 28753 28791 28930 29202 29430 29524 29603 29633 29690 29767 29850 29972 30083 30182 30242 30281 30366 30508 30599 30691 30846 30991 31101 31207 31186 31058 30953 30848 30786 30741 30715 30678 30656 30572 30435 30331 30218 30167 30173 30236 30308 30292 30187 30051 29941 29876 29832 29862 29850 29884 29858 29793 29723 29662 29533 29444 29408 29492 29594 29561 29499 29435 29319 29229 29196 29199 29216 29230 29198 28988 28765 28599 28491 28506 28616 28714 28739 28667 28502 28270 28165 28142 28168 28236 28320 28379 28341 28131 27909 27781 27733 27789 27892 28011 28047 28075 27889 27801 27760 27774 27866 27935 28039 28066 28006 27862 27758 27722 27785 27937 28097 28187 28213 28159 28061 28001 28034 28071 28149 28247 28324 28353 28342 28256 28203 28228 28306 28425 28561 28628 28663 28624 28596 28591 28608 28696 28759 28839 28893 28945 29092 29285 29468 29668 29893 30141 30291 30319 30373 30331 30336 30357 30400 30472 30556 30638 30674 30720 30792 30876 30988 31128 31230 31325 31378 31517 31586 31451 31358 31300 31275 31253 31239 31220 31176 31161 31082 31062 31094 31122 31209 31290 31288 31220 31142 30977 30855 30770 30710 30692 30691 30669 30647 30578 30429 30286 30206 30221 30274 30376 30428 30392 30305 30148 29983 29886 29865 29860 29848 29862 29843 29762 29591 29421 29349 29386 29468 29564 29611 29542 29403 29161 28991 28894 28844 28852 28895 28939 28939 28785 28555 28355 28225 28241 28352 28456 28516 28553 28557 28285 28082 28030 28089 28173 28265 28310 28330 28277 28085 27937 27910 28004 28122 28236 28273 28367 28255 28070 27981 27995 28075 28171 28252 28331 28389 28360 28320 28313 28372 28471 28563 28622 28749 28741 28680 28608 28587 28618 28667 28728 28785 28812 28873 28822 28785 28744 28809 28907 29018 29067 29082 29094 29082 29053 29038 29047 29080 29116 29149 29209 29237 29229 29260 29353 29424 29466 29482 29532 29523 29547 29592 29658 29728 29759 29749 29774 29808 29847 29871 29897 29920 29944 29992 29968 29977 29954 29958 29958 29981 30000 30073 30096 30066 30040 30046 30046 30038 30038 30042 30064 30080 30094 30112 30097 30071 30082 30072 30075 30054 30030 29982 29976 29987 29988 30023 30051 30048 30052 30055 30053 30033 30003 29988 30008 30010 29974 29924 29877 29851 29841 29845 29855 29884 29878 29860 29828 29823 29812 29827 29773 29775 29773 29783 29729 29657 29606 29545 29517 29470 29469 29503 29537 29512 29475 29391 29370 29335 29307 29310 29337 29316 29247 29164 29099 29032 28996 28943 28960 29062 29160 29199 29221 29144 29080 29050 29034 29023 29047 29046 28993 28933 28902 28847 28833 28851 28877 28920 28977 29018 29034 28981 28953 28954 28936 28948 29006 29036 28972 28956 28884 28890 28883 28880 28912 28956 28971 29061 29102 29002 28972 29019 29024 29039 29082 29094 29031 29011 28968 28989 29029 29087 29150 29238 29365 29387 29320 29331 29332 29342 29349 29367 29409 29428 29378 29348 29299 29316 29345 29408 29461 29572 29670 29685 29618 29705 29604 29612 29629 29682 29725 29737 29709 29644 29685 29866 29749 29742 29778 29889 30052 30134 29992 29957 29936 29958 29965 29993 30025 30016 29983 29948 29949 29983 30034 30062 30107 30255 30370 30262 30250 30239 30263 30250 30267 30275 30303 30275 30220 30200 30177 30191 30236 30266 30323 30405 30466 30430 30377 30372 30348 30367 30385 30400 30442 30446 30417 30372 30348 30371 30441 30514 30564 30598 30571 30700 30626 30465 30442 30452 30454 30481 30517 30523 30464 30351 30349 30394 30388 30360 30358 30342 30412 30185 30045 29950 29895 29908 29942 29944 29958 29979 29891 29818 29796 29803 29859 29869 29931 30005 30032 30063 30069 30094 30165 30251 30340 30422 30516 30604 30523 30426 30456 30549 30659 30684 30759 30868 30846 30588 30383 30218 30107 30075 30050 30049 30027 29991 29902 29785 29777 29880 30003 30064 30131 30132 30081 29959 29812 29716 29653 29632 29634 29616 29590 29578 29457 29344 29319 29350 29429 29435 29324 29355 29323 29256 29153 29077 29066 29094 29095 29095 29145 29135 29098 29012 29021 29156 29285 29342 29352 29365 29370 29343 29315 29279 29266 29306 29313 29269 29284 29336 29333 29324 29430 29547 29666 29595 29578 29568 29569 29536 29485 29442 29447 29467 29443 29425 29445 29483 29494 29480 29542 29665 29687 29631 29671 29679 29690 29694 29692 29676 29681 29715 29724 29709 29742 29806 29803 29832 29880 29932 29878 29904 29843 29857 29881 29886 29897 29871 29845 29840 29799 29813 29841 29867 29904 30029 30112 30097 30033 29969 29951 29988 30040 30072 30065 30057 30053 29995 29938 29927 29981 30007 30052 30063 30038 30018 29996 30064 29967 29989 30027 30074 30043 29995 29985 29948 29958 29961 30078 30123 30129 30161 30215 30281 30278 30328 30200 30177 30181 30205 30200 30155 30079 30013 29938 29914 29918 29924 29910 29905 29922 29853 29766 29760 29784 29786 29806 29813 29759 29685 29638 29588 29540 29526 29548 29601 29640 29599 29632 29608 29561 29498 29487 29469 29484 29507 29483 29428 29362 29304 29242 29253 29247 29251 29271 29265 29272 29212 29209 29135 29126 29141 29165 29169 29129 29057 28987 28942 28859 28815 28802 28802 28767 28646 28591 28612 28742 28859 28980 29072 29143 29183 29170 29124 29140 29196 29260 29302 29351 29390 29446 29422 29341 29274 29238 29239 29272 29281 29327 29356 29283 29243 29189 29178 29178 29185 29203 29178 29174 29154 29084 29041 29065 29170 29195 29251 29305 29328 29283 29215 29188 29271 29347 29495 29593 29687 29743 29758 29672 29812 29902 29864 29846 29855 29881 29877 29841 29770 29707 29721 29694 29700 29718 29813 29919 29985 29923 29846 29861 29903 29877 29869 29904 29905 29883 29840 29828 29876 29818 29813 29785 29811 29846 29825 29782 29751 29742 29739 29713 29733 29772 29759 29696 29630 29573 29516 29456 29436 29528 29581 29595 29476 29397 29303 29225 29213 29217 29249 29291 29290 29243 29132 29138 29049 28906 28838 28835 28889 28895 28820 28805 28664 28629 28631 28686 28739 28781 28752 28675 28541 28507 28464 28417 28472 28620 28742 28660 28604 28460 28454 28478 28566 28665 28759 28833 28767 28618 28592 28658 28676 28796 28976 29078 29057 28972 29013 28879 28883 28967 29066 29157 29247 29217 29091 29042 29038 29073 29104 29196 29338 29457 29499 29491 29557 29489 29487 29583 29692 29768 29843 29864 29959 30026 30134 30247 30397 30576 30740 30873 30845 30788 30677 30583 30553 30538 30496 30468 30417 30216 30072 29946 29866 29844 29897 30015 30003 29714 29473 29353 29282 29265 29310 29372 29429 29450 29323 29070 28897 28791 28759 28784 28847 28970 28932 28800 28554 28340 28276 28280 28322 28416 28456 28441 28221 27996 27808 27754 27790 27921 28109 28305 28327 28260 28104 27959 27934 27967 28030 28128 28202 28182 28023 27854 27738 27674 27696 27751 27882 27977 27903 27769 27608 27534 27550 27618 27720 27808 27867 27879 27817 27695 27611 27580 27684 27847 27947 27964 28054 27996 27896 27834 27860 27905 27994 28058 28097 28104 28033 27954 27927 28025 28201 28326 28334 28359 28444 28400 28306 28247 28220 28288 28357 28391 28411 28436 28356 28239 28228 28302 28449 28591 28654 28741 28806 28789 28771 28802 28876 28950 29037 29098 29229 29294 29323 29333 29412 29576 29773 29941 30173 30356 30537 30625 30638 30648 30663 30624 30570 30502 30435 30463 30495 30552 30638 30695 30665 30610 30614 30547 30483 30411 30332 30276 30227 30190 30137 30051 30050 30005 29899 29853 29890 29925 29864 29883 29817 29738 29710 29634 29525 29484 29476 29434 29354 29309 29314 29279 29190 29160 29232 29272 29189 29170 29082 29031 29039 29001 28947 28894 28890 28884 28773 28679 28661 28582 28476 28414 28467 28506 28443 28494 28430 28402 28388 28347 28267 28233 28237 28234 28172 28147 28110 28028 27931 27940 27996 27989 28033 28032 28014 28040 28063 28016 27971 27957 27946 27895 27901 27927 27940 27904 27862 27895 27927 27920 27942 27915 27941 28014 28010 27942 27920 27907 27877 27889 27895 27944 27979 27955 28004 28072 28045 28097 28140 28152 28220 28258 28235 28198 28199 28196 28208 28239 28277 28328 28336 28347 28416 28491 28493 28458 28453 28488 28528 28566 28523 28485 28460 28447 28491 28470 28505 28547 28659 28784 28844 28777 28831 28781 28790 28824 28871 28858 28817 28800 28802 28776 28791 28844 28900 28926 28992 29093 29127 29055 29015 29052 29067 29107 29139 29118 29094 29050 28945 28934 28979 29018 29083 29175 29205 29199 29098 29077 29096 29140 29201 29226 29235 29211 29218 29158 29157 29201 29246 29286 29316 29350 29384 29372 29292 29306 29364 29380 29426 29464 29445 29396 29349 29303 29289 29303 29339 29392 29472 29518 29494 29426 29359 29376 29351 29397 29438 29458 29403 29348 29323 29299 29279 29265 29306 29412 29482 29511 29469 29424 29370 29345 29339 29378 29451 29471 29421 29343 29306 29280 29280 29308 29353 29414 29423 29425 29414 29355 29324 29291 29268 29288 29333 29304 29210 29138 29082 29089 29098 29107 29169 29240 29284 29274 29145 29130 29124 29089 29100 29139 29189 29135 29059 29029 29009 29007 29017 29071 29147 29194 29185 29174 29180 29296 29260 29224 29202 29241 29226 29129 29061 29000 28923 28918 28919 28995 29054 29109 29106 29077 29098 29165 29097 29069 29082 29150 29111 29037 29008 28989 28948 28976 29012 29100 29184 29228 29216 29198 29217 29223 29223 29188 29186 29217 29185 29141 29102 29087 29073 29108 29146 29240 29286 29319 29323 29327 29339 29429 29470 29504 29557 29639 29700 29790 29889 29981 30112 30176 30311 30421 30603 30851 31053 31177 31222 31194 31074 30995 30976 30909 30792 30655 30549 30418 30321 30234 30175 30093 29911 29691 29547 29492 29484 29486 29502 29543 29572 29547 29449 29326 29296 29240 29173 29158 29167 29171 29089 28913 28793 28718 28675 28643 28674 28712 28740 28634 28498 28422 28337 28420 28546 28695 28860 29068 29425 29597 29741 29858 29953 30009 30041 30116 30251 30407 30501 30605 30693 30787 30804 30795 30845 30849 30734 30594 30459 30455 30370 30255 30189 30115 30021 29847 29698 29585 29465 29453 29388 29277 29235 29175 29163 29106 28953 29030 28909 28903 28942 28983 28956 28914 28829 28772 28680 28694 28708 28768 28803 28829 28813 28748 28722 28633 28608 28651 28700 28755 28735 28660 28562 28422 28337 28334 28351 28426 28496 28489 28404 28297 28291 28355 28415 28461 28554 28616 28606 28591 28548 28461 28430 28432 28476 28524 28536 28547 28519 28434 28456 28370 28405 28510 28612 28679 28698 28670 28605 28488 28453 28478 28534 28615 28640 28652 28634 28564 28544 28487 28529 28610 28699 28736 28757 28730 28721 28681 28668 28735 28790 28838 28862 28914 28940 28864 28855 28920 28962 29020 29103 29107 29069 29065 29044 29019 29013 29034 29104 29150 29177 29173 29225 29255 29225 29272 29325 29371 29411 29402 29382 29356 29310 29323 29340 29389 29446 29514 29545 29589 29589 29575 29506 29550 29563 29608 29648 29645 29615 29612 29571 29538 29530 29558 29576 29558 29547 29518 29456 29485 29501 29537 29557 29605 29607 29554 29532 29472 29427 29438 29444 29471 29533 29556 29528 29441 29530 29442 29433 29455 29500 29551 29555 29490 29376 29266 29216 29196 29157 29173 29200 29196 29128 29029 28962 28885 28906 28955 29021 29059 29011 28928 28791 28706 28614 28562 28565 28694 28784 28767 28588 28600 28443 28445 28445 28487 28564 28583 28529 28404 28257 28211 28157 28198 28253 28356 28407 28384 28215 28231 28155 28161 28200 28307 28362 28339 28222 28134 28035 28010 28036 28062 28140 28205 28245 28134 28102 28057 28097 28142 28248 28351 28432 28417 28348 28224 28216 28203 28215 28309 28481 28618 28556 28490 28470 28449 28497 28552 28650 28738 28771 28744 28652 28625 28620 28666 28732 28806 28883 28887 28856 28893 28870 28945 28974 29062 29127 29182 29199 29163 29071 29103 29157 29244 29348 29470 29593 29546 29540 29472 29494 29513 29561 29614 29664 29690 29633 29521 29483 29471 29491 29569 29640 29756 29742 29692 29572 29545 29538 29564 29601 29651 29704 29675 29554 29440 29347 29316 29320 29340 29399 29480 29470 29272 29128 29076 29078 29116 29144 29188 29227 29152 28963 28779 28635 28556 28537 28571 28672 28734 28592 28434 28268 28172 28166 28214 28280 28368 28446 28355 28133 28032 27937 27905 27952 28021 28102 28187 28115 27968 27841 27728 27749 27781 27862 27945 27982 27891 27722 27653 27582 27562 27576 27695 27837 27904 27799 27741 27645 27617 27656 27713 27811 27892 27930 27899 27822 27824 27809 27809 27858 27928 28015 28042 28049 28027 28012 28059 28080 28127 28170 28227 28202 28165 28142 28149 28168 28219 28192 28195 28213 28243 28285 28329 28291 28313 28336 28388 28464 28522 28544 28537 28554 28572 28544 28600 28644 28620 28610 28642 28715 28770 28746 28788 28755 28821 28890 28930 28945 28941 28955 28979 28972 29004 29065 29075 29068 29070 29155 29218 29193 29220 29224 29259 29305 29323 29292 29271 29282 29289 29300 29302 29338 29435 29540 29643 29712 29698 29655 29641 29655 29665 29672 29643 29596 29562 29524 29487 29460 29426 29401 29375 29383 29455 29483 29446 29476 29382 29411 29427 29467 29411 29359 29356 29368 29350 29377 29457 29483 29473 29475 29585 29677 29643 29763 29920 29899 29899 29852 29783 29672 29640 29628 29603 29737 29811 29829 29753 29699 29751 29819 29788 29751 29677 29619 29600 29528 29454 29383 29360 29362 29442 29680 29829 29955 30013 30104 30308 30428 30550 30649 30706 30731 30695 30592 30435 30340 30261 30168 30154 30116 30094 30073 30133 30139 30047 29873 29724 29652 29611 29592 29537 29446 29307 29223 29119 29137 29088 29051 29072 29135 29215 29095 28920 28914 28886 28865 28871 28911 28838 28722 28622 28509 28461 28433 28464 28520 28633 28687 28673 28532 28475 28442 28454 28470 28519 28515 28426 28343 28290 28227 28234 28262 28300 28414 28537 28630 28567 28474 28415 28390 28395 28444 28508 28457 28384 28315 28196 28204 28109 28104 28187 28341 28425 28471 28366 28395 28345 28321 28326 28395 28399 28336 28294 28265 28266 28310 28305 28364 28440 28498 28542 28555 28512 28462 28445 28481 28531 28580 28591 28549 28545 28559 28530 28553 28512 28575 28605 28657 28697 28707 28682 28695 28693 28703 28743 28746 28695 28693 28703 28754 28769 28838 28823 28829 28831 28944 29113 29199 29205 29267 29236 29236 29270 29276 29258 29271 29309 29346 29378 29438 29450 29425 29438 29495 29659 29829 29802 29829 29836 29819 29751 29682 29642 29627 29663 29699 29710 29808 29865 29784 29789 29878 30077 30185 30237 30354 30427 30304 30165 30093 30025 30005 30003 29994 30002 30078 30082 30196 30377 30503 30678 30903 31026 31141 31214 31092 30908 30803 30721 30657 30603 30606 30529 30476 30212 29927 29714 29665 29737 29832 29796 29856 29642 29332 29131 29034 28981 29021 29061 29064 29007 28782 28416 28142 28029 28043 28187 28372 28422 28396 28122 27781 27600 27554 27608 27686 27746 27799 27671 27423 27165 27036 27049 27133 27321 27498 27524 27503 27247 27094 27092 27161 27236 27374 27504 27514 27370 27149 27045 27054 27222 27491 27758 27949 28017 27708 27505 27439 27463 27537 27634 27728 27795 27713 27667 27590 27630 27724 27949 28224 28391 28248 28207 28120 28080 28141 28222 28299 28372 28467 28419 28300 28200 28181 28182 28228 28326 28436 28509 28498 28338 28339 28428 28484 28551 28623 28666 28592 28517 28454 28440 28479 28558 28716 28807 28798 28971 28835 28824 28821 28864 28936 29022 29077 29085 28965 28869 28776 28752 28824 28974 29150 29224 29144 28958 28814 28723 28690 28733 28804 28864 28920 28857 28718 28619 28604 28648 28752 28993 29210 29219 29137 28881 28748 28656 28645 28715 28757 28840 28845 28680 28472 28327 28237 28221 28274 28399 28558 28506 28249 28039 27926 27906 27972 28045 28152 28197 28012 27755 27585 27550 27593 27678 27868 28079 28073 27800 27528 27421 27400 27462 27584 27703 27826 27835 27650 27398 27350 27348 27454 27600 27794 27876 27782 27694 27564 27465 27514 27584 27689 27808 27864 27756 27503 27413 27419 27479 27622 27762 27895 27923 27853 27727 27608 27636 27725 27842 27923 28023 28011 27955 27776 27778 27808 27855 27972 28154 28284 28282 28172 28187 28102 28142 28215 28304 28386 28420 28405 28366 28293 28310 28346 28404 28525 28680 28741 28761 28690 28674 28718 28740 28805 28852 28894 28895 28860 28820 28798 28814 28880 28972 29144 29303 29354 29276 29209 29295 29305 29310 29324 29342 29283 29248 29252 29287 29481 29666 29796 29978 30216 30399 30523 30554 30630 30625 30628 30686 30757 30827 30915 30990 31050 31098 31177 31274 31402 31519 31606 31671 31661 31648 31619 31520 31393 31285 31162 30972 30749 30578 30437 30268 30096 29922 29742 29472 29244 29077 29034 29071 29098 29161 29229 29242 29153 29035 29002 29050 29066 29052 29003 28948 28791 28588 28388 28283 28237 28131 28103 28069 28046 27877 27734 27689 27671 27681 27608 27565 27465 27319 27134 27092 27166 27346 27383 27428 27473 27525 27541 27479 27436 27465 27564 27700 27741 27809 28053 28295 28494 28722 28866 29021 29206 29252 29243 29094 28905 28744 28628 28584 28565 28484 28360 28202 28005 27859 27911 28021 28077 28118 28169 28091 28095 28043 27973 27987 28042 28111 28124 28130 28098 27967 27872 27887 28000 28085 28122 28186 28120 28110 28108 28049 28050 28112 28205 28273 28249 28244 28197 28108 28130 28234 28427 28536 28512 28504 28508 28524 28537 28565 28572 28630 28672 28705 28693 28662 28602 28573 28648 28838 29031 29097 29048 29047 29014 28980 28907 28943 28977 29047 29043 29018 29032 28957 28851 28826 28911 29056 29129 29125 29121 29161 29170 29150 29156 29193 29261 29311 29275 29255 29174 29068 29000 29043 29197 29298 29296 29333 29259 29160 29040 28954 28934 28982 29056 29085 29065 29037 28828 28631 28574 28702 28885 29052 29305 29439 29419 29374 29286 29319 29433 29575 29755 29969 30356 30706 30934 31126 31255 31369 31548 31745 31860 31912 31976 32000 32028 32017 32008 31986 31920 31825 31818 31849 31963 32017 32011 32016 32032 32068 32114 32117 32099 32112 32161 32211 32236 32233 32190 32082 31866 31552 31267 31118 31103 31106 31114 31189 31247 31081 30710 30397 30162 30005 29898 29792 29702 29659 29465 29156 28928 29004 29199 29376 29520 29599 29609 29322 29103 28979 28915 28926 28933 28932 28925 28884 28745 28708 28870 29041 29058 29046 29077 28810 28587 28331 28134 27986 27944 27934 27967 27898 27882 27524 27216 27099 27163 27355 27503 27596 27839 27742 27480 27302 27297 27310 27399 27463 27454 27470 27389 27227 27169 27272 27452 27644 27754 27897 27970 27917 27821 27755 27825 27907 28007 28071 28064 28136 27973 27893 27920 28070 28222 28267 28459 28362 28262 28180 28084 27980 27948 28001 28055 28063 28106 28036 27921 27861 27936 28048 28155 28180 28313 28252 28242 28250 28183 28157 28171 28223 28283 28305 28359 28274 28135 28147 28175 28320 28482 28624 28709 28846 29071 29300 29482 29648 29868 30094 30300 30497 30651 30844 30986 31050 31130 31226 31327 31220 31058 30892 30732 30569 30424 30319 30223 30122 30010 29879 29648 29479 29415 29413 29379 29417 29385 29210 29209 29169 29059 28972 28964 29006 28975 29071 28881 28727 28475 28346 28342 28469 28527 28527 28651 28479 28414 28323 28185 28130 28146 28209 28233 28277 28284 28028 27742 27475 27366 27405 27450 27522 27542 27341 27147 26969 26873 26898 26988 27072 27115 27078 26974 26663 26449 26416 26599 26870 27057 27110 27107 26765 26515 26437 26481 26619 26834 26955 27029 26866 26540 26236 26112 26167 26321 26518 26707 26780 26849 26529 26357 26311 26385 26471 26616 26734 26791 26741 26533 26339 26328 26380 26603 26893 27149 27202 27299 26995 26888 26902 26974 27095 27215 27360 27365 27325 27184 27056 27032 27045 27318 27615 27846 27821 27747 27525 27454 27487 27531 27619 27711 27820 27809 27825 27628 27527 27500 27619 27843 28123 28112 27978 27930 27861 27896 27968 28068 28181 28271 28361 28308 28208 28119 28108 28119 28167 28365 28563 28664 28488 28413 28284 28310 28375 28428 28507 28586 28608 28503 28435 28371 28352 28380 28434 28566 28763 28851 28738 28718 28721 28693 28720 28789 28852 28893 28845 28695 28571 28686 28728 28808 28868 28950 29043 29006 28790 28659 28627 28602 28604 28638 28709 28773 28668 28449 28263 28145 28118 28168 28291 28419 28548 28443 28184 27993 27891 27867 27906 27998 28090 28179 28084 27862 27744 27636 27606 27641 27817 28010 28116 27926 27728 27544 27532 27561 27657 27783 27915 27999 27879 27714 27683 27600 27569 27655 27824 28036 28118 27946 27788 27633 27614 27660 27745 27848 27941 27976 27884 27804 27912 28207 28690 29068 29373 29600 29773 29925 30026 30069 29951 29881 29822 29754 29737 29565 29311 29070 28826 28720 28672 28710 28818 28895 28779 28564 28371 28304 28266 28374 28478 28602 28638 28449 28156 27969 27904 27943 28075 28261 28375 28347 28215 27965 27831 27824 27881 27986 28102 28234 28222 28012 27839 27728 27704 27774 27927 28096 28235 28194 28026 27929 27866 27871 27920 28030 28161 28276 28217 27943 27782 27710 27724 27782 27903 28014 28060 27947 27808 27570 27521 27591 27691 27805 27937 28022 27919 27722 27594 27570 27611 27711 27890 28097 28153 28079 27924 27803 27792 27887 27953 28098 28229 28204 28044 27972 27835 27808 27861 28020 28242 28415 28338 28164 28089 28001 27999 28081 28167 28266 28341 28291 28175 28081 28073 28044 28042 28071 28189 28291 28314 28183 28109 28012 28037 28102 28158 28281 28335 28293 28230 28174 28154 28185 28181 28182 28213 28197 28208 28201 28191 28229 28188 28205 28289 28361 28301 28252 28285 28303 28392 28458 28442 28453 28416 28341 28396 28494 28528 28574 28531 28502 28526 28554 28513 28503 28536 28553 28569 28606 28562 28531 28444 28427 28564 28739 28773 28846 28829 28844 28826 28771 28719 28743 28808 28869 28855 28858 28851 28758 28666 28689 28819 29018 29055 29180 29108 29066 29050 29022 28997 29012 29012 29015 28949 28874 28786 28674 28579 28569 28654 28709 28850 28777 28680 28613 28522 28518 28521 28610 28676 28732 28713 28713 28516 28362 28292 28395 28599 28800 28799 29090 28912 28667 28522 28442 28501 28566 28647 28686 28584 28383 28104 27956 27936 28022 28221 28317 28380 28381 28132 27947 27846 27894 27977 28066 28144 28151 28185 27918 27754 27722 27791 27997 28146 28326 28498 28557 28532 28489 28534 28654 28796 28937 29102 29258 29366 29608 29827 30050 30231 30368 30464 30541 30510 30322 30211 30094 30026 29974 29917 29781 29636 29393 29162 28967 28841 28784 28765 28743 28743 28744 28715 28676 28673 28680 28733 28793 28845 28899 28866 28748 28645 28561 28517 28518 28520 28511 28481 28397 28216 28109 28128 28153 28256 28348 28465 28430 28164 27854 27650 27626 27678 27815 27958 28021 27933 27666 27461 27395 27431 27526 27649 27761 27830 27696 27389 27256 27235 27271 27334 27463 27627 27662 27488 27258 27188 27146 27196 27276 27393 27475 27335 27061 26851 26747 26788 26921 27141 27400 27491 27267 27147 27154 27118 27168 27250 27361 27470 27417 27186 26975 26911 26947 27058 27200 27410 27603 27602 27446 27353 27519 27544 27603 27641 27706 27676 27501 27301 27267 27333 27553 27893 28120 28367 28533 28564 28590 28632 28745 28876 29046 29232 29387 29381 29372 29403 29574 29722 29877 30039 30152 30210 30223 30128 29932 29752 29614 29518 29469 29375 29143 28908 28716 28535 28470 28472 28576 28780 28852 28603 28570 28497 28439 28417 28478 28537 28577 28451 28302 28062 27881 27804 27823 27899 28014 28020 27911 27760 27704 27700 27726 27820 27952 28094 28024 27891 27668 27571 27550 27621 27779 28022 28102 27944 27745 27576 27471 27470 27543 27661 27777 27711 27542 27396 27231 27229 27267 27370 27628 27836 27840 27629 27457 27344 27360 27408 27496 27614 27569 27417 27293 27169 27139 27158 27226 27363 27498 27460 27370 27303 27328 27386 27465 27517 27635 27635 27504 27407 27316 27328 27355 27426 27512 27615 27617 27563 27458 27473 27528 27547 27599 27688 27752 27656 27533 27436 27408 27448 27557 27688 27837 27844 27715 27593 27586 27658 27657 27684 27751 27768 27697 27619 27587 27518 27524 27537 27551 27644 27672 27688 27775 27943 28086 28148 28292 28430 28573 28687 28757 28850 28950 29106 29268 29452 29669 29887 30072 30113 29992 29758 29618 29441 29337 29261 29099 28955 28861 28770 28669 28573 28522 28550 28491 28437 28461 28479 28436 28541 28395 28385 28380 28376 28303 28272 28285 28247 28139 28096 28077 27981 27884 27919 28015 28023 28089 28034 27976 27983 27915 27759 27713 27760 27824 27835 27880 27840 27725 27557 27587 27699 27803 27767 27821 27671 27670 27680 27609 27549 27547 27602 27656 27597 27453 27341 27164 27064 27160 27299 27371 27484 27367 27343 27332 27250 27187 27220 27282 27305 27212 27195 27167 27046 26923 26999 27168 27288 27284 27274 27238 27234 27201 27155 27139 27186 27322 27408 27393 27473 27569 27857 28221 28563 28824 28922 29074 29218 29348 29359 29318 29408 29573 29757 29907 30038 30082 30024 29837 29746 29764 29853 29848 29719 29734 29658 29365 29143 28968 28861 28787 28759 28749 28692 28605 28376 28155 28027 28073 28220 28447 28562 28551 28444 28179 28003 27945 27974 28032 28124 28195 28117 27865 27613 27509 27589 27776 28022 28191 28202 28312 28122 27844 27751 27786 27930 28068 28208 28212 27950 27728 27433 27345 27383 27485 27680 27835 27778 27628 27463 27276 27225 27266 27312 27389 27468 27406 27126 27111 27044 27061 27168 27297 27423 27526 27701 28153 28378 28147 28041 28036 28099 28206 28208 27896 27718 27568 27537 27566 27656 27828 27960 27796 27565 27328 27182 27170 27255 27374 27544 27546 27379 27177 27105 27068 27072 27131 27262 27369 27361 27154 27040 26937 26939 27002 27089 27210 27310 27235 27126 27070 26985 26947 26961 26992 27105 27159 27076 26970 26998 27108 27134 27203 27305 27392 27312 27212 27163 27115 27141 27156 27207 27302 27328 27337 27378 27364 27396 27402 27399 27421 27508 27500 27432 27411 27438 27437 27398 27360 27378 27332 27242 27228 27331 27412 27457 27490 27514 27548 27505 27407 27369 27460 27590 27647 27645 27628 27487 27323 27316 27436 27648 27818 27888 27975 27993 27857 27737 27712 27740 27826 27899 27929 27941 27849 27695 27594 27654 27843 28045 28132 28178 28118 27998 27836 27784 27816 27910 28025 28080 28077 28054 27791 27656 27683 27863 28066 28154 28212 28189 28082 27922 27832 27839 27915 28037 28104 28121 28052 27837 27612 27591 27700 27905 28021 28048 28100 28015 27850 27745 27693 27766 27847 27887 27850 27815 27637 27442 27441 27549 27708 27814 27903 27823 27705 27524 27358 27303 27376 27476 27608 27662 27639 27505 27255 27190 27242 27399 27538 27696 27745 27656 27599 27481 27428 27462 27552 27633 27694 27669 27535 27277 27161 27142 27211 27349 27438 27466 27441 27337 27127 27006 26985 27099 27235 27344 27414 27455 27258 27016 26964 26986 27060 27138 27240 27377 27388 27318 27289 27337 27404 27452 27524 27676 27818 27824 27709 27602 27568 27589 27646 27692 27783 27846 27817 27711 27609 27571 27595 27604 27637 27609 27554 27405 27273 27298 27397 27455 27544 27615 27782 27844 27792 27740 27765 27823 27932 27995 27991 27961 27767 27650 27652 27828 27988 27891 27797 27742 27706 27626 27577 27572 27670 27779 27861 27858 27861 27664 27509 27509 27658 27846 27928 27900 27846 27795 27688 27604 27569 27655 27752 27843 27843 27802 27662 27467 27414 27485 27642 27729 27776 27791 27795 27665 27579 27521 27559 27669 27744 27827 27732 27637 27468 27369 27446 27634 27776 27834 27832 27808 27631 27478 27415 27434 27535 27641 27713 27737 27661 27394 27238 27309 27526 27768 27844 27943 27991 27840 27622 27492 27466 27512 27639 27757 27840 27826 27635 27391 27356 27449 27638 27840 27968 27975 27858 27642 27458 27385 27430 27506 27613 27710 27794 27662 27379 27130 27036 27085 27198 27376 27543 27582 27386 27222 27095 27094 27168 27278 27386 27546 27520 27325 27174 27097 27100 27166 27258 27424 27593 27445 27255 27128 27097 27120 27224 27383 27563 27570 27450 27422 27445 27533 27757 28235 28679 29087 29247 29273 29402 29576 29784 29908 30095 30241 30388 30474 30530 30601 30695 30826 30923 31038 31119 31105 31049 30982 30843 30713 30487 30294 30168 29950 29649 29369 29125 28964 28832 28676 28565 28463 28323 28282 28170 28191 28108 27968 27909 27907 27854 27685 27565 27507 27514 27510 27497 27496 27449 27297 27349 27327 27468 27402 27326 27346 27424 27486 27364 27194 27075 26933 26837 26773 26794 26821 26688 26673 26693 26864 26736 26521 26500 26606 26681 26677 26664 26681 26646 26730 26615 26565 26537 26478 26513 26608 26651 26825 26751 26675 26694 26723 26683 26667 26709 26768 26767 26850 26650 26531 26519 26732 27010 27221 27346 27475 27344 27252 27131 27005 26961 26989 27075 27148 27214 27251 27115 26940 26904 27017 27173 27253 27376 27422 27491 27514 27478 27417 27459 27577 27625 27667 27691 27695 27571 27536 27698 27907 28018 28062 28201 28044 27871 27749 27691 27721 27774 27845 27877 27863 27833 27585 27456 27467 27740 27986 28139 28317 28273 28067 27853 27716 27691 27750 27836 27880 27923 27977 27864 27731 27673 27712 27868 28039 28055 28100 28002 27780 27635 27595 27663 27762 27842 27902 27844 27590 27306 27249 27399 27728 28033 28105 28321 28582 28282 28007 27842 27808 27859 27926 27949 27985 27715 27386 27232 27229 27428 27726 27879 27872 27852 27630 27397 27284 27292 27393 27463 27532 27531 27262 26943 26793 26857 27107 27433 27614 27581 27493 27279 27124 27108 27155 27245 27350 27466 27502 27376 27163 27037 27076 27234 27470 27677 27707 27636 27390 27206 27108 27148 27225 27355 27504 27542 27381 27170 27045 27031 27121 27333 27593 27754 27741 27565 27265 27123 27128 27212 27336 27472 27609 27634 27373 27263 27214 27204 27242 27346 27489 27553 27336 27029 26986 27038 27171 27323 27487 27658 27711 27459 27247 27178 27229 27357 27609 27846 28014 27888 27718 27371 27322 27385 27509 27614 27736 27832 27720 27520 27592 27701 27778 27821 28009 28264 28333 28051 27795 27660 27641 27694 27759 27871 27962 27874 27677 27527 27521 27571 27656 27813 28053 28184 28116 27862 27703 27660 27706 27747 27828 27833 27767 27697 27611 27414 27318 27348 27431 27549 27579 27546 27472 27462 27342 27397 27490 27570 27698 27659 27610 27607 27618 27568 27542 27602 27675 27688 27821 27919 28004 27990 27903 27823 27827 27853 27818 27791 27846 27889 27913 27941 27961 27927 27800 27688 27807 27942 28050 28044 28194 28224 28312 28286 28282 28322 28409 28477 28480 28528 28537 28457 28338 28356 28475 28647 28856 28962 28838 28663 28608 28566 28579 28606 28616 28640 28637 28617 28441 28211 28123 28228 28369 28502 28528 28595 28444 28200 28036 27973 28016 28079 28164 28269 28278 28212 27978 27830 27823 27933 28189 28393 28449 28495 28123 27843 27711 27688 27762 27872 27945 28028 27866 27475 27149 27085 27221 27483 27798 27968 27940 27588 27243 27089 27073 27126 27273 27394 27484 27432 27081 26833 26751 26824 27056 27368 27578 27668 27640 27443 27272 27114 27073 27141 27274 27381 27361 27006 26712 26573 26631 26824 27223 27563 27672 27405 27054 26851 26776 26809 26928 27074 27214 27271 27024 26789 26697 26748 26906 27138 27391 27573 27533 27238 27051 26955 26961 27048 27157 27289 27341 27154 26849 26709 26711 26841 27029 27171 27234 27176 26963 26823 26830 26901 27023 27166 27272 27300 27179 27042 27021 27122 27259 27385 27506 27613 27617 27502 27414 27425 27502 27644 27739 27765 27740 27545 27334 27215 27164 27242 27384 27565 27730 27765 27680 27532 27362 27406 27466 27556 27639 27750 27685 27450 27383 27299 27328 27372 27466 27632 27783 27656 27484 27381 27362 27424 27518 27648 27791 27786 27646 27414 27311 27301 27370 27430 27512 27654 27601 27463 27393 27304 27329 27385 27488 27577 27569 27429 27286 27167 27203 27279 27341 27482 27595 27550 27355 27204 27076 27118 27179 27292 27406 27504 27439 27309 27194 27144 27185 27241 27332 27486 27513 27392 27267 27243 27283 27306 27362 27441 27468 27364 27243 27164 27171 27167 27191 27250 27388 27464 27385 27325 27417 27447 27490 27592 27712 27836 27831 27735 27696 27709 27795 27846 27953 28098 28263 28222 28120 27986 27914 27891 27846 27838 27889 27823 27678 27615 27613 27766 27939 28268 28546 28690 28789 29001 29271 29544 29706 29821 29897 29947 30002 29893 29754 29748 29803 29921 30019 30188 30373 30550 30609 30600 30582 30414 30290 30035 29819 29646 29304 28973 28764 28624 28460 28331 28219 28198 28154 28005 27952 27865 27900 27798 27751 27732 27776 27704 27602 27549 27485 27442 27397 27313 27291 27166 26987 26947 26946 26946 27056 27079 27050 27038 26993 26827 26713 26694 26731 26668 26647 26610 26489 26264 26169 26297 26421 26479 26525 26511 26536 26613 26557 26482 26510 26595 26679 26710 26778 26725 26519 26415 26538 26734 26805 26838 26737 26691 26691 26654 26539 26503 26570 26669 26701 26711 26693 26595 26514 26598 26766 26936 27017 27106 27049 27036 27008 26946 26900 26965 27042 27066 27052 27022 27028 26981 27006 27104 27156 27242 27279 27339 27373 27382 27300 27218 27191 27210 27222 27172 27168 27189 27100 27077 27145 27225 27273 27317 27378 27434 27513 27516 27486 27529 27584 27654 27676 27705 27750 27718 27620 27704 27916 28019 28013 27959 27970 27981 27927 27839 27803 27840 27871 27925 27969 27977 27889 27780 27737 27888 28087 28168 28144 28094 28121 28023 27925 27876 27916 27994 28079 28076 28066 28019 27858 27769 27823 27995 28090 28154 28208 28122 28030 27950 27912 27918 28000 28080 28106 28063 27951 27686 27525 27549 27734 27981 28130 28167 28278 28278 28118 28019 28003 28025 28098 28159 28160 28097 27932 27726 27674 27844 28095 28272 28278 28304 28218 28035 27873 27806 27832 27931 28008 28074 28046 27907 27886 28041 28265 28489 28633 28789 29007 29245 29400 29512 29554 29666 29835 29923 29997 30150 30333 30424 30494 30581 30672 30737 30753 30697 30642 30309 29925 29595 29364 29265 29217 29171 29107 29020 28690 28398 28208 28150 28265 28466 28428 28563 28328 28063 27895 27831 27806 27879 27946 27986 27895 27560 27229 27108 27155 27361 27654 27796 27781 27632 27270 27025 26959 26997 27103 27235 27343 27432 27217 26946 26718 26724 26898 27198 27466 27567 27498 27257 26997 26849 26838 26902 27021 27204 27335 27283 26900 26593 26485 26586 26800 27106 27343 27440 27331 27103 26886 26874 26995 27128 27264 27394 27407 27157 26894 26898 27143 27524 27887 28268 28640 28761 28742 28641 28599 28590 28593 28603 28628 28602 28574 28433 28243 28097 28086 28247 28440 28571 28392 28085 27844 27744 27713 27771 27830 27941 27978 27843 27663 27518 27421 27382 27393 27490 27607 27539 27405 27421 27548 27690 27847 28000 28126 28183 28065 27953 27952 28001 28026 28062 28086 28101 28079 27933 27827 27848 27985 28181 28263 28262 28295 28270 28178 28129 28162 28159 28188 28135 28142 28048 27962 28034 28120 28122 28156 28091 28111 28158 28121 28030 28000 28033 28016 28013 27975 27996 28055 28124 28171 28123 28246 28130 27995 28039 28130 28109 28000 28024 28083 28096 28013 27955 27959 27911 27859 27888 28004 28174 28289 28360 28196 28180 28174 28093 28041 28064 28146 28191 28131 28107 27899 27683 27662 27813 28064 28190 28195 28432 28215 28028 27885 27874 27876 27922 28014 28127 28158 28120 27812 27649 27606 27719 27883 27972 28162 28140 27946 27770 27718 27740 27825 27927 28012 28026 27971 27731 27561 27510 27680 27959 28183 28209 28314 28185 27953 27816 27766 27825 27920 27965 27930 27849 27503 27299 27345 27561 27791 27921 27926 27843 27698 27598 27642 27729 27904 28043 28066 27970 27877 27579 27357 27334 27514 27772 27919 28007 27894 27727 27559 27430 27411 27510 27629 27706 27680 27627 27422 27233 27240 27464 27777 27967 27999 27952 27908 27787 27659 27591 27629 27741 27833 27851 27869 27793 27659 27603 27710 27951 28214 28256 28319 28315 28119 27927 27794 27767 27870 27987 28069 28072 28068 27866 27754 27833 28004 28236 28343 28322 28339 28296 28148 28064 28056 28164 28284 28352 28404 28441 28351 28358 28618 28970 29468 29825 30159 30408 30462 30127 29807 29532 29360 29259 29208 29161 29009 28770 28377 28205 28251 28452 28685 28867 28795 28605 28177 27872 27745 27781 27873 27991 28127 28182 27976 27575 27295 27219 27322 27578 27928 28073 28116 28142 27760 27517 27407 27451 27533 27652 27715 27605 27226 26852 26674 26670 26775 26968 27119 27244 27478 27108 26844 26786 26836 26984 27145 27309 27381 27389 27022 26782 26711 26794 27098 27494 27592 27564 27358 27087 26955 26936 27014 27144 27250 27369 27348 27071 26792 26756 26902 27181 27468 27626 27665 27633 27419 27251 27215 27225 27319 27450 27554 27651 27569 27412 27311 27511 27926 28314 28513 28593 28821 28992 29067 29149 29162 29223 29320 29390 29436 29317 29011 28653 28440 28578 28813 29028 29087 29009 28762 28208 27847 27740 27746 27804 27908 27996 28027 27769 27423 27285 27294 27432 27672 27860 27911 27912 27807 27581 27471 27546 27664 27792 27923 28074 27965 27689 27373 27319 27363 27507 27723 27906 27955 27756 27383 27219 27227 27297 27444 27568 27679 27645 27229 26859 26706 26747 26898 27173 27513 27716 27568 27240 27016 26928 26978 27094 27214 27343 27425 27114 26721 26544 26576 26689 26832 27009 27176 27134 26853 26639 26599 26678 26836 27007 27177 27305 27147 26772 26535 26476 26581 26771 27045 27389 27506 27173 26925 26869 26879 26962 27075 27220 27348 27322 27070 26843 26805 26881 26955 27099 27292 27571 27562 27411 27274 27222 27240 27317 27401 27532 27577 27399 27203 27132 27145 27119 27178 27354 27585 27545 27297 27207 27087 27107 27181 27287 27413 27432 27281 27150 27115 27150 27207 27253 27314 27440 27480 27452 27346 27424 27519 27556 27617 27711 27793 27714 27640 27597 27516 27545 27554 27656 27762 27755 27762 27737 27635 27612 27645 27714 27846 27892 27798 27710 27692 27632 27580 27601 27655 27731 27777 27830 27858 27871 27896 27844 27868 27954 28005 27964 27861 27845 27797 27773 27743 27776 27842 27834 27850 27937 27961 28027 28076 28056 28105 28146 28050 27963 27952 27969 27931 27977 28019 28008 27883 27839 27882 27935 28030 28196 28318 28324 28298 28225 28126 28097 28144 28221 28266 28347 28311 28105 27944 27975 28076 28141 28255 28235 28188 28077 27903 27767 27747 27811 27870 27864 27796 27649 27367 27221 27298 27509 27673 27752 27771 27711 27636 27487 27380 27428 27498 27600 27668 27628 27572 27384 27228 27173 27302 27477 27596 27697 27600 27505 27326 27247 27251 27319 27425 27483 27488 27413 27133 26956 26986 27140 27357 27488 27527 27517 27410 27160 27029 27023 27155 27297 27412 27424 27348 27085 26898 26888 27049 27298 27508 27539 27590 27559 27392 27325 27313 27381 27464 27555 27598 27533 27299 27055 27018 27133 27388 27633 27725 27764 27689 27412 27259 27261 27339 27477 27618 27696 27688 27457 27252 27258 27425 27714 27999 28108 28195 28180 27861 27578 27439 27434 27563 27712 27811 27803 27518 27179 26970 26950 27061 27213 27386 27494 27456 27143 26932 26813 26822 26925 27043 27175 27269 27136 26793 26626 26551 26679 26806 26958 27161 27302 27093 26864 26738 26731 26799 26901 27032 27183 27128 26930 26706 26630 26693 26824 26996 27206 27351 27173 27032 26907 26883 26931 27017 27114 27239 27186 27039 26858 26917 26987 27150 27273 27540 27824 27832 27549 27434 27385 27331 27357 27416 27511 27505 27376 27261 27179 27171 27212 27317 27492 27682 27693 27545 27439 27501 27499 27527 27655 27790 27862 27868 28024 28169 28312 28425 28687 28986 29378 29731 29981 30138 30280 30345 30329 30293 30213 30058 29788 29519 29264 29048 28860 28745 28679 28490 28255 28062 27996 28045 28143 28238 28317 28384 28313 28230 28240 28310 28404 28459 28489 28571 28468 28290 28173 28125 28126 28168 28203 28232 28235 28173 28056 27978 27990 28026 28044 28068 28037 27839 27599 27467 27487 27588 27705 27838 27936 27883 27603 27415 27350 27373 27463 27531 27566 27478 27186 26842 26700 26761 26979 27241 27434 27754 27705 27406 27233 27194 27316 27506 27720 27891 27991 27937 27825 27870 28082 28379 28682 28855 28971 29114 29099 29048 29075 29212 29378 29581 29730 29851 29996 30187 30322 30435 30502 30545 30555 30566 30502 30148 29659 29150 28826 28629 28555 28534 28523 28363 27959 27580 27382 27345 27419 27541 27643 27640 27529 27282 27032 26916 26935 27035 27173 27309 27250 26902 26604 26484 26554 26700 26857 27110 27340 27284 27063 26776 26676 26668 26731 26842 26976 26976 26679 26395 26238 26245 26344 26510 26706 26923 26909 26797 26563 26423 26390 26415 26518 26657 26722 26489 26249 26144 26074 26120 26172 26316 26484 26381 26196 26127 26069 26100 26188 26314 26423 26536 26448 26304 26128 26057 26100 26205 26348 26561 26649 26583 26489 26457 26372 26395 26464 26566 26651 26592 26501 26469 26465 26497 26549 26670 26913 27139 27185 27074 27006 26940 26928 26950 27013 27099 27060 26964 26948 26909 26910 26903 26958 27111 27233 27303 27308 27281 27314 27329 27311 27343 27434 27410 27355 27328 27308 27256 27209 27285 27557 27802 28038 28116 28108 28083 28060 28106 28217 28381 28527 28642 28848 29069 29283 29524 29709 29887 29996 30103 30171 30172 30037 29860 29545 29301 29138 29018 28833 28740 28683 28661 28584 28615 28551 28428 28238 28131 28184 28136 28207 28069 28013 28015 28021 27950 27849 27844 27835 27803 27724 27662 27615 27430 27380 27477 27590 27652 27795 27646 27579 27592 27526 27453 27443 27468 27525 27521 27458 27356 27103 26966 27008 27171 27267 27287 27376 27278 27147 26942 26820 26813 26889 27004 27080 27062 27036 26756 26563 26604 26815 27086 27231 27192 27132 27041 26852 26739 26718 26786 26898 26974 26971 26886 26692 26451 26352 26415 26586 26765 26883 26994 26753 26523 26367 26340 26431 26573 26710 26780 26888 26670 26469 26319 26421 26654 26892 27001 27135 27022 26788 26629 26630 26714 26868 27034 27142 27185 27218 27022 26909 26925 27047 27251 27376 27449 27518 27197 26985 26918 27008 27131 27271 27383 27487 27328 27032 26830 26820 26940 27150 27367 27562 27714 27825 27615 27470 27435 27469 27543 27633 27742 27737 27470 27216 27061 27097 27206 27402 27657 27883 27782 27633 27387 27280 27306 27433 27562 27685 27707 27474 27266 27148 27116 27185 27294 27410 27580 27467 27511 27439 27366 27348 27408 27508 27630 27698 27458 27235 27065 27036 27060 27117 27183 27359 27408 27307 27146 26908 26877 26935 27061 27180 27294 27164 26981 26853 26824 26840 26920 27020 27136 27058 26881 26668 26695 26747 26828 26956 27093 27210 27113 26992 26941 26903 26872 26874 26848 26826 26687 26532 26496 26596 26771 26972 27147 27307 27409 27375 27369 27444 27559 27678 27774 27823 27868 27763 27560 27463 27438 27458 27503 27541 27587 27581 27429 27316 27280 27321 27352 27412 27489 27619 27662 27525 27471 27525 27501 27491 27577 27651 27748 27707 27602 27529 27412 27385 27393 27462 27621 27718 27735 27547 27561 27428 27440 27500 27582 27668 27607 27465 27412 27353 27341 27339 27432 27579 27697 27700 27591 27558 27422 27399 27490 27586 27680 27633 27545 27514 27451 27281 27250 27276 27355 27340 27346 27376 27327 27306 27182 27202 27286 27372 27352 27335 27325 27348 27250 27233 27255 27324 27390 27435 27529 27571 27555 27494 27467 27527 27611 27607 27582 27603 27647 27661 27599 27602 27602 27520 27441 27558 27731 27840 27895 27904 27903 27837 27741 27628 27618 27688 27762 27806 27763 27677 27492 27393 27471 27689 28000 28240 28428 28576 28555 28346 28196 28108 28120 28180 28216 28196 28102 27942 27754 27691 27802 28008 28144 28099 28143 27983 27735 27568 27523 27551 27635 27758 27835 27808 27516 27189 27081 27162 27402 27649 27790 27878 27868 27569 27337 27229 27267 27385 27531 27640 27728 27490 27163 26946 26918 27001 27202 27429 27511 27510 27243 26993 26865 26866 26957 27094 27210 27290 27184 26807 26501 26390 26518 26686 26899 27075 27046 26953 26721 26555 26539 26626 26783 26941 27091 26977 26695 26518 26482 26582 26770 27064 27472 27647 27701 27830 27990 28178 28359 28548 28736 28931 28954 28838 28871 29013 29247 29559 29829 30025 30176 30197 30140 30086 30047 29992 29923 29870 29716 29413 28949 28564 28320 28208 28102 28036 27987 27859 27643 27489 27422 27444 27485 27563 27646 27702 27583 27398 27285 27247 27236 27278 27329 27379 27275 26990 26745 26695 26720 26763 26882 26977 27023 26905 26828 26773 26763 26724 26697 26743 26768 26652 26602 26561 26542 26658 26739 26778 26855 26957 26945 26978 27129 27289 27393 27452 27640 27908 28196 28568 28895 29187 29475 29677 29833 29907 29937 29801 29510 29280 29047 28771 28560 28341 28157 27858 27626 27632 27653 27615 27684 27591 27471 27284 27106 27005 27068 27172 27261 27379 27397 27306 27096 26939 26957 27103 27260 27321 27419 27364 27122 26942 26877 26942 27054 27159 27217 27274 27063 26718 26545 26544 26676 26875 27058 27052 27017 26677 26436 26389 26473 26624 26771 26887 26934 26671 26292 26040 26055 26147 26325 26502 26608 26625 26433 26197 26099 26163 26260 26382 26560 26624 26402 26089 25914 25916 25971 26074 26191 26344 26241 26016 25939 25925 26004 26142 26284 26465 26552 26383 26208 26044 25985 26016 26115 26265 26489 26540 26520 26401 26397 26392 26393 26454 26563 26598 26490 26408 26386 26301 26247 26199 26272 26341 26327 26368 26383 26384 26433 26436 26486 26579 26559 26436 26425 26507 26582 26582 26551 26572 26532 26437 26496 26669 26800 26811 26923 26820 26780 26735 26654 26633 26752 26876 26967 26981 26971 26747 26631 26633 26794 26982 27094 27085 27137 27057 26871 26807 26843 26958 27120 27241 27328 27293 27069 26841 26784 26861 27013 27187 27277 27289 27155 26921 26788 26789 26843 27006 27151 27263 27170 26807 26479 26402 26489 26681 26876 27057 27058 26836 26569 26422 26442 26523 26649 26836 26997 26978 26635 26385 26329 26390 26561 26760 27005 27114 26842 26464 26275 26259 26364 26481 26616 26772 26656 26285 26097 25985 26047 26167 26330 26509 26554 26245 26034 25980 26018 26052 26115 26255 26364 26317 26156 26013 25989 26014 26025 26110 26133 25974 25740 25607 25656 25856 26080 26264 26462 26631 26628 26607 26704 26866 27067 27234 27385 27461 27347 27171 27069 27033 27021 27046 27067 27108 27123 27026 26939 26966 27010 27095 27176 27220 27218 27055 26976 27022 27138 27313 27334 27466 27645 27560 27392 27322 27334 27431 27503 27553 27481 27291 27040 26942 27002 27174 27393 27484 27503 27576 27393 27209 27170 27228 27337 27439 27538 27596 27521 27331 27140 27097 27238 27495 27770 27813 27811 27555 27285 27155 27151 27252 27356 27484 27577 27394 27043 26769 26718 26804 26958 27166 27326 27293 26996 26797 26654 26686 26795 26939 27091 27193 27013 26694 26463 26380 26503 26669 26963 27262 27351 27017 26774 26636 26617 26684 26816 26975 27120 27018 26733 26491 26457 26502 26583 26740 26951 26963 26656 26582 26527 26501 26535 26616 26734 26784 26627 26488 26409 26412 26434 26477 26604 26814 26866 26794 26683 26736 26689 26700 26729 26833 26897 26829 26744 26741 26667 26628 26642 26713 26766 26712 26750 26791 26832 26799 26761 26777 26857 26819 26765 26789 26875 26897 26833 26812 26838 26806 26789 26864 26976 27056 27162 27100 27073 27146 27160 27122 27143 27216 27279 27309 27257 27170 27033 26970 26971 27124 27282 27382 27437 27387 27323 27189 27148 27181 27316 27445 27569 27491 27373 27167 27063 27077 27150 27331 27468 27527 27668 27677 27526 27431 27430 27511 27590 27714 27759 27702 27664 27473 27370 27438 27605 27753 27768 27840 27708 27418 27281 27269 27358 27485 27629 27766 27781 27440 27121 27034 27120 27263 27461 27570 27619 27416 27048 26825 26782 26839 26960 27116 27282 27370 27090 26740 26554 26581 26679 26813 26954 27050 26891 26644 26502 26481 26558 26703 26892 27068 27096 26829 26505 26335 26341 26413 26562 26771 26947 26821 26582 26392 26289 26322 26429 26567 26756 26863 26688 26467 26347 26327 26400 26503 26673 26880 26884 26678 26637 26552 26498 26545 26642 26770 26863 26705 26578 26499 26524 26506 26572 26692 26770 26815 26834 26896 26969 27116 27198 27364 27406 27336 27191 27117 27133 27127 27159 27142 27044 26911 26728 26750 26876 27049 27279 27247 27082 27066 27014 26927 26943 27019 27089 27026 27063 27047 26954 26863 26874 27024 27117 27111 27088 27058 27126 27097 27044 27072 27184 27266 27265 27179 27141 27069 27019 27023 27164 27383 27518 27728 27677 27643 27499 27361 27339 27362 27424 27480 27455 27452 27204 26984 26913 26998 27206 27364 27449 27510 27282 27050 26903 26861 26966 27111 27241 27241 27260 26971 26735 26685 26790 27002 27203 27286 27410 27162 26882 26749 26762 26864 26996 27103 27147 27084 26775 26493 26466 26639 26902 27101 27197 27303 27078 26739 26539 26477 26582 26704 26835 26909 26899 26654 26328 26268 26331 26541 26819 27032 27063 26980 26558 26334 26297 26367 26483 26621 26758 26848 26635 26258 26107 26138 26315 26587 26816 26915 26863 26522 26308 26260 26355 26491 26691 26834 26936 26664 26363 26263 26326 26485 26708 26890 26932 26917 26688 26515 26471 26552 26673 26844 26988 27078 26886 26638 26568 26679 26908 27188 27372 27433 27292 27030 26795 26752 26806 26926 27065 27174 27197 26952 26667 26634 26777 27094 27403 27607 27650 27469 27206 27084 27111 27220 27351 27482 27594 27578 27371 27203 27115 27183 27346 27656 28014 28263 28098 27812 27555 27427 27431 27497 27606 27730 27719 27455 27185 27017 27062 27165 27387 27637 27848 27717 27403 27238 27102 27060 27166 27320 27484 27556 27378 27250 27206 27349 27530 27813 28098 28412 28610 28556 28446 28419 28426 28483 28514 28560 28478 28134 27831 27588 27478 27453 27435 27392 27305 27110 27000 27057 27199 27317 27453 27566 27705 27679 27537 27449 27424 27399 27390 27388 27454 27497 27355 27195 27115 27151 27210 27252 27334 27446 27476 27398 27351 27322 27249 27214 27233 27259 27187 27047 27030 27002 27048 27053 27076 27162 27266 27278 27177 27086 27049 26985 26916 26926 27003 26989 26932 26910 26931 27016 27162 27226 27330 27396 27378 27289 27226 27192 27108 26964 26933 26957 26901 26822 26886 26964 27003 27030 27076 27078 27145 27105 27024 27015 27063 27124 27054 27003 26995 26936 26901 26994 27105 27097 27211 27098 27105 27145 27129 27061 27075 27145 27215 27212 27183 27171 27059 27030 27183 27428 27549 27591 27658 27624 27630 27621 27600 27577 27640 27687 27712 27692 27691 27580 27631 27903 28278 28595 28774 28950 29144 29286 29303 29162 29035 28955 28872 28668 28445 28276 27953 27726 27651 27747 27838 27867 27819 27830 27538 27275 27144 27152 27251 27392 27456 27491 27334 27105 26880 26806 26886 27085 27295 27394 27535 27305 26938 26743 26724 26773 26899 27021 27117 27068 26777 26486 26370 26408 26595 26857 27032 27067 26952 26662 26390 26320 26413 26547 26738 26890 26946 26668 26334 26156 26144 26262 26449 26653 26715 26487 26222 26204 26196 26203 26282 26434 26585 26569 26231 25990 25911 25945 26096 26312 26551 26664 26459 26189 26092 26098 26160 26311 26461 26643 26669 26439 26198 26109 26106 26218 26393 26634 26889 26769 26499 26401 26405 26451 26538 26631 26749 26716 26460 26259 26165 26206 26316 26430 26576 26720 26648 26502 26546 26589 26632 26722 26865 27131 27302 27350 27352 27430 27563 27722 27972 28270 28525 28664 28726 28784 28746 28634 28434 28290 28198 28015 27796 27606 27462 27427 27388 27379 27426 27466 27401 27325 27301 27311 27284 27242 27244 27326 27302 27213 27183 27202 27106 26978 26907 26924 26850 26824 26845 26863 26903 26960 26985 27000 27026 26906 26803 26864 26946 26945 26858 26755 26725 26563 26379 26333 26397 26515 26604 26712 26800 26811 26701 26614 26650 26753 26894 26919 26874 26802 26648 26504 26533 26709 26890 26945 26961 26943 26845 26749 26729 26794 26975 27110 27121 27082 26941 26560 26350 26363 26514 26702 26840 26862 26955 26800 26532 26415 26448 26584 26792 26953 27044 27024 26744 26528 26568 26755 26956 27122 27204 27248 27192 26798 26567 26522 26610 26754 26908 27004 26980 26682 26364 26211 26203 26258 26329 26402 26509 26532 26534 26565 26713 26892 27036 27194 27344 27391 27279 27163 27169 27199 27212 27236 27306 27326 27147 26936 26763 26737 26820 26948 27064 27220 27337 27212 26997 26996 26926 26979 27094 27323 27513 27416 27089 26882 26840 26834 26889 26967 27095 27125 26956 26706 26536 26495 26570 26672 26848 27097 27127 26873 26675 26649 26640 26714 26835 26955 27053 26923 26737 26587 26593 26640 26718 26767 26844 26802 26683 26715 26681 26704 26859 27090 27328 27476 27437 27419 27463 27677 27916 28232 28535 28815 28900 28797 28693 28718 28624 28394 28161 28033 27886 27657 27507 27426 27380 27335 27266 27226 27230 27204 27240 27379 27429 27464 27395 27350 27341 27293 27186 27086 27103 27106 27032 26952 26965 26959 26894 27035 27244 27386 27372 27382 27359 27302 27267 27146 27088 27159 27227 27265 27194 27108 26990 26813 26803 26933 27163 27359 27439 27487 27367 27182 27013 26961 27034 27118 27208 27203 27108 26951 26727 26663 26696 26858 26960 27046 26926 26868 26841 26783 26798 26858 27020 27101 27100 26997 26924 26730 26645 26697 26867 27028 26904 26969 27124 27074 26967 26913 26894 26990 27071 27100 27018 27027 26798 26688 26692 26850 27083 27177 27145 27132 27040 26873 26834 26871 26992 27129 27207 27204 27129 26859 26709 26680 26780 26953 27115 27123 27163 27052 26904 26807 26833 26932 27074 27198 27322 27372 27251 26977 26802 26796 26949 27162 27329 27436 27406 27094 26845 26778 26803 26906 27052 27211 27285 27071 26739 26599 26609 26715 26888 27103 27222 27101 26734 26474 26397 26435 26566 26725 26901 27055 26968 26588 26339 26305 26389 26542 26733 26939 26980 26636 26425 26336 26374 26495 26625 26761 26914 26894 26661 26458 26388 26464 26542 26663 26824 26903 26682 26490 26475 26494 26532 26614 26713 26863 26904 26738 26550 26501 26429 26408 26450 26577 26591 26421 26378 26530 26763 26991 27206 27374 27494 27474 27332 27253 27306 27419 27521 27539 27556 27529 27356 27130 27011 26994 26992 27047 27104 27236 27288 27178 27083 27059 27088 27002 26989 27055 27087 27073 27074 27082 27247 27115 27101 27140 27243 27270 27190 27170 27167 27227 27139 27145 27193 27244 27279 27346 27441 27502 27632 27417 27372 27409 27394 27309 27268 27293 27363 27404 27364 27280 27218 27139 27179 27311 27454 27582 27604 27495 27455 27406 27261 27234 27273 27358 27403 27428 27312 27231 27152 27207 27320 27436 27517 27583 27451 27419 27417 27360 27324 27339 27388 27360 27258 27151 27115 27016 27027 27164 27327 27413 27527 27436 27387 27388 27264 27178 27172 27249 27329 27303 27242 27103 26967 27001 27195 27388 27429 27549 27601 27550 27495 27386 27269 27261 27331 27419 27392 27267 27183 27044 26901 26872 26988 27187 27343 27455 27330 27104 26983 26880 26848 26871 26989 27131 27266 27266 26997 26613 26483 26509 26691 26897 27029 27127 27364 26981 26551 26419 26445 26560 26679 26817 26938 27090 26864 26722 26663 26667 26737 26912 27183 27306 27290 27106 26850 26711 26725 26829 26977 27119 27269 27134 26848 26646 26580 26559 26628 26766 27027 27226 27140 26855 26777 26679 26673 26729 26829 26956 26982 26861 26770 26716 26690 26674 26739 26864 26931 26923 26941 26915 26907 26824 26820 26885 27006 27078 26979 26856 26821 26815 26671 26661 26713 26746 26624 26622 26762 26797 26954 26822 26823 26892 26976 26910 26914 27003 27076 27086 27038 27023 27024 26897 26849 26936 27119 27245 27420 27362 27269 27275 27232 27238 27294 27384 27441 27452 27453 27378 27245 27176 27254 27479 27742 27858 27966 27953 27764 27504 27354 27332 27429 27553 27668 27735 27761 27499 27247 27213 27271 27428 27646 27762 27954 27814 27570 27424 27387 27409 27527 27638 27711 27659 27521 27223 27063 27053 27146 27352 27569 27602 27698 27433 27184 27098 27119 27218 27346 27442 27445 27354 27036 26830 26784 26912 27140 27295 27340 27384 27190 26958 26875 26910 27024 27162 27293 27337 27265 26917 26653 26638 26762 26978 27163 27280 27289 27150 26850 26684 26714 26828 26956 27074 27139 27041 26660 26355 26232 26244 26350 26482 26611 26736 26785 26758 26768 26835 26921 27011 27094 27174 27276 27194 27136 27119 27107 27152 27177 27206 27246 27116 26887 26769 26791 26909 27003 27133 27260 27304 27016 26736 26614 26659 26843 27124 27497 27709 27807 27711 27497 27309 27285 27360 27454 27613 27758 27661 27568 27604 27837 28344 28804 29188 29425 29605 29696 29764 29813 29861 29941 30071 30284 30402 30484 30552 30574 30564 30560 30575 30597 30628 30468 29931 29477 29043 28696 28470 28334 28276 28230 27928 27534 27247 27141 27055 27052 27156 27314 27376 27135 26901 26862 26848 26837 26874 26947 27032 26828 26547 26399 26297 26238 26246 26362 26522 26490 26320 26135 26135 26175 26193 26236 26333 26404 26270 26125 26065 26042 25974 25949 26019 26139 26103 26121 26162 26209 26214 26207 26190 26262 26346 26261 26189 26141 26162 26070 25969 25972 26036 26026 26058 26183 26243 26335 26368 26359 26431 26515 26474 26407 26414 26482 26496 26468 26457 26512 26493 26497 26674 26776 26807 26875 26828 26827 26872 26812 26776 26801 26857 26921 26919 26901 26851 26728 26718 26868 27071 27169 27194 27236 27226 27212 27162 27117 27139 27223 27326 27339 27293 27273 27166 27101 27178 27401 27624 27672 27833 27792 27700 27553 27480 27487 27573 27633 27707 27659 27632 27415 27283 27290 27440 27649 27764 27864 27896 27768 27636 27554 27562 27661 27739 27837 27834 27788 27599 27424 27450 27597 27808 27907 27959 27998 27761 27517 27392 27355 27410 27512 27588 27633 27592 27227 26932 26890 27040 27312 27524 27575 27682 27573 27263 27030 26979 27050 27190 27282 27309 27213 27011 26758 26664 26769 26990 27226 27274 27405 27157 26836 26664 26632 26726 26845 26934 26978 26916 26647 26386 26336 26529 26847 27054 27125 27229 27101 26870 26741 26725 26789 26906 26977 27009 26944 26830 26629 26601 26763 27017 27179 27253 27363 27264 27063 26908 26854 26921 27006 27075 27143 27102 26916 26749 26681 26791 26915 27048 27138 27206 27181 27086 26997 27022 27076 27231 27281 27338 27285 27242 27101 26967 26957 27098 27180 27193 27163 27033 26941 26848 26897 27002 27131 27214 27278 27203 27038 26855 26796 26913 27086 27203 27300 27352 27333 27212 27122 27142 27274 27375 27487 27493 27474 27324 27184 27111 27189 27401 27564 27634 27646 27556 27437 27380 27401 27465 27542 27600 27546 27482 27307 27152 27147 27253 27418 27459 27496 27437 27412 27323 27266 27265 27366 27465 27515 27447 27403 27261 27089 27042 27157 27284 27354 27436 27377 27301 27230 27153 27135 27207 27308 27353 27305 27249 27075 26918 26863 27008 27184 27254 27304 27207 27087 26950 26869 26880 26994 27081 27173 27152 27065 26910 26766 26745 26907 27073 27126 27183 27190 27162 27087 27035 27046 27092 27150 27180 27154 27106 26947 26811 26788 26862 27035 27166 27325 27424 27341 27108 27014 27032 27130 27245 27372 27453 27492 27323 27106 27000 27010 27084 27078 27118 27194 27120 26960 26854 26810 26890 26997 27127 27197 27165 26942 26706 26561 26567 26604 26627 26682 26815 26832 26796 26803 26874 27008 27154 27280 27439 27501 27349 27201 27115 27109 27127 27204 27321 27436 27375 27180 27015 26932 26982 27107 27242 27365 27447 27234 27028 26938 26944 27020 27081 27117 27107 26950 26795 26732 26723 26684 26715 26752 26787 26741 26554 26334 26132 26179 26234 26256 26291 26248 26155 26083 25988 26131 26212 26242 26303 26401 26454 26378 26290 26210 26175 26163 26222 26312 26296 26122 26027 26078 26122 26225 26231 26181 26171 26068 26029 26115 26226 26264 26171 26151 26134 26020 25959 26081 26320 26442 26638 26683 26687 26689 26631 26585 26631 26790 26937 26995 27052 26968 26823 26701 26623 26629 26680 26738 26808 26960 26980 26769 26606 26595 26713 26877 26990 27012 27015 26770 26534 26440 26477 26526 26585 26726 26807 26911 26698 26524 26490 26546 26611 26762 26950 27047 26953 26655 26496 26439 26523 26662 26815 26923 26993 26737 26561 26517 26587 26687 26860 27078 27168 27026 26964 27061 27347 27646 28030 28527 28810 28997 29037 29049 29025 28992 28914 28860 28842 28763 28434 28040 27742 27632 27623 27699 27834 27949 27821 27473 27188 26966 26893 26941 27033 27169 27206 26945 26565 26323 26281 26351 26505 26710 26912 26734 26374 26201 26094 26107 26220 26362 26540 26609 26347 26009 25850 25881 25986 26123 26358 26613 26561 26209 26083 25932 25866 25961 26094 26252 26382 26201 25946 25820 25796 25849 25904 25949 25918 25693 25408 25351 25408 25538 25692 25821 25978 26057 25929 25833 25884 25937 26018 26092 26142 26151 26004 25851 25789 25945 26121 26172 26220 26334 26404 26312 26219 26212 26205 26259 26450 26728 26959 27118 27383 27501 27600 27742 27868 28031 28220 28470 28644 28830 29075 29241 29439 29647 29841 29961 30025 29954 29789 29646 29556 29321 29119 28958 28840 28615 28368 28212 28103 28016 27909 27896 27944 27935 27928 27891 27857 27847 27751 27734 27735 27696 27536 27447 27416 27417 27446 27423 27460 27439 27279 27197 27219 27392 27373 27333 27316 27376 27366 27268 27183 27107 27010 26802 26592 26486 26342 26155 26008 26058 26183 26330 26494 26655 26791 26853 26836 26916 27135 27323 27403 27380 27294 27079 26834 26757 26815 26922 27101 27253 27351 27434 27307 27106 27026 27101 27223 27328 27319 27343 26995 26688 26616 26716 26907 27095 27142 27206 27104 26872 26723 26728 26801 26948 27126 27225 27266 27146 26869 26826 26948 27184 27461 27702 27829 27924 27709 27500 27421 27465 27550 27661 27784 27840 27816 27665 27476 27437 27494 27641 27812 27967 27920 27641 27407 27355 27359 27426 27524 27644 27765 27680 27359 27086 26970 27025 27138 27324 27526 27683 27565 27318 27276 27206 27239 27285 27387 27509 27507 27402 27296 27242 27231 27158 27125 27195 27187 27150 27160 27215 27248 27291 27298 27301 27377 27341 27140 27036 27118 27231 27286 27242 27136 26839 26600 26535 26639 26856 27042 27088 27153 27101 26906 26747 26726 26801 26977 27160 27301 27350 27238 26893 26774 26804 26954 27156 27365 27484 27574 27393 27104 26967 26984 27085 27220 27341 27425 27380 27111 26840 26809 26904 27037 27139 27185 27205 26995 26766 26745 26873 27092 27294 27474 27600 27620 27481 27389 27410 27465 27546 27647 27735 27760 27594 27387 27287 27381 27497 27619 27736 27815 27821 27689 27547 27449 27404 27321 27348 27421 27528 27497 27389 27266 27319 27363 27400 27493 27574 27628 27504 27376 27291 27243 27233 27258 27345 27404 27339 27305 27313 27380 27471 27531 27541 27580 27542 27343 27192 27125 27052 26996 26949 26935 26836 26643 26598 26661 26661 26708 26832 26945 27019 26978 26824 26784 26879 26992 27043 27108 27103 27000 26807 26781 26948 27098 27171 27292 27327 27326 27224 27016 26901 26927 27042 27136 27105 27018 26813 26555 26448 26529 26704 26902 27020 27098 27022 26851 26702 26667 26743 26869 27025 27131 27157 27060 26806 26699 26779 26937 27154 27315 27401 27358 27116 26925 26869 26931 27031 27162 27320 27383 27260 26911 26749 26823 26979 27225 27453 27602 27606 27388 27180 27078 27109 27199 27337 27488 27605 27560 27292 27094 27074 27189 27363 27549 27672 27685 27574 27264 27071 27072 27156 27246 27374 27507 27570 27267 26968 26843 26867 27017 27217 27431 27592 27435 27143 26891 26849 26928 27032 27164 27327 27431 27270 26943 26734 26695 26784 26962 27158 27428 27481 27207 26925 26837 26867 26952 27086 27238 27330 27072 26637 26388 26380 26521 26706 26940 27096 27036 26688 26401 26347 26413 26559 26773 26952 27064 26833 26420 26222 26234 26397 26618 26891 27089 27081 26808 26554 26489 26537 26678 26826 26973 27059 26827 26465 26278 26358 26570 26856 27074 27182 27174 26868 26602 26524 26596 26743 26939 27076 27178 27032 26705 26554 26593 26794 27062 27242 27310 27369 27073 26865 26817 26838 26991 27141 27233 27274 27036 26688 26549 26598 26754 26933 27039 27159 27219 26885 26695 26668 26719 26869 27031 27165 27201 27079 26877 26761 26773 26834 26979 27022 27100 27000 26894 26851 26899 27036 27153 27224 27231 27150 27068 26886 26706 26751 26800 26801 26708 26816 26868 26988 26993 26854 26967 27237 27387 27368 27283 27277 27197 27045 26814 26656 26428 26248 26259 26417 26543 26534 26541 26546 26442 26442 26478 26569 26690 26734 26688 26739 26675 26629 26580 26598 26683 26807 26764 26654 26514 26349 26314 26361 26494 26651 26636 26469 26488 26415 26409 26459 26549 26674 26805 26760 26647 26514 26447 26438 26475 26549 26655 26642 26447 26423 26459 26470 26568 26666 26798 26928 26838 26689 26571 26478 26487 26539 26669 26838 26856 26738 26611 26587 26560 26652 26739 26849 26972 26936 26827 26742 26664 26671 26741 26840 27017 27052 26909 26933 26867 26820 26856 26984 27086 27184 27091 26970 26918 26865 26866 26926 27029 27158 27158 27052 26978 26985 26983 27042 27135 27218 27341 27278 27126 26983 26918 26927 27025 27228 27476 27613 27555 27637 27754 27866 27973 28060 28098 28094 27878 27616 27416 27339 27271 27320 27449 27593 27615 27460 27350 27291 27203 27179 27187 27260 27354 27286 27142 27066 27022 26953 26917 27021 27169 27179 27046 26889 26813 26782 26752 26774 26836 26874 26767 26659 26612 26507 26398 26338 26381 26541 26571 26460 26349 26325 26328 26316 26363 26435 26504 26419 26344 26284 26279 26209 26148 26163 26193 26084 25943 25945 26162 26385 26606 26838 26999 27030 26896 26785 26773 26848 26881 26994 27014 26992 26839 26593 26421 26334 26341 26407 26499 26611 26709 26623 26576 26582 26610 26583 26557 26599 26638 26567 26618 26699 26707 26858 26779 26751 26777 26815 26733 26684 26682 26696 26669 26617 26620 26605 26575 26671 26819 26847 26823 26834 26832 26859 26853 26771 26779 26788 26834 26822 26793 26796 26776 26747 26776 26797 26782 26806 26807 26851 26920 26929 26863 26866 26885 26907 26891 26827 26800 26758 26700 26757 26866 26875 26869 26866 26851 26870 26810 26684 26672 26687 26765 26751 26742 26759 26673 26667 26747 26840 26829 26891 26878 26862 26899 26826 26753 26757 26817 26902 26890 26879 26868 26754 26625 26651 26693 26644 26596 26723 26727 26780 26716 26682 26739 26839 26941 26900 26847 26777 26569 26350 26317 26381 26413 26481 26489 26554 26573 26503 26424 26455 26554 26683 26780 26968 27192 27337 27539 27957 28307 28530 28759 28894 28969 29113 29301 29482 29641 29783 29920 30016 30133 30217 30248 30270 30314 30372 30423 30393 30213 29989 29770 29448 29123 28889 28680 28503 28286 28047 27728 27340 27125 27096 27102 27068 27112 26985 26930 26819 26712 26651 26703 26740 26763 26678 26567 26328 26132 26094 26230 26400 26406 26544 26477 26326 26142 25989 25962 26068 26164 26239 26148 26028 25754 25571 25618 25818 26008 26100 26235 26229 26068 25837 25712 25715 25799 25944 26039 26013 25900 25701 25601 25644 25867 26080 26177 26141 26188 26034 25832 25734 25731 25822 25981 26088 26111 26040 25795 25688 25708 25913 26168 26354 26509 26590 26566 26426 26354 26395 26444 26557 26609 26636 26562 26461 26343 26387 26538 26732 26871 26914 27033 26908 26736 26647 26647 26710 26812 26874 26897 26791 26581 26477 26560 26751 26919 26976 27027 27047 26910 26784 26737 26782 26880 26985 27045 27034 26954 26785 26716 26765 26944 27106 27208 27245 27258 27082 26859 26774 26788 26892 26985 27042 27048 26780 26511 26446 26554 26784 27010 27057 27092 27022 26773 26607 26569 26625 26740 26854 26896 26891 26733 26476 26415 26477 26571 26627 26640 26666 26576 26393 26292 26251 26324 26430 26460 26511 26465 26240 26152 26176 26266 26414 26549 26728 26900 26930 26806 26764 26797 26849 26901 26916 26913 26817 26590 26429 26438 26542 26657 26733 26885 26841 26714 26585 26529 26566 26690 26786 26803 26771 26625 26396 26312 26378 26572 26772 26813 27007 26963 26749 26579 26518 26529 26645 26744 26805 26809 26662 26429 26345 26419 26599 26763 26815 26966 26907 26763 26630 26556 26596 26687 26787 26890 26989 26867 26599 26452 26465 26581 26712 26767 26812 26766 26542 26415 26399 26493 26639 26746 26824 26785 26510 26253 26170 26262 26442 26632 26748 26857 26865 26657 26481 26437 26478 26608 26759 26869 26887 26722 26457 26290 26337 26481 26668 26800 26863 26838 26516 26283 26203 26238 26357 26551 26672 26753 26495 26122 25937 25977 26144 26371 26592 26674 26626 26323 26061 26025 26089 26238 26392 26572 26705 26558 26195 26002 25970 26057 26235 26446 26539 26436 26172 25909 25862 25931 26065 26240 26436 26491 26293 26034 25871 25889 26033 26225 26464 26668 26646 26497 26401 26312 26351 26442 26573 26704 26803 26634 26387 26268 26303 26373 26533 26728 26901 26814 26683 26719 26660 26716 26863 27034 27168 27234 27249 27301 27447 27668 27983 28314 28674 28958 29090 29179 29226 29337 29391 29445 29540 29618 29602 29463 29147 28885 28720 28588 28461 28255 28005 27651 27393 27256 27138 27076 27083 27130 27175 27116 26981 26866 26738 26660 26647 26711 26771 26772 26686 26549 26520 26559 26565 26594 26691 26761 26651 26514 26405 26360 26294 26291 26412 26544 26473 26336 26270 26373 26283 26221 26264 26332 26379 26275 26212 26194 26167 26160 26139 26180 26218 26192 26153 26071 26092 26026 25987 26019 26128 26067 25930 25891 25945 25924 25928 25875 25909 25890 25856 25994 26141 26127 26204 26231 26257 26296 26313 26251 26252 26315 26377 26316 26260 26247 26170 26077 26127 26279 26338 26382 26414 26393 26393 26314 26269 26353 26472 26569 26599 26626 26605 26479 26390 26374 26363 26409 26457 26426 26459 26611 26752 26790 26837 26887 26958 27075 27159 27194 27117 27033 27021 27041 27064 27087 27140 27154 27093 26964 26850 26829 26903 26998 27089 27149 27131 27028 26960 26973 27054 27157 27165 27194 27270 27219 27162 27134 27178 27251 27336 27476 27596 27585 27343 27115 27025 27012 27075 27213 27256 27353 27196 26978 26864 26880 27000 27138 27320 27518 27645 27546 27502 27713 28105 28475 28812 29024 29258 29324 29037 28659 28374 28185 28080 28062 28075 27837 27419 26973 26660 26541 26477 26475 26513 26443 26081 25763 25589 25638 25733 25876 26040 26171 26013 25595 25328 25259 25296 25391 25508 25642 25611 25363 25216 25169 25248 25387 25550 25779 25910 25772 25364 25050 24943 25005 25129 25276 25455 25397 25088 24780 24657 24721 24886 25146 25387 25570 25451 25142 24902 24849 24966 25112 25299 25511 25483 25303 25133 25099 25210 25349 25512 25706 25846 25703 25421 25193 25169 25304 25469 25649 25824 25724 25562 25452 25500 25595 25746 25908 26097 26165 26059 25896 25756 25738 25830 25997 26153 26280 26212 26050 25978 26035 26106 26222 26397 26571 26655 26587 26505 26419 26399 26430 26535 26765 26986 26956 26746 26680 26638 26697 26788 26903 27020 27034 26922 26837 26726 26652 26687 26780 26953 27075 27029 26970 27173 27047 27020 27149 27302 27452 27550 27479 27328 27206 27114 27103 27232 27379 27451 27511 27619 27787 28048 28270 28430 28621 28798 28963 29163 29359 29569 29764 29955 30123 30325 30479 30577 30597 30554 30560 30593 30571 30595 30577 30465 30170 29880 29610 29291 29024 28798 28640 28399 28111 27889 27787 27680 27599 27498 27400 27356 27183 27033 26994 26983 27016 26960 26872 26773 26612 26480 26481 26568 26604 26688 26531 26468 26478 26456 26396 26455 26507 26554 26456 26378 26338 26224 26139 26240 26328 26365 26457 26415 26366 26310 26202 26150 26154 26212 26254 26179 26112 26038 25907 25891 26013 26164 26224 26295 26238 26230 26283 26236 26178 26216 26275 26321 26310 26260 26149 26006 25997 26094 26219 26288 26340 26331 26313 26201 26058 26056 26159 26259 26344 26331 26306 26216 26063 26053 26179 26330 26423 26527 26498 26509 26488 26425 26408 26487 26559 26612 26539 26472 26405 26261 26265 26395 26477 26541 26614 26624 26667 26593 26480 26493 26569 26632 26676 26620 26549 26398 26236 26185 26207 26292 26428 26568 26763 26951 27018 27018 27033 27070 27120 27163 27214 27251 27178 27003 26884 26856 26888 26972 26982 27047 27049 26949 26886 26943 27051 27113 27129 27121 27104 26989 26885 26931 27052 27096 27217 27231 27247 27255 27173 27143 27137 27170 27198 27148 27051 26942 26772 26695 26767 26895 26893 26939 26927 26884 26791 26644 26621 26696 26749 26718 26700 26603 26442 26243 26071 26004 26060 26100 26194 26139 26104 26086 26037 26060 26179 26309 26384 26259 26202 26068 25897 25856 25986 26173 26326 26501 26360 26204 26055 25990 26008 26123 26241 26351 26337 26345 26159 25999 26015 26150 26365 26576 26640 26814 26676 26481 26357 26342 26423 26559 26648 26704 26697 26440 26196 26150 26213 26383 26568 26599 26676 26527 26304 26182 26202 26302 26468 26584 26625 26525 26211 26030 26006 26102 26288 26514 26568 26714 26536 26324 26243 26253 26340 26466 26655 26771 26812 26695 26449 26408 26365 26377 26500 26629 26739 26783 26518 26251 26212 26273 26398 26528 26695 26678 26441 26253 26167 26233 26395 26585 26781 26919 26773 26595 26464 26386 26384 26451 26516 26613 26528 26334 26168 26149 26121 26196 26306 26403 26400 26207 26062 25981 26127 26188 26201 26246 26305 26237 26170 26199 26254 26282 26271 26286 26313 26190 25983 25838 25806 25858 25981 26107 26238 26375 26341 26338 26360 26472 26598 26728 26807 26889 26846 26763 26763 26821 26865 26888 26980 27120 27143 26995 26910 26886 26942 27044 27160 27237 27215 27061 26832 26770 26821 26866 26885 26909 26930 26786 26664 26606 26642 26733 26864 27043 27201 27277 27045 26726 26627 26657 26741 26832 26969 27059 26912 26725 26616 26619 26709 26823 26941 27102 27178 26934 26689 26621 26678 26855 27159 27471 27711 27827 27905 28011 28127 28238 28375 28505 28629 28700 28553 28456 28421 28484 28546 28665 28832 28957 28904 28781 28511 28183 27934 27793 27706 27702 27610 27332 27063 26794 26625 26524 26561 26662 26752 26625 26447 26356 26283 26279 26320 26402 26509 26469 26299 26225 26123 25988 25924 25963 26101 26153 26106 26043 26033 25962 25951 25993 26100 26199 26173 26098 26090 26101 25986 25939 25957 26001 25934 25955 25992 25985 26066 26070 26072 26134 26186 26096 26039 26079 26148 26180 26106 26020 26038 25983 25991 26087 26167 26175 26151 26047 26069 26109 26054 26027 26126 26241 26373 26405 26380 26332 26202 26107 26174 26250 26279 26325 26314 26299 26237 26116 26075 26178 26301 26427 26412 26308 26132 25931 25925 25995 26096 26153 26220 26258 26222 26098 25945 25919 26018 26214 26395 26474 26365 26178 25983 25989 26085 26278 26464 26605 26673 26719 26542 26426 26381 26405 26515 26681 26783 26870 26729 26412 26289 26363 26552 26752 26878 26926 26978 26797 26604 26526 26606 26720 26904 27049 27180 27213 27157 27158 27389 27733 28094 28401 28640 28857 28987 28986 28892 28891 28917 29032 29228 29360 29498 29606 29714 29974 30221 30419 30601 30721 30800 30850 30736 30529 30386 30358 30350 30391 30471 30502 30401 30250 30170 30179 30220 30268 30312 30319 30028 29604 29154 28752 28474 28304 28217 28168 28091 27695 27259 26939 26706 26611 26594 26672 26742 26492 26150 25897 25848 25828 25871 25952 26068 26119 25823 25556 25390 25296 25259 25327 25482 25643 25593 25406 25300 25425 25427 25401 25429 25500 25599 25485 25413 25389 25357 25383 25350 25368 25390 25295 25316 25401 25434 25485 25551 25448 25450 25426 25324 25289 25376 25502 25579 25519 25486 25372 25236 25214 25311 25506 25661 25749 25863 25772 25694 25607 25605 25693 25864 26029 26146 26167 26172 25982 25930 26042 26272 26461 26535 26609 26524 26309 26079 26016 26041 26148 26328 26460 26552 26519 26295 26152 26166 26300 26466 26650 26739 26842 26746 26575 26499 26521 26601 26758 26880 26976 26974 26783 26554 26516 26572 26737 26967 27141 27156 27174 27016 26893 26879 26919 27013 27139 27208 27254 27079 26829 26785 26864 27059 27301 27488 27481 27461 27217 26968 26921 27002 27111 27195 27321 27386 27124 26784 26477 26455 26573 26815 27018 27151 27056 26731 26405 26255 26268 26344 26520 26693 26852 26740 26307 25988 25865 25910 26062 26250 26482 26611 26372 26146 25851 25805 25866 25984 26083 26193 26069 25782 25489 25307 25215 25257 25366 25552 25593 25473 25332 25347 25267 25268 25357 25521 25700 25710 25614 25596 25511 25412 25447 25537 25693 25800 25934 26013 25970 26087 26231 26189 26240 26345 26343 26202 26141 26133 26127 26119 26154 26220 26263 26272 26360 26363 26384 26476 26499 26542 26638 26654 26613 26624 26693 26729 26753 26766 26731 26637 26494 26403 26393 26459 26583 26740 26881 26986 26977 26925 26902 26959 27032 27143 27212 27297 27269 27185 27117 27095 27115 27129 27169 27236 