30914 31189 31596 27606 27789 27653 27020 26226 25593 25463 25775 25979 26617 29664 41427 42738 40540 34747 29503 33118 32798 31240 37341 47981 48238 48232 48238 39200 39202 39220 39221 39217 39212 39202 39209 39199 39213 39216 39228 39263 39264 39216 39268 39276 39293 39225 39138 39070 38984 38876 38746 38668 38601 38542 38510 38443 38378 38285 38204 38102 37997 37890 37757 37789 37875 37875 37831 37788 37766 37749 37748 37748 37744 37751 37753 37765 37793 37827 37831 37859 37902 37943 37925 37901 37831 37791 37755 37706 37672 37628 37590 37585 37571 37563 37576 37554 37561 37573 37623 37676 37720 37665 37612 37565 37538 37536 37518 37490 37486 37505 37515 37508 37427 37347 37328 37333 37369 37371 37369 37376 37339 37336 37321 37309 37320 37326 37334 37349 37355 37322 37338 37316 37322 37325 37316 37309 37335 37340 37375 37338 37312 37299 37303 37324 37356 37380 37403 37387 37381 37408 37379 37372 37363 37398 37406 37473 37450 37458 37439 37434 37435 37423 37426 37414 37424 37423 37430 37465 37480 37465 37476 37524 37552 37542 37495 37420 37388 37371 37374 37376 37379 37424 37476 37499 37535 37562 37528 37548 37546 37531 37466 37447 37434 37423 37436 37431 37423 37385 37445 37524 37529 37539 37553 37569 37575 37568 37525 37516 37433 37354 37291 37272 37343 37371 37430 37492 37536 37544 37528 37534 37563 37560 37583 37622 37583 37525 37482 37449 37380 37311 37321 37350 37324 37303 37385 37463 37482 37509 37562 37575 37612 37611 37503 37346 37247 37167 37116 37078 37075 37069 36967 36900 37000 37133 37223 37263 37349 37396 37382 37226 37105 36965 36905 36846 36834 36908 36980 36974 36922 37084 37214 37213 37234 37332 37364 37340 37366 37283 37177 37113 37046 37056 37041 37106 37116 37082 37078 37052 37176 37252 37282 37375 37420 37434 37474 37425 37315 37255 37207 37164 37171 37162 37151 37177 37192 37252 37341 37393 37437 37519 37557 37622 37583 37469 37417 37373 37323 37290 37311 37324 37317 37346 37377 37527 37549 37568 37648 37704 37719 37728 37667 37572 37500 37413 37409 37406 37374 37350 37171 37145 37232 37451 37549 37597 37692 37738 37760 37736 37703 37703 37694 37689 37634 37612 37635 37668 37645 37646 37716 37733 37750 37729 37728 37683 37464 37161 37171 37197 37391 37560 37613 37659 37734 37663 37674 37758 37841 37871 37931 37975 37985 37961 37978 38000 38001 38017 38003 38045 38026 37992 37951 37940 37975 38064 38108 38117 38149 38163 38101 38127 38144 38136 38166 38166 38160 38133 38093 38117 38119 38132 38149 38229 38252 38269 38268 38223 38189 38235 38225 38193 38223 38216 38210 38180 38174 38191 38213 38272 38297 38311 38306 38307 38300 38325 38324 38285 38295 38278 38258 38289 38269 38245 38258 38287 38341 38396 38412 38423 38459 38423 38403 38407 38384 38390 38377 38370 38364 38401 38494 38532 38586 38646 38640 38603 38603 38636 38663 38661 38663 38645 38617 38566 38519 38450 38441 38445 38459 38479 38468 38452 38453 38418 38401 38404 38458 38515 38532 38495 38441 38377 38345 38361 38422 38515 38577 38608 38637 38616 38611 38574 38561 38699 38785 38833 38744 38512 38456 38552 38743 38942 39063 39011 39004 39125 39287 39518 39786 39960 39998 39949 39876 39876 39909 39963 40071 40170 40228 40288 40237 40176 40156 40169 40177 40131 40190 40213 40199 40162 40059 39998 39986 39964 40028 40059 40051 40035 40013 40007 39995 40007 40007 40043 40028 40012 40021 39983 39919 39903 39887 39928 39946 39958 39951 39920 39816 39773 39760 39755 39762 39778 39808 39778 39767 39725 39625 39592 39587 39594 39559 39548 39561 39585 39519 39430 39461 39514 39443 39439 39396 39385 39409 39431 39356 39326 39296 39247 39291 39425 39506 39490 39423 39305 39291 39252 39250 39272 39319 39382 39408 39419 39363 39295 39242 39147 39088 39104 39118 39103 39096 39079 39119 39160 39208 39216 39196 39232 39225 39199 39150 39087 39080 39111 39151 39155 39166 39193 39163 39099 39051 39080 39123 39153 39146 39177 39180 39150 39127 39081 39073 39077 39071 39066 39044 39070 39035 38927 38956 39010 39041 39070 39109 39113 39118 39122 39107 39023 39037 39030 39072 39093 39110 39086 39102 39040 38995 38990 39098 39112 39124 39139 39158 39166 39182 39063 38992 39088 39163 39235 39265 39212 39205 39118 39058 39089 39211 39271 39299 39324 39357 39373 39358 39269 39122 39164 39254 39308 39289 39306 39313 39266 39211 39233 39312 39318 39350 39361 39373 39389 39411 39372 39232 39258 39292 39332 39398 39423 39398 39396 39282 39213 39301 39350 39411 39429 39441 39453 39414 39424 39321 39244 39277 39301 39387 39450 39451 39437 39363 39312 39263 39370 39365 39385 39397 39423 39422 39433 39356 39258 39214 39258 39300 39354 39377 39362 39357 39259 39229 39279 39350 39390 39410 39419 39402 39411 39405 39274 39209 39237 39308 39362 39403 39383 39332 39233 39102 39186 39268 39291 39343 39375 39383 39389 39366 39197 39206 39230 39288 39303 39302 39301 39271 39240 39076 39127 39248 39295 39340 39369 39372 39414 39386 39229 39161 39183 39238 39301 39313 39328 39307 39254 39113 39129 39216 39274 39305 39296 39293 39319 39259 39133 39067 39039 39050 39081 39151 39197 39192 39086 39033 39007 39090 39160 39208 39229 39210 39187 39197 39160 39105 39066 39080 39120 39189 39206 39211 39186 39128 39130 39044 39081 39115 39130 39126 39133 39067 38969 38820 38835 38876 38958 38974 38960 38929 38827 38693 38697 38828 38876 38905 38911 38909 38923 38883 38682 38505 38560 38629 38692 38731 38714 38680 38596 38642 38776 38719 38731 38754 38794 38785 38741 38662 38498 38454 38458 38544 38661 38705 38707 38693 38531 38406 38457 38498 38530 38591 38679 38681 38682 38555 38443 38442 38524 38556 38601 38663 38671 38660 38513 38481 38472 38587 38630 38691 38707 38723 38720 38610 38431 38427 38527 38615 38683 38698 38676 38620 38517 38454 38515 38575 38599 38637 38659 38649 38633 38528 38246 38249 38360 38437 38493 38497 38519 38483 38391 38213 38237 38382 38415 38427 38481 38500 38473 38419 38259 38214 38294 38330 38375 38419 38441 38476 38342 38262 38213 38341 38414 38441 38468 38474 38479 38425 38218 38101 38193 38286 38346 38411 38473 38495 38385 38200 38258 38382 38437 38464 38489 38540 38578 38581 38465 38245 38329 38426 38498 38537 38534 38537 38510 38277 38228 38371 38502 38542 38610 38682 38701 38693 38578 38506 38636 38744 38799 38826 38804 38823 38702 38501 38543 38738 38852 38901 38902 38946 38930 38891 38784 38704 38808 38903 38957 38950 38951 38968 38887 38788 38756 38872 38925 38977 39029 39067 39071 39018 38816 38849 38955 39014 39060 39069 39072 39117 39068 38816 38814 39034 39124 39171 39165 39174 39163 39143 39076 38928 39046 39180 39245 39279 39251 39219 39156 38965 38962 39115 39093 39120 39116 39110 39150 39125 39049 38991 39014 39043 39073 39107 39104 39101 39067 38869 38733 38902 39019 39018 38961 38958 38984 38934 38879 38709 38716 38792 38860 38943 38946 38926 38832 38674 38533 38707 38760 38785 38812 38824 38810 38771 38675 38581 38613 38694 38765 38819 38828 38730 38462 38300 38344 38468 38600 38615 38543 38539 38577 38590 38507 38443 38519 38590 38640 38613 38624 38586 38405 38372 38423 38539 38589 38665 38693 38676 38667 38633 38542 38597 38687 38726 38765 38744 38748 38706 38582 38528 38677 38736 38757 38764 38737 38738 38698 38656 38631 38699 38784 38820 38859 38845 38852 38794 38638 38529 38611 38732 38725 38731 38728 38770 38795 38741 38653 38629 38671 38694 38741 38783 38768 38766 38637 38572 38557 38667 38656 38660 38702 38718 38715 38672 38578 38533 38625 38676 38730 38748 38747 38773 38761 38581 38494 38496 38587 38605 38617 38575 38571 38600 38615 38516 38322 38444 38540 38537 38527 38509 38514 38503 38254 38139 38253 38363 38406 38432 38442 38461 38439 38345 38255 38252 38308 38370 38436 38423 38410 38331 38131 38049 38209 38268 38277 38266 38315 38341 38294 38188 38057 38086 38150 38185 38220 38210 38232 38137 38001 37956 38005 38071 38121 38178 38140 38212 38198 38122 38011 38062 38118 38136 38158 38180 38162 38030 37988 37940 38098 38123 38129 38132 38137 38151 38138 38084 37965 37972 38084 38116 38132 38128 38140 38148 37907 37801 37928 38014 37985 38073 38162 38121 38063 38006 37963 37941 37994 38047 38115 38105 38067 38009 37760 37627 37852 38022 38056 38047 38097 38083 38059 37973 37851 37919 37985 38064 38124 38145 38156 38060 37894 37877 38011 38064 38046 38088 38153 38197 38184 38140 38026 38061 38116 38175 38247 38254 38246 38129 38100 38072 38192 38230 38245 38278 38358 38326 38274 38214 38163 38226 38340 38384 38361 38346 38345 38179 38263 38169 38301 38317 38348 38374 38434 38468 38475 38376 38141 38240 38370 38425 38474 38494 38493 38380 38197 38179 38273 38454 38488 38509 38505 38506 38470 38416 38244 38219 38358 38433 38470 38460 38460 38271 38152 38087 38329 38384 38428 38460 38521 38533 38575 38525 38385 38426 38548 38592 38623 38602 38589 38464 38454 38441 38568 38555 38586 38649 38693 38698 38716 38629 38479 38548 38654 38666 38657 38631 38607 38435 38324 38189 38470 38605 38662 38718 38761 38736 38707 38643 38655 38702 38757 38800 38784 38748 38670 38478 38516 38574 38700 38743 38810 38824 38862 38847 38759 38606 38689 38788 38834 38867 38833 38847 38831 38633 38560 38665 38771 38832 38842 38819 38876 38928 38878 38751 38688 38770 38818 38858 38864 38863 38819 38627 38657 38713 38822 38844 38854 38884 38944 38967 38911 38797 38777 38806 38879 38927 38927 38928 38906 38725 38745 38746 38863 38970 39014 39009 39021 38901 38751 38837 38930 38951 38969 39046 39062 38966 38727 38735 38834 38967 39006 39033 39043 39070 39015 38912 38777 38832 38927 38968 39000 39010 38996 38908 38760 38727 38903 38983 39028 39057 39028 39000 38946 38857 38790 38780 38835 38845 38870 38886 38890 38868 38873 38912 39006 39099 39176 39225 39257 39242 39191 39064 38981 39012 39066 39119 39126 39156 39156 39082 38921 38891 38996 39071 39127 39144 39182 39164 39142 39047 38929 38940 39040 39100 39101 39099 39085 38992 38882 38807 38961 39059 39140 39166 39173 39154 39100 38971 38876 38924 38989 39043 39072 39069 39068 38967 38809 38680 38765 38899 38962 39015 39032 39013 39021 38927 38752 38760 38834 38875 38907 38930 38942 38894 38826 38657 38792 38904 38941 38933 38973 38980 38960 38849 38699 38724 38794 38843 38853 38850 38858 38761 38620 38600 38749 38769 38775 38798 38837 38852 38864 38805 38547 38600 38725 38794 38813 38819 38835 38744 38624 38569 38707 38799 38854 38887 38901 38926 38878 38795 38621 38662 38767 38863 38862 38862 38864 38762 38487 38562 38776 38831 38838 38900 38921 38888 38794 38587 38747 38868 38941 38973 38990 39031 38945 38788 38779 38906 38965 38995 39020 39017 39012 38899 38758 38879 38906 38921 38936 38934 38870 38714 38828 38887 38916 38911 38917 38963 38939 38863 38721 38753 38803 38875 38921 38929 38910 38734 38581 38537 38744 38807 38817 38856 38905 38936 38855 38789 38635 38663 38746 38831 38890 38943 38949 38879 38654 38492 38607 38747 38776 38807 38830 38865 38813 38731 38491 38579 38636 38723 38727 38712 38753 38588 38329 38204 38325 38395 38474 38560 38601 38599 38546 38393 38333 38485 38581 38608 38632 38674 38604 38458 38435 38599 38624 38653 38648 38645 38651 38656 38548 38441 38629 38696 38752 38726 38706 38687 38614 38405 38354 38619 38693 38701 38727 38687 38626 38582 38473 38476 38539 38624 38695 38696 38691 38678 38589 38488 38516 38667 38687 38723 38759 38753 38734 38664 38472 38452 38568 38632 38685 38694 38681 38640 38524 38372 38422 38521 38550 38611 38648 38638 38609 38511 38384 38396 38454 38514 38532 38520 38514 38463 38351 38292 38199 38411 38456 38496 38514 38540 38526 38442 38273 38260 38374 38448 38484 38509 38502 38482 38371 38221 38284 38478 38524 38512 38486 38489 38464 38391 38342 38360 38398 38478 38499 38514 38511 38444 38344 38344 38413 38483 38504 38526 38550 38523 38488 38402 38242 38254 38306 38389 38445 38404 38355 38236 38103 38090 38271 38374 38447 38516 38503 38502 38422 38285 38161 38250 38352 38411 38437 38403 38351 38294 38163 38010 38160 38276 38317 38378 38405 38383 38397 38321 38198 38199 38289 38380 38378 38378 38372 38296 38152 38113 38240 38312 38352 38416 38440 38444 38437 38304 38070 38150 38265 38343 38390 38429 38425 38359 38271 38327 38456 38493 38520 38586 38613 38624 38600 38493 38447 38498 38578 38614 38607 38608 38581 38446 38287 38366 38523 38633 38695 38727 38718 38704 38565 38346 38497 38645 38740 38754 38744 38704 38617 38509 38460 38592 38678 38740 38820 38872 38844 38793 38657 38584 38689 38787 38815 38789 38795 38772 38650 38450 38489 38711 38785 38827 38859 38867 38904 38843 38583 38505 38655 38777 38841 38840 38861 38765 38633 38466 38618 38770 38842 38879 38888 38934 38916 38789 38650 38713 38829 38898 38930 38912 38889 38784 38598 38399 38530 38678 38777 38852 38869 38865 38868 38736 38672 38738 38797 38872 38887 38878 38842 38766 38662 38559 38761 38824 38896 38945 38976 38990 38945 38778 38654 38769 38849 38883 38910 38938 38912 38800 38664 38685 38857 38934 38967 38982 38992 39000 38937 38782 38724 38840 38927 38956 38906 38870 38831 38677 38544 38700 38843 38936 38990 39010 38989 38996 38904 38656 38482 38737 38871 38916 38918 38896 38783 38535 38362 38406 38585 38753 38843 38929 38940 38952 38940 38807 38782 38893 39025 39048 39039 38994 38930 38830 38720 38774 38947 39080 39069 39081 39099 39103 38996 38702 38694 38868 38948 38973 38943 38950 38933 38781 38565 38828 38880 38926 38911 38969 39012 38990 38882 38633 38628 38779 38867 38913 38943 38919 38853 38716 38498 38592 38780 38850 38867 38888 38898 38879 38799 38679 38689 38747 38822 38886 38871 38850 38783 38657 38691 38704 38691 38709 38775 38803 38823 38804 38731 38579 38499 38501 38570 38633 38637 38630 38612 38405 38156 38272 38384 38453 38507 38551 38564 38537 38442 38235 38143 38198 38299 38333 38316 38318 38295 38155 37974 38000 38127 38168 38244 38311 38356 38363 38161 38067 38115 38117 38144 38211 38267 38285 38254 38106 37932 37964 38117 38156 38204 38259 38293 38260 38207 38057 37967 38068 38233 38343 38439 38460 38417 38244 38014 38014 38212 38332 38401 38452 38463 38460 38354 38203 38219 38367 38454 38514 38509 38513 38487 38377 38291 38237 38384 38446 38460 38531 38577 38525 38431 38182 38147 38255 38371 38390 38425 38491 38457 38180 38017 38213 38374 38412 38459 38499 38509 38490 38407 38299 38244 38324 38398 38465 38523 38558 38522 38346 38130 38095 38232 38289 38303 38373 38438 38453 38382 38222 38216 38329 38431 38471 38500 38600 38517 38312 38063 38068 38306 38392 38451 38477 38453 38449 38389 38147 38167 38316 38416 38443 38439 38486 38408 38041 37906 38059 38275 38344 38412 38503 38549 38559 38534 38374 38340 38495 38608 38648 38663 38691 38639 38446 38407 38536 38655 38727 38777 38821 38835 38814 38763 38587 38656 38810 38914 38962 38932 38935 38852 38582 38518 38703 38892 38955 38977 38976 39005 39016 38917 38792 38947 39118 39203 39232 39235 39248 39194 39101 39111 39277 39409 39435 39432 39410 39422 39397 39292 39226 39398 39487 39543 39580 39574 39548 39451 39381 39362 39528 39573 39613 39724 39767 39703 39618 39493 39609 39695 39771 39818 39826 39828 39777 39578 39500 39672 39770 39803 39836 39843 39838 39819 39721 39632 39648 39732 39815 39884 39892 39873 39816 39665 39484 39654 39806 39836 39843 39848 39844 39865 39740 39595 39714 39829 39880 39886 39896 39882 39794 39668 39574 39792 39818 39843 39873 39920 39911 39864 39739 39595 39746 39894 39946 39946 39920 39885 39756 39622 39636 39830 39837 39907 39906 39949 39913 39827 39685 39754 39915 40013 40031 40016 40016 39978 39874 39731 39796 39944 39987 40018 40039 40056 40020 39926 39811 39899 40018 40100 40093 40097 40087 40047 39903 39798 39938 40042 40042 40035 40053 40042 40032 39948 39778 39843 40036 40081 40112 40143 40128 40101 39991 39843 39983 40055 40071 40089 40134 40121 40096 40057 39930 40011 40141 40174 40210 40217 40234 40142 39992 39907 40032 40127 40126 40163 40188 40191 40107 40032 39937 40031 40112 40153 40157 40153 40146 40055 39969 39910 40086 40108 40094 40090 40091 40089 40035 39874 39823 40000 40017 40074 40105 40159 40141 40008 39987 40010 39978 39954 39952 39981 40017 39998 39963 39858 39781 39877 39941 39986 40008 40018 39941 39766 39653 39773 39876 39873 39901 39921 39891 39828 39763 39670 39625 39705 39748 39773 39772 39753 39696 39518 39370 39408 39540 39577 39582 39604 39600 39585 39510 39444 39395 39462 39511 39560 39594 39587 39492 39304 39182 39345 39424 39439 39436 39433 39409 39392 39342 39210 39234 39292 39334 39383 39391 39342 39213 39070 39089 39239 39267 39273 39300 39332 39329 39262 39043 38878 39085 39187 39221 39219 39224 39217 39108 38933 38824 38976 39104 39128 39142 39149 39152 39135 39089 38933 39044 39166 39208 39195 39168 39149 38984 38808 38750 38958 39004 39015 39033 39045 39055 39000 38914 38700 38808 38881 38944 38980 39003 38979 38891 38778 38690 38804 38850 38891 38870 38908 38929 38872 38748 38574 38689 38777 38788 38779 38763 38746 38556 38365 38306 38448 38517 38548 38584 38636 38624 38563 38389 38249 38352 38425 38494 38480 38474 38444 38257 38183 38176 38293 38364 38374 38406 38417 38440 38353 38101 38131 38294 38353 38394 38401 38433 38343 38096 37843 38017 38169 38178 38205 38205 38210 38192 38104 37946 37868 37990 38070 38166 38187 38183 38146 37932 37753 37855 38013 38039 38099 38157 38191 38199 38077 37953 37909 38065 38155 38192 38178 38157 38104 37900 37837 37912 38008 38052 38112 38108 38125 38138 38078 37862 37744 37869 37958 38037 38066 38056 38000 37807 37690 37824 37911 37964 38026 38074 38113 38068 37986 37825 37874 38000 38063 38084 38082 38082 37997 37741 37731 37927 38036 38055 38088 38134 38150 38118 38050 37793 37725 37861 37981 38024 38037 38088 37942 37676 37861 37997 38112 38186 38208 38229 38269 38287 38144 37806 37898 38092 38236 38285 38286 38225 38024 37849 37784 37930 38051 38164 38220 38218 38262 38296 38176 37980 38050 38204 38301 38370 38429 38473 38449 38437 38492 38584 38688 38694 38722 38739 38768 38797 38722 38634 38761 38886 38992 39025 39066 39035 38968 38904 38925 39076 39189 39205 39208 39219 39240 39238 39206 39091 39203 39393 39476 39526 39549 39572 39512 39414 39463 39557 39645 39682 39707 39696 39703 39711 39662 39589 39677 39796 39872 39877 39904 39894 39888 39829 39850 39933 40030 40053 40090 40105 40109 40077 40025 39989 40015 40080 40149 40198 40229 40241 40192 40002 40002 40015 40082 40108 40149 40147 40127 40105 40052 39994 39920 39996 40094 40130 40136 40140 40087 39913 39862 39861 39974 39988 39990 40003 39962 39959 39887 39778 39697 39813 39877 39920 39942 39937 39893 39759 39679 39681 39808 39869 39872 39865 39844 39802 39771 39701 39667 39732 39786 39769 39731 39775 39788 39663 39508 39342 39512 39640 39634 39642 39623 39652 39566 39498 39442 39547 39640 39659 39677 39687 39680 39517 39378 39452 39603 39640 39609 39631 39640 39611 39555 39443 39428 39530 39561 39576 39580 39589 39528 39428 39304 39346 39506 39538 39530 39534 39515 39498 39448 39348 39227 39221 39269 39263 39264 39174 39001 38695 38559 38687 38764 38800 38880 38946 38982 38944 38856 38843 38872 38852 38867 38961 39078 39205 39245 39206 39172 39198 39332 39455 39488 39488 39558 39624 39793 39822 39677 39597 39587 39597 39646 39665 39695 39733 39780 39759 39840 39877 39916 39877 39814 39779 39725 39726 39708 39716 39768 39814 39882 39933 39939 39935 39904 39891 39920 39991 40017 40028 40018 39942 39928 40006 40079 40160 40203 40276 40352 40332 40298 40285 40250 40257 40340 40392 40422 40408 40422 40353 40332 40325 40293 40306 40306 40299 40316 40334 40326 40233 40206 40168 40205 40234 40233 40183 40168 40133 40076 40036 39998 39988 39969 39957 39951 39966 39903 39801 39769 39744 39795 39876 39881 39837 39858 39826 39744 39680 39643 39634 39598 39600 39754 39892 39867 39819 39747 39745 39741 39733 39704 39716 39704 39632 39567 39490 39445 39435 39375 39364 39376 39303 39232 39177 39113 39053 39078 39046 38985 38954 38989 38838 38725 38656 38645 38615 38659 38733 38711 38637 38515 38427 38416 38450 38502 38527 38490 38472 38458 38415 38402 38312 38273 38274 38235 38234 38226 38184 38088 38030 38028 38019 38047 38079 38090 38081 37998 37868 37824 37785 37758 37786 37825 37827 37806 37769 37737 37673 37659 37636 37665 37692 37718 37715 37750 37715 37701 37757 37838 37960 38019 38037 38076 38070 37991 37917 37829 37801 37805 37887 37947 38002 38068 37993 37880 37866 37932 38043 38150 38202 38194 38126 38056 37997 37997 37992 38004 38024 38044 38048 37958 37871 37836 37904 38046 38147 38205 38251 38320 38288 38176 38124 38166 38199 38187 38223 38318 38366 38347 38328 38286 38215 38203 38234 38315 38390 38417 38366 38272 38157 38078 38093 38104 38107 38120 38130 38116 38107 37995 37916 37937 37954 38007 38130 38191 38133 38048 37998 37995 38013 38049 38073 38132 38121 38088 38034 37965 37926 37912 37949 37965 38018 38034 37980 37872 37825 37786 37761 37784 37840 37831 37794 37751 37743 37671 37569 37549 37646 37805 37910 37905 37855 37695 37562 37557 37594 37636 37672 37697 37679 37637 37635 37596 37567 37642 37717 37767 37814 37844 37795 37694 37579 37562 37632 37664 37642 37654 37647 37631 37544 37460 37313 37327 37373 37386 37432 37449 37462 37364 37213 37144 37229 37322 37353 37373 37398 37353 37277 37211 37143 37113 37183 37290 37387 37439 37470 37522 37514 37491 37594 37660 37681 37692 37757 37772 37775 37762 37698 37619 37609 37686 37803 37850 37869 37876 37891 37823 37875 37992 38072 38053 37995 37982 37949 38084 38250 38397 38618 38814 38960 38978 38952 39151 39309 39393 39516 39545 39526 39468 39354 39355 39347 39267 39197 39169 39198 39214 39273 39451 39669 39770 39594 39223 39137 39144 39078 39077 39178 39278 39264 39125 39051 39057 39156 39201 39202 39236 39276 39236 39124 39077 39024 39032 39231 39437 39645 39893 40086 40148 40228 40273 40309 40295 40278 40340 40398 40406 40377 40383 40410 40409 40397 40363 40358 40370 40369 40335 40324 40292 40311 40330 40418 40414 40415 40706 40906 41044 41216 41333 41412 41499 41586 41618 41629 41591 41555 41529 41527 41534 41489 41486 41489 41414 41423 41494 41574 41721 41845 41901 41918 41912 41913 41943 41977 42042 42051 42108 42160 42158 42166 42162 42150 42234 42224 42193 42157 42134 42061 42046 42012 41897 41819 41823 41849 41831 41784 41743 41670 41539 41393 41424 41424 41406 41367 41338 41311 41277 41226 41199 41165 41127 41061 41009 40982 40979 40926 40768 40633 40661 40660 40649 40579 40547 40549 40481 40389 40319 40275 40242 40238 40241 40233 40203 40135 39976 39982 40061 40048 39932 39897 39890 39910 39895 39836 39801 39796 39799 39787 39763 39759 39773 39763 39743 39816 39888 39926 39885 39875 39894 39875 39872 39831 39771 39802 39847 39829 39829 39811 39858 39779 39696 39609 39541 39548 39584 39631 39604 39596 39619 39599 39558 39605 39683 39710 39722 39728 39755 39665 39643 39736 39857 39880 39857 39877 39915 39913 39869 39845 39846 39889 39927 39985 39987 39999 39956 39857 39808 39866 39916 39953 39971 39980 39983 39954 39930 39917 39867 39936 40023 40084 40093 40144 40188 40125 40106 40212 40293 40330 40342 40385 40381 40366 40326 40313 40344 40397 40426 40438 40446 40474 40405 40301 40178 40215 40305 40345 40355 40349 40322 40308 40267 40209 40170 40222 40238 40284 40339 40389 40433 40368 40357 40412 40403 40440 40508 40532 40513 40492 40421 40394 40436 40472 40523 40529 40534 40543 40448 40238 40192 40262 40370 40463 40487 40503 40439 40404 40391 40378 40410 40485 40506 40524 40546 40514 40366 40378 40455 40470 40482 40545 40534 40529 40494 40490 40445 40423 40490 40493 40495 40500 40526 40517 40365 40147 40216 40323 40359 40319 40297 40254 40220 40214 40174 40207 40226 40267 40239 40221 40265 40257 40128 40049 40188 40233 40203 40189 40180 40135 40074 40035 39999 40052 40097 40102 40096 40079 40102 40014 39991 40021 40038 40047 40034 40042 40042 40025 40025 39991 39987 39999 39975 39987 40018 40014 39964 39908 39884 39945 39990 40004 39990 39969 39994 40006 39992 40022 40021 40012 40022 40041 40081 40082 40049 40025 39963 39996 39946 39931 39993 40005 39996 39957 39941 39931 39919 39911 39912 39920 39964 39996 39933 39848 39862 39884 39877 39864 39800 39872 39875 39851 39807 39728 39752 39804 39812 39842 39837 39830 39833 39699 39623 39709 39775 39796 39793 39839 39893 39866 39879 39792 39799 39855 39950 40014 40060 40089 40054 39904 39763 39856 39951 40005 40010 40044 40043 40019 39986 39932 39956 39934 39968 40002 40025 40071 39986 39784 39799 39939 39961 39907 39957 39975 39928 39930 39904 39895 39943 40000 40009 40019 40015 40028 39988 40073 40189 40295 40395 40483 40444 40418 40386 40362 40328 40375 40391 40406 40404 40433 40418 40405 40258 40166 40317 40378 40380 40410 40438 40377 40266 40278 40285 40242 40379 40504 40552 40572 40586 40574 40511 40476 40506 40526 40536 40562 40575 40541 40546 40504 40503 40501 40522 40522 40591 40589 40583 40559 40490 40542 40612 40663 40670 40667 40660 40657 40636 40610 40584 40624 40649 40691 40701 40750 40777 40733 40659 40709 40806 40838 40801 40835 40880 40852 40836 40808 40799 40823 40811 40812 40814 40842 40839 40831 40830 40821 40880 40895 40874 40863 40864 40856 40864 40831 40830 40815 40814 40824 40841 40880 40887 40890 40859 40837 40855 40871 40884 40898 40923 40924 40949 40919 40898 40922 40936 40926 40923 40996 41035 41021 40959 40975 41055 41058 41064 41021 40988 41013 41007 40955 40938 40940 40933 40968 40998 41014 41064 41053 41020 41000 41010 41052 41087 41087 41119 41114 41118 41087 41067 41077 41126 41209 41239 41254 41275 41318 41219 41152 41200 41206 41202 41253 41277 41278 41260 41205 41163 41165 41221 41286 41338 41320 41327 41221 41133 41211 41289 41278 41355 41368 41293 41278 41254 41211 41215 41264 41298 41300 41301 41281 41236 41189 41129 41168 41170 41200 41228 41201 41139 41078 41010 40945 40985 41015 41012 41015 41046 41018 41013 40886 40882 40950 40963 40950 40959 40944 40905 40884 40826 40778 40772 40779 40769 40822 40832 40862 40829 40818 40787 40857 40897 40906 40938 40974 40963 40924 40901 40846 40837 40864 40881 40900 40940 40975 40946 40914 40900 40996 40964 40920 40921 40972 40962 40939 40900 40854 40854 40951 41122 41282 41421 41530 41544 41531 41447 41474 41520 41563 41581 41605 41595 41591 41528 41430 41346 41377 41410 41403 41454 41524 41548 41486 41370 41335 41344 41391 41407 41359 41307 41254 41219 41127 41045 41007 41014 41023 40974 40988 41057 41006 40892 40789 40890 40872 40777 40791 40799 40764 40737 40700 40668 40690 40703 40708 40696 40689 40689 40667 40587 40578 40644 40669 40649 40612 40606 40603 40548 40539 40531 40484 40513 40527 40509 40523 40553 40583 40605 40623 40723 40882 40882 40887 40845 40840 40819 40772 40700 40664 40678 40692 40688 40684 40747 40748 40712 40601 40591 40646 40680 40644 40661 40665 40637 40622 40540 40457 40427 40435 40478 40503 40508 40517 40479 40387 40318 40376 40389 40422 40425 40414 40406 40359 40274 40231 40215 40177 40163 40217 40275 40226 40153 40069 39961 40017 40085 40082 40069 40125 40126 40101 40067 40029 40045 40067 40075 40129 40192 40167 40147 40095 40202 40293 40349 40394 40444 40442 40425 40411 40387 40350 40383 40413 40450 40476 40536 40539 40562 40483 40487 40581 40637 40658 40683 40666 40651 40614 40569 40486 40521 40578 40595 40668 40755 40813 40756 40681 40704 40788 40794 40795 40788 40790 40806 40763 40759 40764 40795 40797 40834 40882 40929 40958 40907 40855 40913 40977 40979 40982 40984 40973 40937 40897 40823 40835 40834 40835 40856 40917 40978 40960 40839 40792 40910 40950 40961 40953 40998 40982 40964 40933 40900 40909 40917 40916 40925 40961 41002 41011 40964 40935 40953 41023 41037 41068 41105 41085 41073 41044 40985 40988 41040 41103 41121 41184 41257 41243 41161 41233 41307 41340 41326 41339 41334 41294 41242 41209 41144 41178 41217 41270 41301 41323 41302 41306 41255 41317 41431 41502 41583 41594 41596 41630 41647 41640 41603 41632 41703 41748 41739 41767 41840 41869 41865 41764 41860 41902 41917 41954 41982 42006 41976 41951 41935 41924 41958 41966 41995 42019 42107 42119 42102 42005 42050 42093 42080 42107 42146 42158 42124 42108 42040 42026 42018 42036 42064 42125 42163 42164 42133 42052 42052 42123 42129 42152 42154 42204 42161 42152 42082 42003 42007 42039 42054 42130 42195 42215 42184 42044 41988 41985 42007 42008 42003 41997 41970 41923 41866 41794 41776 41769 41779 41741 41762 41775 41734 41633 41558 41507 41543 41574 41594 41607 41585 41574 41529 41473 41413 41404 41399 41389 41395 41407 41404 41422 41298 41244 41303 41279 41256 41269 41274 41313 41306 41235 41188 41130 41132 41120 41149 41181 41218 41233 41100 41059 41081 41109 41105 41126 41155 41158 41148 41062 41017 41011 40994 40946 40950 41012 41055 41047 40991 40912 40864 40936 40944 40950 40935 40958 40918 40861 40815 40723 40690 40663 40702 40740 40769 40719 40610 40537 40560 40593 40603 40627 40642 40643 40616 40576 40512 40468 40460 40463 40523 40569 40559 40558 40463 40411 40413 40484 40541 40596 40632 40660 40700 40693 40694 40701 40684 40685 40732 40767 40790 40837 40856 40839 40750 40818 40883 40917 40935 40970 40980 40962 40893 40871 40851 40814 40848 40883 40945 40989 40973 40768 40675 40743 40792 40818 40841 40846 40861 40820 40795 40728 40628 40651 40704 40799 40898 40999 41021 40980 41008 41082 41173 41244 41282 41341 41339 41320 41247 41195 41156 41159 41177 41197 41223 41227 41141 41001 40957 40998 41014 41028 40991 40974 40964 40925 40908 40772 40751 40782 40803 40824 40820 40841 40741 40526 40553 40623 40630 40614 40646 40643 40626 40620 40588 40482 40517 40548 40578 40560 40592 40625 40480 40420 40508 40557 40562 40588 40657 40679 40667 40646 40646 40660 40655 40627 40636 40714 40738 40725 40616 40657 40733 40742 40677 40710 40745 40721 40689 40670 40602 40621 40629 40641 40657 40692 40683 40553 40510 40556 40579 40562 40550 40545 40537 40534 40508 40456 40435 40417 40402 40374 40419 40472 40430 40279 40299 40350 40324 40296 40330 40391 40426 40396 40330 40279 40258 40273 40365 40396 40407 40388 40298 40278 40292 40305 40288 40334 40394 40437 40417 40348 40242 40265 40342 40353 40376 40417 40438 40408 40288 40299 40333 40354 40323 40337 40361 40377 40333 40249 40218 40237 40282 40358 40388 40408 40371 40257 40226 40252 40278 40308 40360 40419 40441 40411 40314 40258 40268 40316 40362 40437 40483 40474 40449 40329 40349 40464 40504 40549 40609 40634 40616 40589 40543 40495 40493 40538 40580 40642 40676 40666 40590 40543 40611 40643 40676 40705 40730 40711 40700 40682 40624 40603 40623 40695 40781 40834 40875 40853 40714 40697 40770 40813 40827 40845 40859 40860 40832 40794 40767 40785 40841 40848 40887 40957 41006 40930 40884 40897 40965 41033 41060 41073 41081 41103 41046 41018 40996 41029 41056 41104 41132 41189 41205 41156 41091 41142 41238 41261 41271 41288 41292 41253 41182 41144 41115 41119 41177 41223 41246 41259 41267 41208 41155 41180 41228 41247 41281 41320 41325 41289 41216 41162 41120 41150 41239 41291 41315 41329 41256 41145 41113 41193 41221 41204 41210 41281 41317 41291 41219 41137 41163 41197 41220 41278 41316 41337 41364 41218 41178 41248 41342 41395 41370 41364 41340 41320 41270 41246 41332 41399 41430 41477 41489 41493 41301 41287 41375 41411 41459 41455 41474 41441 41400 41370 41367 41388 41427 41463 41521 41575 41589 41470 41426 41471 41481 41440 41445 41479 41485 41480 41406 41310 41304 41410 41426 41388 41399 41428 41342 41140 41219 41308 41294 41244 41264 41303 41309 41287 41232 41222 41240 41247 41267 41335 41381 41331 41168 41196 41254 41289 41264 41243 41285 41321 41310 41265 41185 41119 41162 41205 41225 41230 41291 41250 41130 41087 41162 41254 41244 41253 41279 41302 41263 41221 41193 41200 41201 41283 41417 41582 41601 41524 41468 41553 41663 41724 41755 41760 41739 41665 41551 41481 41472 41485 41507 41567 41597 41612 41521 41348 41301 41425 41504 41557 41581 41583 41538 41461 41422 41360 41398 41426 41502 41522 41545 41503 41460 41381 41367 41443 41465 41483 41479 41501 41502 41448 41389 41332 41384 41403 41400 41423 41448 41460 41438 41332 41334 41384 41434 41439 41442 41459 41439 41385 41293 41206 41175 41176 41280 41373 41457 41538 41527 41417 41431 41473 41451 41452 41477 41477 41464 41448 41407 41391 41420 41448 41471 41536 41591 41657 41696 41573 41615 41697 41729 41731 41735 41769 41783 41757 41670 41614 41596 41632 41642 41649 41695 41711 41692 41509 41405 41492 41516 41519 41495 41526 41527 41464 41409 41392 41399 41355 41294 41370 41384 41347 41149 41018 41046 41123 41149 41128 41125 41118 41069 41022 40932 40837 40876 40895 40929 40964 40987 40970 40841 40672 40653 40711 40737 40729 40779 40768 40727 40634 40534 40468 40441 40454 40471 40493 40487 40431 40297 40240 40242 40293 40307 40279 40285 40290 40272 40253 40142 40072 40049 40047 40057 40101 40135 40138 40050 39999 39988 40019 39991 39922 39951 39965 39972 39945 39887 39828 39768 39711 39728 39784 39840 39782 39674 39617 39592 39620 39688 39700 39742 39774 39779 39730 39652 39570 39526 39492 39535 39575 39623 39604 39479 39378 39376 39434 39496 39567 39612 39659 39695 39672 39585 39559 39546 39535 39564 39644 39711 39707 39523 39435 39523 39601 39667 39721 39799 39844 39840 39823 39751 39731 39744 39817 39878 39949 39960 39977 39890 39857 39868 39952 40016 40045 40085 40119 40110 40133 40092 40041 40058 40069 40116 40170 40186 40160 40090 39994 40049 40105 40162 40243 40312 40401 40441 40426 40413 40422 40428 40513 40659 40805 40829 40860 40888 40832 40811 40873 40911 40948 41014 41047 41053 41041 41034 41003 41003 41091 41140 41186 41217 41231 41164 41079 41078 41134 41156 41135 41141 41151 41175 41157 41103 41061 41052 41045 41058 41096 41143 41184 41163 41028 40941 41027 41096 41116 41125 41162 41206 41199 41159 41095 41065 41060 41082 41152 41207 41243 41203 41076 41047 41129 41173 41180 41204 41231 41270 41270 41225 41129 41116 41151 41162 41171 41222 41242 41209 41054 40996 41087 41145 41161 41194 41252 41274 41254 41178 41108 41131 41138 41191 41249 41291 41300 41255 41134 41158 41251 41293 41275 41291 41339 41352 41332 41272 41239 41244 41275 41325 41347 41383 41410 41304 41149 41112 41203 41279 41279 41255 41281 41323 41288 41236 41148 41137 41136 41173 41193 41203 41184 41128 40894 40773 40802 40878 40915 40954 40974 40973 40951 40868 40839 40826 40815 40832 40854 40870 40855 40779 40631 40572 40647 40755 40794 40800 40810 40777 40733 40658 40549 40540 40533 40539 40565 40571 40561 40529 40378 40254 40261 40351 40379 40393 40423 40449 40442 40383 40328 40360 40360 40333 40375 40417 40425 40417 40315 40173 40215 40271 40345 40338 40374 40428 40419 40349 40274 40221 40216 40237 40271 40325 40350 40364 40212 40088 40102 40165 40215 40272 40309 40349 40356 40330 40246 40148 40215 40227 40241 40280 40339 40341 40159 39939 39970 40060 40137 40122 40131 40168 40211 40161 40062 40098 40149 40153 40141 40181 40224 40237 40115 39922 39854 39951 40038 40072 40101 40152 40168 40140 40060 39961 39979 40042 40031 40020 40024 40046 40048 39898 39922 39993 40023 40032 40058 40112 40148 40146 40125 40052 40014 40017 40020 40046 40062 40073 40072 39959 39796 39829 39894 39945 39978 39983 39982 39944 39922 39812 39712 39586 39591 39682 39780 39804 39823 39788 39692 39655 39659 39681 39747 39805 39872 39912 39895 39880 39810 39754 39729 39729 39716 39736 39725 39635 39405 39235 39220 39295 39354 39385 39283 39016 38963 38947 38892 38694 38618 38644 38766 38848 38954 39002 38939 38659 38619 38747 38849 38863 38904 38980 39036 39088 39221 39226 39205 39263 39394 39526 39588 39661 39686 39583 39595 39670 39665 39576 39577 39600 39621 39616 39564 39488 39500 39494 39482 39519 39550 39601 39477 39176 39138 39214 39275 39270 39310 39367 39431 39456 39418 39337 39401 39468 39471 39495 39479 39485 39409 39285 39339 39419 39485 39534 39590 39652 39695 39719 39737 39731 39722 39710 39718 39744 39751 39737 39714 39674 39681 39711 39707 39741 39719 39689 39683 39664 39644 39598 39587 39572 39572 39550 39562 39551 39424 39291 39355 39377 39492 39542 39598 39632 39679 39730 39764 39716 39657 39682 39721 39725 39753 39751 39675 39476 39413 39604 39696 39759 39914 39976 39981 39990 40030 40048 40036 40032 40112 40230 40320 40344 40278 40221 40204 40257 40251 40287 40296 40292 40317 40278 40201 40119 40073 40112 40122 40199 40254 40239 40197 39954 39772 39889 39975 40032 40130 40208 40211 40159 40110 40023 39986 39995 40006 40071 40153 40197 40097 39884 39849 39957 40056 40101 40144 40129 40113 40057 40031 40006 40001 39998 39955 39953 39998 39990 39840 39661 39663 39777 39881 39913 39897 39927 39927 39870 39799 39689 39666 39661 39627 39676 39739 39737 39677 39527 39568 39635 39666 39720 39759 39771 39783 39810 39761 39681 39628 39576 39548 39544 39557 39531 39429 39325 39336 39361 39343 39331 39358 39414 39442 39429 39337 39150 39018 38937 38931 38968 38934 38829 38689 38478 38372 38444 38480 38565 38656 38727 38775 38777 38676 38441 38422 38470 38430 38401 38405 38425 38318 38188 38023 38100 38216 38330 38394 38516 38534 38552 38512 38497 38498 38539 38599 38621 38633 38562 38488 38435 38377 38431 38632 38767 38820 38887 38950 38993 38990 39008 39001 38993 38975 38980 38971 38939 38935 38938 38839 38873 38939 38951 38969 38971 39018 39091 39160 39181 39149 39047 39039 39047 39088 39131 39174 39211 39195 39206 39238 39273 39296 39325 39406 39440 39482 39458 39462 39419 39382 39373 39364 39403 39419 39410 39363 39334 39419 39478 39497 39521 39677 39702 39710 39629 39612 39637 39722 39790 39845 39905 39894 39861 39815 39729 39826 39905 39887 39851 39864 39880 39924 39961 39930 39908 39854 39857 39888 39898 39884 39876 39838 39777 39806 39892 39912 39924 39953 39928 39967 39958 39873 39870 39887 39875 39898 39896 39906 39867 39804 39761 39752 39770 39832 39885 39882 39958 40125 40306 40553 40543 40527 40555 40596 40613 40657 40684 40497 40395 40386 40362 40357 40412 40430 40514 40582 40584 40471 40537 40801 41021 41153 41240 41241 41301 41290 41126 41194 41222 41374 41601 41688 41657 41616 41545 41480 41461 41431 41423 41379 41382 41434 41447 41513 41496 41413 41429 41438 41403 41342 41294 41252 41205 41180 41161 41163 41122 41081 41059 41067 41076 41077 41112 41149 41096 41055 41024 41002 40993 40992 41000 40973 40911 40831 40799 40776 40778 40778 40769 40751 40715 40683 40650 40628 40622 40636 40644 40673 40613 40568 40528 40476 40416 40418 40419 40344 40335 40334 40273 40244 40187 40223 40243 40243 40287 40280 40232 40217 40217 40229 40209 40190 40176 40147 40084 40055 40068 40064 40019 40047 40083 39989 39955 39986 40039 40026 39996 39958 39914 39876 39866 39944 40037 40090 40165 40167 40148 40228 40221 40212 40240 40287 40355 40397 40414 40399 40399 40381 40370 40375 40346 40344 40354 40331 40304 40347 40392 40449 40510 40541 40523 40533 40332 40302 40389 40472 40547 40611 40707 40765 40771 40781 40829 40908 41026 41077 41128 41146 41121 41151 41191 41190 41184 41208 41245 41274 41280 41282 41211 41213 41311 41353 41369 41393 41424 41389 41381 41451 41440 41387 41385 41402 41367 41323 41362 41401 41378 41367 41322 41355 41372 41401 41446 41471 41452 41471 41492 41421 41335 41299 41259 41212 41246 41291 41340 41411 41410 41406 41437 41445 41441 41478 41466 41482 41454 41418 41310 41273 41220 41183 41184 41264 41273 41041 41023 41009 41070 41146 41190 41219 41179 41155 41157 41085 41028 41030 41020 40962 40950 40988 40998 40932 40919 40965 41037 41035 41062 41093 41052 41000 40984 40992 40956 40933 40914 40816 40717 40759 40778 40740 40763 40764 40839 40836 40847 40845 40854 40849 40857 40867 40825 40745 40704 40652 40641 40660 40671 40586 40546 40577 40622 40665 40696 40733 40786 40808 40787 40624 40539 40522 40514 40503 40519 40573 40562 40371 40311 40285 40333 40423 40531 40574 40590 40583 40524 40226 39979 39878 39966 40048 40139 40191 40167 40184 40103 40177 40274 40317 40408 40442 40417 40416 40406 40377 40341 40371 40386 40338 40306 40317 40324 40330 40305 40219 40281 40329 40389 40414 40460 40494 40444 40276 40057 40048 40109 40131 40170 40254 40311 40265 40186 40065 40163 40242 40284 40319 40383 40454 40481 40409 40325 40217 40235 40244 40253 40278 40311 40255 40190 40087 40139 40221 40285 40375 40398 40413 40455 40436 40420 40423 40413 40370 40326 40350 40416 40425 40305 40297 40429 40487 40539 40592 40601 40574 40572 40586 40583 40565 40588 40562 40524 40490 40496 40510 40425 40309 40296 40436 40472 40506 40552 40556 40594 40633 40615 40486 40461 40490 40519 40493 40537 40553 40424 40185 39880 39894 40055 40031 40128 40250 40295 40265 40193 40078 39999 40022 40022 40022 40065 40191 40167 39998 39849 40007 40094 40241 40327 40438 40498 40461 40435 40376 40374 40417 40441 40445 40461 40479 40380 40334 40292 40339 40400 40452 40476 40460 40427 40433 40401 40221 40172 40331 40387 40360 40357 40326 40225 40098 39851 39830 39965 40027 40039 40091 40131 40124 40219 40089 39830 39990 40112 40169 40221 40339 40214 40024 39811 39828 39954 40033 40074 40141 40191 40178 40203 40166 40160 40187 40204 40184 40170 40196 40222 40208 40092 40105 40209 40201 40207 40257 40279 40246 40241 40231 40199 40173 40203 40272 40292 40245 40232 40245 40117 40062 39848 39941 40091 40137 40171 40220 40248 40246 40270 40129 40208 40419 40723 40844 40896 40936 40948 40921 40979 41002 41052 41087 41115 41090 41095 41111 41122 41076 41014 40908 40795 40671 40470 40357 40449 40477 40393 40416 40412 40262 40223 40287 40408 40475 40433 40432 40491 40553 40613 40674 40790 40910 40948 40915 40917 40911 40888 40899 40894 40889 40865 40834 40831 40839 40863 40849 40819 40749 40677 40685 40744 40734 40702 40759 40775 40808 40769 40750 40744 40734 40757 40774 40764 40683 40646 40631 40610 40600 40649 40673 40653 40589 40501 40571 40596 40604 40624 40635 40643 40669 40628 40594 40589 40599 40638 40623 40564 40533 40498 40302 40278 40358 40476 40566 40721 40849 40937 40971 40931 40873 40887 40956 41091 41123 41094 41068 41035 40942 40857 40914 40950 40970 40966 40942 41023 41076 41031 40990 40995 40997 40945 40997 40973 41013 41033 40990 41018 41126 41139 41196 41219 41240 41265 41300 41340 41368 41464 41576 41686 41747 41821 41844 41832 41785 41767 41708 41668 41624 41633 41656 41666 41632 41584 41450 41429 41434 41484 41559 41624 41653 41596 41464 41364 41358 41346 41371 41407 41441 41417 41397 41317 41198 41104 41090 41109 41163 41207 41219 41209 41124 41005 40967 40978 40955 40942 40936 40903 40809 40766 40704 40672 40655 40642 40636 40601 40577 40563 40526 40425 40415 40417 40439 40444 40435 40487 40499 40535 40454 40227 40170 40240 40369 40425 40390 40346 40256 40118 40046 40094 40077 40107 40179 40297 40337 40296 40190 39967 39932 39966 40034 40003 39919 39866 39720 39542 39524 39581 39644 39687 39805 39838 39803 39717 39589 39579 39559 39590 39630 39608 39560 39573 39536 39538 39546 39585 39606 39615 39561 39577 39548 39548 39522 39469 39399 39367 39314 39296 39344 39348 39336 39375 39409 39474 39473 39450 39472 39540 39634 39689 39679 39612 39601 39588 39549 39493 39427 39460 39458 39358 39252 39398 39446 39495 39598 39699 39765 39758 39709 39639 39627 39656 39674 39708 39795 39911 40057 40196 40213 40211 40195 40244 40334 40472 40595 40647 40681 40626 40518 40520 40571 40632 40628 40665 40695 40707 40732 40727 40682 40694 40769 40724 40749 40738 40699 40679 40626 40579 40503 40400 40344 40322 40323 40276 40254 40269 40221 40170 40175 40180 40175 40189 40161 40059 39986 39950 39932 39856 39813 39801 39804 39793 39739 39716 39791 39782 39780 39821 39867 39887 39847 39809 39675 39573 39531 39481 39439 39425 39392 39340 39319 39409 39439 39524 39551 39593 39610 39598 39599 39590 39507 39449 39443 39457 39419 39307 39190 39159 38825 38613 38369 38442 38498 38471 38475 38523 38643 38808 38856 38810 38773 38765 38789 38821 38835 38660 38599 38616 38713 38996 39191 39262 39380 39472 39565 39559 39486 39399 39286 39298 39349 39437 39491 39529 39535 39440 39415 39416 39417 39433 39447 39463 39448 39406 39379 39369 39398 39340 39313 39325 39240 39211 39188 39163 39251 39264 39308 39297 39267 39247 39259 39233 39218 39194 39173 39080 38907 38788 38734 38712 38732 38773 38836 38849 38827 38862 38900 38924 38963 38976 38980 38959 38905 38750 38414 38146 38310 38522 38512 38409 38291 38201 38257 38368 38495 38628 38647 38695 38708 38738 38704 38700 38704 38696 38694 38724 38759 38748 38717 38699 38714 38732 38751 38774 38790 38817 38841 38870 38877 38828 38816 38792 38805 38808 38796 38806 38832 38855 38819 38774 38825 38839 38836 38895 38952 39017 39022 39003 38936 38821 38822 38834 38821 38824 38810 38784 38666 38575 38664 38723 38770 38847 38936 38969 38959 38848 38664 38545 38535 38503 38459 38491 38453 38328 38169 38096 38188 38303 38401 38486 38510 38520 38536 38472 38264 38177 38249 38301 38313 38317 38311 38251 38111 38075 38155 38326 38391 38484 38525 38546 38509 38339 38002 37978 38035 38031 38015 38069 38144 37993 37717 37493 37628 37792 37890 37961 38073 38135 38178 38166 38070 38008 37994 37962 37964 38040 38061 37999 37895 37762 37870 38003 38103 38236 38327 38367 38346 38266 38099 38127 38145 38128 38157 38216 38224 38218 38288 38287 38364 38429 38515 38575 38630 38630 38618 38560 38485 38538 38593 38642 38611 38580 38564 38551 38452 38202 38389 38549 38617 38637 38679 38720 38772 38799 38809 38798 38741 38675 38600 38635 38703 38740 38830 38812 38889 38920 38976 39067 39136 39209 39295 39341 39203 39115 39156 39196 39129 39086 39095 39115 39118 39020 39106 39204 39247 39318 39379 39414 39426 39387 39302 39283 39378 39421 39392 39371 39391 39409 39391 39465 39567 39636 39678 39728 39750 39759 39738 39732 39734 39750 39690 39685 39707 39707 39693 39680 39650 39606 39561 39592 39619 39639 39684 39702 39730 39749 39749 39658 39598 39561 39490 39475 39501 39564 39567 39523 39430 39495 39534 39584 39649 39713 39724 39683 39589 39425 39337 39340 39327 39331 39322 39334 39180 39048 38999 39108 39175 39229 39306 39334 39300 39251 39162 38995 38910 38838 38799 38749 38764 38782 38723 38623 38527 38601 38662 38708 38712 38740 38799 38829 38725 38496 38429 38356 38205 38186 38241 38285 38299 38257 38317 38507 38584 38608 38638 38704 38799 38825 38753 38621 38622 38630 38583 38518 38611 38668 38582 38427 38369 38525 38602 38705 38784 38886 38885 38855 38606 38401 38429 38452 38462 38453 38499 38564 38348 38051 38069 38311 38424 38515 38653 38744 38797 38792 38657 38434 38452 38576 38548 38494 38460 38427 38212 37932 37781 38052 38233 38380 38477 38558 38640 38650 38579 38259 38213 38338 38344 38275 38292 38354 38223 38095 38075 38336 38491 38573 38660 38746 38829 38806 38730 38620 38626 38621 38587 38566 38663 38731 38687 38600 38556 38682 38752 38828 38898 38972 39022 39027 38846 38644 38621 38679 38734 38753 38801 38836 38684 38502 38476 38619 38721 38836 38941 38998 39030 39009 38935 38731 38618 38606 38602 38556 38561 38539 38299 38093 38192 38433 38577 38685 38754 38775 38810 38822 38622 38354 38401 38550 38522 38438 38413 38456 38493 38489 38375 38564 38699 38742 38783 38817 38861 38888 38901 38904 38842 38825 38806 38763 38771 38832 38824 38707 38575 38656 38700 38733 38776 38852 38899 38892 38752 38639 38634 38620 38616 38580 38587 38581 38557 38468 38350 38435 38487 38514 38562 38594 38515 38430 38365 38293 38233 38228 38242 38196 38172 38163 38202 38160 38063 38045 38193 38264 38288 38302 38371 38410 38436 38414 38311 38242 38227 38182 38080 38070 38237 38322 38248 38011 37893 37993 38075 38132 38192 38279 38312 38208 38044 37827 37681 37580 37564 37637 37753 37738 37505 37196 37008 37262 37422 37538 37627 37716 37735 37711 37662 37594 37589 37657 37718 37745 37752 37783 37759 37796 37784 37882 37950 38027 38058 38054 38071 38089 38130 38038 37898 37879 37884 37890 37913 37990 38109 38121 38145 38106 38146 38146 38196 38258 38300 38321 38296 38236 38142 38083 38060 38018 38022 38074 38146 38049 37913 37799 37867 37985 38084 38178 38274 38283 38222 38140 38033 37935 37948 37962 37960 37951 37948 37919 37820 37519 37536 37739 37997 38124 38226 38287 38352 38348 38244 38261 38336 38355 38290 38266 38281 38256 38226 38240 38404 38520 38553 38546 38580 38656 38695 38695 38581 38494 38421 38355 38243 38242 38328 38443 38497 38393 38444 38442 38463 38522 38595 38664 38692 38628 38533 38444 38435 38528 38618 38607 38655 38612 38544 38466 38492 38567 38596 38639 38711 38735 38673 38621 38481 38333 38364 38442 38508 38474 38450 38416 38389 38222 38172 38323 38439 38548 38602 38609 38621 38613 38489 38357 38370 38342 38254 38222 38261 38326 38401 38353 38143 37739 38129 38245 38335 38384 38400 38446 38435 38339 38204 38128 38060 38047 38102 38179 38274 38272 38230 38252 38242 38265 38342 38409 38439 38356 38224 38057 37937 37904 37903 37912 37958 37977 37916 37851 37829 37902 37976 38062 38164 38177 38137 38062 37930 37919 37946 38008 38052 38016 37977 37954 37949 37941 37989 38108 38174 38191 38237 38267 38256 38297 38281 38222 38264 38333 38286 38285 38320 38352 38362 38405 38407 38469 38485 38509 38574 38666 38782 38770 38655 38580 38703 38920 39198 39294 39408 39386 39291 39074 38974 38966 38974 39009 39037 39065 39166 39137 39017 38936 38915 39072 39152 39107 39063 39028 38954 38933 38994 39079 39105 39148 39198 39176 39142 39133 39162 39189 39199 39222 39176 39074 39029 39082 39143 39168 39234 39275 39295 39272 39245 39258 39281 39358 39376 39300 39229 39154 39095 39024 39040 39155 39262 39383 39395 39376 39356 39396 39473 39509 39532 39555 39508 39299 39174 39091 39021 39024 39112 39214 39142 38978 39015 39085 39166 39280 39360 39389 39336 39270 39105 39033 39097 39190 39218 39191 39156 39031 38955 38945 39037 39068 39116 39156 39210 39190 39122 39099 39034 38912 38901 38901 38779 38693 38666 38657 38592 38570 38833 38964 39039 39054 39101 39153 39206 39146 38888 38788 38814 38773 38605 38662 38800 38826 38741 38669 38723 38750 38786 38869 38969 39047 39065 39019 38808 38354 38298 38370 38423 38506 38600 38602 38307 38185 38316 38612 38716 38791 38826 38862 39034 39047 38867 38788 38855 38881 38875 38917 38932 38986 38860 38767 38984 39182 39264 39404 39480 39589 39682 39683 39490 39467 39520 39467 39401 39440 39504 39564 39477 39556 39804 39902 39933 39961 40024 40075 40180 40226 40132 39994 39975 39948 39858 39876 39957 40048 40004 39789 39876 40009 40085 40184 40244 40269 40350 40426 40270 40065 40038 40054 40023 40001 40016 39993 39901 39613 39736 39931 40060 40210 40347 40444 40412 40363 40238 40048 39986 39968 39906 39856 39823 39779 39685 39715 39994 40214 40350 40416 40515 40576 40643 40721 40598 40490 40471 40377 40195 40028 39989 40008 39914 39868 39884 40051 40149 40240 40226 40301 40385 40442 40354 40128 39926 39811 39714 39643 39654 39697 39560 39422 39406 39511 39617 39728 39788 39834 39891 39856 39695 39296 39205 39184 39142 39107 39121 39121 39028 38670 38738 38973 39090 39178 39257 39232 39176 39119 39076 38865 38884 38943 38917 38914 38994 38985 38981 38916 38863 38866 38873 38897 38880 38897 38941 38986 38936 38807 38784 38694 38605 38649 38695 38773 38826 38841 38833 38866 38811 38767 38741 38763 38798 38798 38762 38627 38468 38397 38357 38322 38259 38142 38022 37912 37825 37800 37913 38203 38327 38464 38614 38636 38605 38325 38189 38428 38635 38704 38662 38654 38648 38399 38223 38531 38793 38947 39026 39065 39063 39037 39045 38931 38800 38765 38739 38719 38792 38812 38765 38606 38623 38785 38895 38941 39061 39232 39334 39413 39402 39326 39159 39107 39094 39049 39007 39023 39071 39063 38922 38736 38770 38853 38917 38983 39118 39170 39146 39053 38921 38840 38817 38792 38807 38891 38890 38841 38686 38602 38713 38814 38967 39087 39101 39095 39010 38834 38621 38583 38555 38513 38518 38526 38548 38486 38373 38277 38468 38645 38762 38809 38849 38884 38920 38815 38615 38545 38494 38427 38403 38494 38579 38564 38462 38364 38486 38553 38662 38745 38876 38930 38972 38928 38663 38448 38385 38356 38324 38422 38571 38607 38444 38296 38380 38486 38553 38636 38734 38762 38734 38555 38345 38235 38213 38193 38158 38195 38241 38221 38172 38065 38068 38245 38396 38519 38600 38584 38567 38546 38445 38241 38169 38105 37993 37990 38060 38162 38167 38008 38179 38349 38447 38496 38563 38628 38663 38674 38560 38387 38316 38305 38284 38324 38417 38549 38555 38438 38404 38472 38537 38648 38742 38819 38879 38870 38718 38442 38338 38321 38325 38350 38434 38523 38387 38178 38289 38438 38558 38654 38809 38911 38923 38847 38536 38372 38401 38464 38495 38549 38619 38622 38482 38217 38312 38526 38667 38810 38896 38869 38835 38796 38582 38518 38546 38609 38590 38613 38671 38733 38645 38433 38501 38645 38699 38764 38830 38859 38962 38946 38718 38602 38484 38366 38207 38142 38244 38343 38487 38452 38360 38420 38464 38565 38664 38754 38838 38874 38770 38412 38231 38238 38246 38292 38487 38608 38310 38099 38220 38341 38463 38615 38735 38834 38826 38724 38553 38375 38376 38432 38440 38424 38355 38191 37924 37798 37804 38042 38211 38391 38455 38433 38383 38389 38090 37822 37968 38101 38013 37923 37935 37945 37711 37647 37861 38035 38130 38200 38263 38311 38378 38343 38055 37879 37790 37772 37782 37865 38039 38164 38236 38112 37706 37839 37893 37976 38069 38173 38249 38239 37989 37549 37505 37557 37610 37630 37713 37852 37734 37367 37072 37220 37428 37605 37810 37940 37903 37825 37717 37383 37190 37251 37317 37285 37219 37200 37200 37105 37062 37076 37278 37483 37585 37584 37615 37609 37385 37111 37123 37240 37244 37267 37333 37375 37263 36903 36597 36817 37095 37297 37401 37507 37632 37705 37715 37333 37075 37036 37055 37097 37225 37372 37450 37270 37056 37252 37386 37526 37701 37866 37966 37959 37773 37319 37105 37153 37272 37381 37496 37505 37405 37177 37048 37197 37368 37543 37690 37784 37765 37746 37629 37402 37379 37453 37547 37559 37553 37581 37562 37331 37175 37471 37694 37851 37916 37947 37963 38040 38010 37773 37643 37573 37553 37522 37591 37673 37652 37478 37349 37527 37682 37812 37953 38062 38162 38211 37987 37736 37668 37779 37881 37874 37907 37987 37801 37499 37526 37785 38000 38183 38339 38504 38539 38493 38320 38066 38032 38147 38208 38262 38311 38246 38093 37847 37832 38192 38449 38683 38893 38892 38825 38738 38627 38411 38396 38467 38492 38486 38540 38595 38520 38301 38446 38701 38841 38914 38994 39063 39076 39071 39040 38873 38707 38622 38560 38609 38740 38867 38782 38568 38476 38652 38760 38887 39031 39130 39215 39226 38970 38718 38590 38565 38513 38567 38660 38676 38587 38374 38350 38499 38579 38505 38538 38473 38311 38041 37865 37803 37760 37837 38053 38093 38059 38028 37979 37903 37956 38018 38203 38273 38306 38332 38471 38495 38570 38578 38562 38538 38557 38628 38696 38714 38746 38767 38821 38755 38789 38831 38854 38941 39068 39060 39045 38969 38934 38949 39202 39502 39726 39710 39597 39389 39250 39243 39306 39341 39480 39631 39725 39652 39655 39608 39538 39489 39594 39668 39689 39656 39456 39330 39267 39269 39254 39313 39338 39231 39190 39116 39025 38952 38851 38755 38816 38820 38750 38675 38615 38584 38548 38735 38696 38687 38760 38856 38946 38985 38934 38857 38723 38572 38654 38809 38814 38722 38445 38029 37991 38033 38059 38174 38245 38375 38380 38410 38284 38019 37723 37692 37734 37680 37550 37477 37257 37064 37100 37246 37367 37556 37759 37916 37882 37842 37751 37643 37448 37407 37347 37252 37222 37166 37049 37098 37289 37478 37697 37849 37985 37969 37833 37738 37579 37417 37415 37467 37428 37457 37621 37778 37870 37854 37817 37792 37783 37784 37851 38001 38179 38341 38426 38408 38319 38198 38149 38191 38290 38417 38512 38484 38325 38174 38174 38291 38446 38598 38769 38832 38749 38535 38358 38178 38035 38004 38081 38125 38078 37984 37969 37864 37901 37969 38132 38266 38296 38374 38464 38471 38416 38351 38286 38180 38105 38092 38190 38293 38407 38452 38471 38483 38486 38551 38641 38800 38930 38996 39007 38924 38713 38596 38590 38694 38808 38935 39024 38963 38836 38760 38770 38779 38845 38889 38975 38983 38776 38573 38447 38421 38437 38531 38623 38596 38478 38425 38463 38527 38599 38688 38771 38767 38705 38649 38602 38490 38430 38408 38314 38154 37983 37961 37824 37787 37832 37970 38069 38008 37943 38089 38232 38242 38304 38371 38382 38293 38340 38450 38599 38820 38886 38801 38800 38838 38812 38784 38873 39022 39132 39204 39187 39034 38885 38839 38881 39019 39123 39208 39183 38984 38958 38972 39071 39187 39313 39468 39549 39463 39319 39239 39199 39174 39181 39238 39305 39245 39102 38984 39020 39038 39136 39232 39334 39318 39216 39143 39159 39109 39053 38972 38957 38926 38921 38930 39004 39038 38941 39043 39163 39165 39158 39178 39213 39213 39244 39221 39009 38733 38606 38660 38701 38769 38855 38820 38716 38609 38608 38600 38725 38891 38991 39032 38978 38782 38430 38194 38220 38311 38375 38455 38469 38280 38129 38080 38161 38306 38477 38660 38681 38554 38407 38260 38052 37821 37644 37603 37542 37498 37418 37492 37280 37145 37234 37502 37709 37789 37761 37830 37889 37940 37929 37802 37561 37391 37346 37385 37525 37650 37757 37800 37625 37559 37561 37624 37764 37888 37936 37938 37782 37548 37396 37366 37444 37549 37618 37691 37663 37470 37394 37494 37632 37809 37978 38140 38194 38101 38057 38046 37965 37920 37998 38059 38050 37962 37915 37894 37927 37996 38209 38343 38403 38395 38400 38422 38528 38570 38451 38346 38320 38341 38387 38495 38585 38679 38673 38737 38712 38678 38745 38887 39026 39120 39212 39214 38963 38686 38628 38630 38673 38865 38993 39069 38933 38945 38925 38973 39101 39262 39408 39528 39484 39332 39130 38959 39067 39235 39358 39434 39381 39254 39138 39052 39116 39289 39409 39518 39503 39449 39393 39379 39296 39178 39113 39224 39250 39263 39249 39259 39168 39247 39325 39438 39531 39524 39492 39523 39592 39655 39701 39587 39294 39202 39233 39260 39321 39384 39376 39282 39090 39027 38995 38997 39057 39157 39236 39186 39022 38734 38546 38554 38630 38701 38770 38761 38583 38426 38296 38389 38464 38563 38691 38719 38559 38365 38292 38218 38105 38041 38020 37951 37884 37848 37894 37907 37975 38005 38067 38075 38042 38010 38033 38100 38141 38073 37975 37760 37687 37725 37813 37903 38003 38054 38006 37836 37654 37706 37853 38022 38155 38263 38256 38015 37736 37570 37588 37730 37841 37936 37996 37924 37714 37554 37675 37828 37995 38209 38392 38362 38232 38082 37876 37801 37888 38002 38096 38070 38044 37975 37967 38020 38138 38260 38374 38397 38359 38359 38427 38383 38328 38348 38381 38382 38380 38401 38465 38466 38508 38571 38678 38691 38724 38808 38913 38994 39055 38970 38822 38653 38652 38757 38840 38916 39019 39033 38883 38688 38726 38832 38943 39091 39276 39402 39381 39246 39034 38873 38919 39068 39194 39299 39256 39126 38979 38923 38951 39089 39212 39353 39373 39272 39212 39270 39342 39122 39029 39152 39183 39147 39166 39191 39158 38975 38969 39150 39180 39170 39229 39376 39465 39532 39537 39320 38993 38785 38794 38838 38866 38970 39055 39009 38761 38594 38753 38950 39134 39287 39418 39394 39175 38829 38646 38605 38633 38677 38762 38723 38472 38249 38063 38086 38327 38519 38660 38659 38557 38463 38446 38282 38119 38046 38031 37948 37847 37864 37916 37937 37933 37989 38096 38134 38109 38175 38300 38384 38439 38300 38106 37915 37863 37893 37981 38063 38086 38093 38002 37840 37826 37906 38057 38233 38382 38464 38338 38050 37813 37770 37890 38033 38123 38231 38130 37880 37846 37913 38051 38181 38339 38503 38492 38380 38257 38064 37944 38021 38149 38229 38169 38073 37999 37942 38055 38212 38396 38532 38644 38690 38709 38761 38744 38635 38605 38680 38639 38627 38673 38797 38843 38846 38864 38913 38896 38933 39041 39191 39308 39373 39441 39251 38924 38937 39061 39178 39257 39369 39422 39301 39086 39076 39215 39331 39485 39677 39827 39804 39661 39502 39266 39225 39315 39417 39511 39520 39470 39354 39256 39321 39500 39648 39800 39868 39899 39922 39938 39942 39794 39736 39824 39788 39753 39772 39887 39961 39922 39808 39782 39863 39897 40017 40146 40243 40308 40318 40105 39730 39615 39649 39723 39818 39901 39939 39813 39497 39295 39421 39558 39699 39879 40053 40005 39809 39582 39326 39067 39032 39106 39203 39135 39011 38958 38877 38839 38847 38993 39108 39154 39100 39065 39094 39140 39091 38867 38750 38694 38637 38639 38700 38757 38798 38801 38723 38695 38674 38741 38884 39051 39131 39163 38973 38593 38395 38389 38442 38492 38555 38597 38460 38212 38009 37973 38033 38116 38231 38437 38550 38502 38422 38445 38502 38567 38672 38828 38940 38911 38824 38745 38714 38800 38920 39086 39155 39095 39059 39037 39038 39027 38975 38930 38880 38863 38878 38937 39022 39036 39004 39037 39006 39029 39110 39283 39421 39562 39665 39697 39564 39391 39256 39267 39333 39435 39514 39491 39354 39197 39131 39192 39337 39444 39534 39561 39425 39286 39284 39276 39254 39246 39304 39265 39156 39036 39002 39026 39051 39108 39254 39387 39345 39298 39341 39391 39381 39349 39368 39286 39145 39064 39067 39134 39184 39273 39318 39288 39221 39221 39323 39435 39528 39580 39599 39404 39146 39003 39041 39086 39208 39362 39451 39372 39227 39149 39192 39320 39449 39577 39639 39495 39297 39053 38831 38740 38783 38909 39003 38975 38804 38682 38718 38841 39003 39134 39262 39262 39168 39083 39081 38983 38848 38802 38788 38702 38607 38584 38572 38577 38591 38627 38697 38654 38615 38690 38822 38902 38900 38789 38546 38295 38202 38282 38414 38580 38679 38717 38612 38429 38394 38466 38584 38745 38955 39069 38975 38713 38373 38162 38150 38232 38397 38516 38453 38221 38043 37956 38030 38207 38356 38529 38634 38566 38505 38476 38436 38433 38328 38243 38146 38172 38232 38290 38393 38536 38596 38715 38707 38615 38667 38712 38720 38650 38533 38443 38298 38246 38423 38816 39368 39717 39747 39692 39694 39704 39750 39778 39858 39968 40116 40114 39818 39494 39089 38860 39026 39188 39285 39321 39240 39042 38958 39023 39263 39471 39594 39738 39751 39678 39580 39552 39480 39456 39510 39668 39654 39548 39468 39301 39335 39436 39491 39605 39712 39657 39614 39709 39661 39622 39559 39472 39401 39345 39330 39417 39472 39478 39464 39512 39567 39555 39618 39712 39790 39889 39872 39770 39517 39326 39251 39276 39352 39480 39541 39539 39322 39147 39117 39126 39187 39257 39297 39316 39172 38819 38549 38542 38591 38715 38826 38937 38834 38601 38475 38500 38649 38839 38995 39120 39015 38865 38711 38596 38452 38379 38407 38514 38416 38269 38146 38082 38156 38195 38259 38332 38309 38259 38250 38305 38407 38374 38313 38304 38245 38216 38246 38353 38477 38569 38555 38509 38398 38236 38155 38253 38379 38519 38543 38441 38286 38212 38153 38226 38350 38440 38520 38544 38397 38233 38185 38189 38257 38393 38537 38664 38591 38285 38077 38110 38185 38276 38388 38512 38443 38254 38093 38113 38268 38300 38388 38558 38563 38464 38346 38209 38140 38150 38257 38350 38359 38302 38261 38293 38366 38496 38614 38729 38917 38950 38941 38963 38972 38881 38847 38856 38871 38881 38989 39043 39060 39071 39081 39267 39339 39416 39526 39632 39750 39807 39733 39593 39407 39374 39394 39439 39554 39667 39670 39673 39613 39575 39555 39596 39754 39896 40061 40073 39815 39559 39423 39461 39651 39742 39792 39771 39630 39330 39235 39392 39521 39790 40086 40283 40224 40047 39821 39574 39396 39460 39533 39595 39487 39406 39346 39286 39202 39335 39462 39574 39563 39535 39532 39612 39604 39453 39379 39416 39330 39264 39268 39299 39400 39446 39406 39400 39346 39352 39428 39536 39618 39646 39592 39196 38850 38734 38759 38862 38979 39086 39138 39041 38834 38640 38670 38753 38883 39032 39209 39157 38911 38600 38460 38392 38390 38425 38475 38373 38229 38080 37961 37909 38121 38306 38442 38422 38380 38323 38374 38402 38334 38326 38360 38286 38269 38350 38454 38504 38533 38552 38586 38589 38586 38659 38771 38895 38997 38996 38748 38579 38565 38656 38766 38890 39007 39020 38878 38643 38729 38894 39033 39202 39383 39518 39472 39334 39057 38832 38930 39086 39246 39373 39376 39262 39109 39040 39030 39215 39398 39561 39657 39572 39506 39434 39299 39199 39347 39463 39467 39414 39438 39459 39425 39391 39516 39728 39821 39855 39878 39910 39968 39875 39768 39705 39646 39627 39721 39843 39933 39944 39862 39488 39558 39617 39765 39956 40110 40180 40234 39991 39411 39215 39253 39382 39517 39660 39806 39736 39551 39316 39366 39594 39772 39943 40146 40091 39848 39661 39327 39297 39366 39470 39518 39436 39337 39245 38961 38956 39269 39525 39662 39689 39653 39590 39574 39588 39606 39528 39310 39108 39028 39170 39335 39418 39409 39419 39331 39205 39173 39251 39420 39560 39645 39658 39297 38783 38711 38867 39014 39159 39292 39357 39046 38671 38830 39008 39163 39356 39575 39603 39463 39266 39022 38670 38767 39057 39287 39322 39209 39123 39028 39004 39147 39325 39504 39644 39622 39566 39586 39561 39431 39271 39216 39262 39311 39351 39448 39561 39630 39580 39472 39460 39540 39666 39805 39915 39959 39952 39613 39204 39278 39419 39566 39684 39817 39902 39856 39629 39580 39611 39731 39879 40045 40140 40076 39891 39660 39534 39537 39631 39710 39774 39717 39626 39484 39416 39567 39851 40166 40394 40495 40406 40361 40296 40222 40109 40092 40160 40196 40186 40161 40139 40062 40034 40161 40345 40434 40496 40594 40705 40749 40723 40517 40151 40040 40110 40231 40345 40452 40455 40355 40169 40137 40198 40278 40452 40644 40737 40721 40475 40124 39891 39905 40029 40126 40218 40183 39975 39709 39534 39649 39902 40060 40248 40243 40081 39947 39914 39714 39553 39667 39824 39782 39694 39689 39725 39686 39616 39554 39700 39840 39865 39927 40004 40049 40083 39991 39681 39454 39436 39504 39608 39689 39736 39692 39319 38914 39041 39238 39378 39540 39687 39767 39640 39310 38968 38885 38983 39091 39212 39288 39230 39013 38856 38783 39024 39197 39371 39524 39503 39419 39372 39249 38892 38945 39079 39052 38992 39054 39159 39207 39015 38950 39248 39393 39480 39610 39687 39810 39864 39762 39479 39269 39237 39302 39375 39513 39661 39718 39507 39203 39208 39446 39592 39739 39833 39914 39846 39680 39389 39314 39367 39443 39598 39699 39692 39531 39364 39274 39482 39766 40017 40237 40281 40188 40105 40091 39896 39718 39804 39837 39775 39766 39883 39951 39908 39924 40112 40216 40265 40272 40331 40410 40480 40471 40271 40046 39988 40017 40106 40261 40377 40451 40350 40116 40002 40114 40237 40409 40594 40682 40621 40396 40098 39731 39772 39952 40095 40205 40199 40021 39791 39602 39725 39926 40070 40214 40239 40128 40052 40039 39914 39717 39780 39850 39814 39749 39751 39825 39818 39679 39573 39712 39734 39731 39842 39947 39990 40012 39895 39541 39384 39368 39415 39473 39540 39619 39629 39439 39192 39306 39421 39610 39840 40002 39945 39688 39257 38830 38904 39032 39145 39264 39268 39047 38799 38616 38796 39049 39289 39415 39449 39300 39121 39016 38837 38685 38742 38812 38796 38646 38615 38635 38617 38521 38451 38682 38729 38727 38776 38887 38946 39012 38991 38741 38488 38437 38577 38716 38836 38942 38956 38790 38607 38553 38755 38918 39132 39351 39460 39322 39068 38808 38700 38806 38956 39061 39069 39001 38891 38745 38705 38890 39131 39365 39526 39541 39471 39406 39430 39318 39177 39248 39331 39318 39370 39430 39392 39461 39423 39425 39566 39646 39744 39862 39949 40026 40061 39901 39510 39518 39714 39860 40005 40078 40146 40081 39793 39602 39759 39903 40073 40271 40409 40311 40116 39823 39526 39618 39799 39938 40039 39997 39840 39687 39689 39729 39962 40159 40358 40465 40452 40398 40318 40250 40219 40143 40147 40121 40008 40031 40073 40121 40095 40048 40053 39984 39959 40053 40177 40265 40287 40191 39909 39642 39621 39712 39837 39927 39975 39972 39800 39533 39485 39592 39727 39877 40042 40028 39813 39527 39185 39064 39104 39220 39351 39362 39239 39041 38907 38891 38977 39145 39277 39342 39261 39164 39105 39059 38966 38887 38888 38823 38767 38757 38868 38923 38878 38809 38885 38902 38909 38986 39146 39223 39262 39212 38967 38638 38418 38504 38664 38828 38941 39013 38881 38607 38449 38545 38687 38837 39036 39184 39075 38854 38628 38426 38341 38407 38478 38567 38549 38465 38362 38290 38383 38519 38673 38827 38799 38742 38711 38764 38753 38634 38622 38655 38604 38529 38558 38652 38784 38765 38790 38860 38834 38905 39050 39176 39238 39272 39200 38937 38711 38655 38727 38784 38887 39034 39049 38831 38618 38757 38912 39017 39187 39365 39444 39334 39177 38994 38897 38961 39071 39198 39219 39170 39090 39005 38938 39031 39221 39367 39479 39490 39432 39416 39417 39361 39256 39317 39373 39342 39325 39376 39463 39430 39398 39474 39514 39513 39615 39807 39962 40015 40034 39868 39520 39334 39367 39454 39602 39713 39791 39665 39398 39299 39434 39541 39701 39902 40038 40025 39822 39629 39415 39303 39367 39483 39563 39538 39465 39411 39414 39298 39358 39507 39638 39600 39526 39537 39618 39684 39632 39464 39382 39276 39203 39227 39310 39395 39410 39327 39203 39199 39239 39356 39567 39726 39806 39800 39581 39093 38771 38721 38844 38958 39082 39143 38977 38677 38462 38614 38729 38814 38952 39092 39007 38845 38733 38546 38378 38391 38479 38476 38356 38255 38274 38203 38098 38161 38359 38491 38478 38489 38533 38591 38669 38602 38266 38012 37948 37996 38116 38238 38357 38339 38240 38025 38060 38132 38288 38506 38715 38839 38814 38504 38116 37974 38061 38174 38283 38414 38410 38224 37980 37846 38017 38210 38377 38586 38638 38485 38351 38283 38218 38209 38300 38412 38457 38382 38338 38348 38336 38344 38435 38595 38639 38600 38607 38665 38718 38819 38774 38542 38311 38293 38339 38462 38591 38651 38604 38359 38270 38439 38582 38721 38851 38979 39047 38918 38674 38326 38320 38473 38641 38778 38910 38810 38600 38323 38455 38738 38878 39026 39166 39110 38963 38900 38672 38572 38801 38996 39105 39000 38896 38886 38793 38715 38891 39120 39282 39310 39368 39451 39519 39538 39461 39252 39076 39031 39124 39227 39358 39455 39470 39284 39091 39154 39269 39410 39592 39722 39838 39790 39557 39108 38937 39095 39278 39427 39513 39442 39299 39262 39064 39164 39407 39641 39852 39859 39717 39624 39587 39458 39387 39465 39547 39473 39417 39447 39496 39504 39452 39526 39700 39714 39744 39826 39929 40015 39949 39768 39463 39328 39318 39391 39490 39571 39611 39528 39182 39033 39174 39313 39478 39694 39796 39778 39519 39069 38843 38848 38979 39111 39196 39182 39017 38828 38705 38698 38907 39081 39258 39309 39154 38982 38953 38836 38669 38665 38752 38712 38635 38628 38642 38642 38549 38548 38680 38717 38733 38820 38963 39075 39131 39111 38727 38330 38290 38374 38517 38705 38822 38948 38742 38174 37859 38095 38298 38460 38632 38755 38676 38473 38299 37964 37887 38011 38170 38334 38371 38287 38196 38094 38030 38257 38416 38614 38668 38596 38549 38579 38574 38351 38243 38170 38054 38070 38194 38384 38524 38605 38543 38512 38518 38560 38607 38767 38920 38984 38904 38463 38272 38299 38384 38529 38663 38781 38848 38714 38554 38610 38802 38981 39198 39383 39317 39113 38966 38876 38810 38784 38905 39001 39012 38889 38750 38690 38694 38801 38921 39068 39215 39255 39204 39199 39134 38960 38903 38914 38850 38805 38879 39025 39124 39150 39052 39138 39198 39163 39211 39327 39450 39553 39598 39322 38826 38791 38953 39118 39219 39335 39439 39349 38990 38550 38575 38817 39023 39251 39389 39320 39144 39043 38715 38565 38656 38851 38908 38804 38743 38782 38788 38659 38518 38723 38852 38833 38841 38905 39012 39127 39193 38945 38524 38364 38490 38680 38821 38934 39014 39020 38829 38574 38640 38764 38885 39043 39160 39216 39132 38934 38783 38791 38837 38999 39096 39088 38959 38796 38673 38729 38977 39190 39195 39152 38945 38795 38788 38811 38813 38761 38650 38532 38455 38498 38571 38660 38700 38782 38789 38767 38750 38796 38916 39076 39218 39281 39243 38975 38695 38621 38744 38925 39087 39198 39115 38820 38654 38662 38755 38859 38994 39145 39099 38920 38886 38897 38808 38681 38783 38899 38927 38907 38940 38984 38956 39027 39179 39255 39146 39073 39130 39246 39356 39359 39159 38939 38809 38844 38991 39188 39323 39341 39304 39142 39099 39107 39176 39350 39547 39669 39677 39483 39102 38859 38948 39109 39248 39421 39508 39334 39052 38882 39024 39227 39389 39562 39622 39486 39372 39361 39284 39175 39199 39331 39350 39316 39342 39407 39407 39459 39538 39665 39706 39650 39687 39765 39892 39931 39992 39659 39298 39207 39330 39526 39752 39915 39927 39852 39546 39350 39328 39474 39655 39853 40022 39946 39727 39460 39288 39301 39392 39494 39576 39518 39341 39218 39250 39259 39304 39418 39533 39448 39345 39290 39335 39332 39257 39186 39113 39011 39006 39082 39165 39171 39169 39099 38980 38977 39005 39104 39297 39472 39540 39476 39061 38569 38438 38565 38710 38845 38973 38934 38550 38156 37907 38189 38456 38646 38854 38826 38601 38419 38173 37890 38006 38188 38308 38194 37995 37980 38045 37979 37766 38061 38396 38516 38626 38802 38892 38936 38924 38730 38335 38199 38189 38230 38354 38467 38480 38470 38276 38126 38179 38300 38495 38775 38958 38876 38564 38151 37770 37809 38020 38182 38335 38342 38167 37948 37652 37661 37935 38239 38432 38530 38434 38284 38309 38323 38108 38057 38143 38091 38015 38098 38238 38359 38288 38168 38188 38202 38211 38307 38447 38552 38584 38578 38267 37992 37893 37918 38061 38268 38512 38566 38417 38297 38290 38374 38457 38585 38706 38830 38644 38469 38355 38169 38016 38022 38114 38091 38071 38108 38127 38089 38003 38240 38515 38689 38725 38763 38793 38812 38822 38742 38609 38518 38514 38547 38652 38800 38863 38867 38570 38574 38635 38712 38895 39119 39222 39236 39062 38689 38470 38510 38655 38795 38891 38936 38778 38537 38229 38335 38615 38799 38988 39114 39020 38856 38794 38676 38338 38385 38565 38598 38520 38536 38683 38823 38732 38414 38691 38826 38789 38802 38883 38989 39026 39047 38811 38447 38360 38469 38655 38838 38963 39000 38800 38374 38321 38476 38670 38882 39052 39128 38911 38605 38216 38012 38082 38215 38333 38363 38210 38058 37959 37654 37516 37854 38160 38333 38336 38201 38199 38192 37971 37632 37708 37788 37809 37831 37865 37895 37790 37520 37457 37635 37774 37989 38187 38273 38282 38290 37862 37417 37472 37666 37866 38047 38239 38254 37803 37554 37739 37934 38160 38414 38606 38612 38418 38027 37569 37648 37907 38116 38226 38146 37972 37730 37387 37507 37903 38131 38351 38315 38191 38216 38357 38404 38115 37954 38069 38082 38114 38168 38297 38391 38365 38267 38380 38399 38424 38533 38663 38792 38908 38887 38333 37958 38079 38278 38443 38581 38684 38599 38315 38077 38051 38297 38494 38658 38784 38766 38647 38516 38228 38033 38054 38171 38217 38325 38361 38408 38465 38421 38501 38668 38735 38660 38572 38593 38714 38797 38705 38549 38360 38353 38447 38590 38700 38789 38786 38737 38544 38505 38608 38722 38882 39025 39140 39060 38702 38434 38395 38493 38580 38689 38785 38676 38454 38242 38155 38327 38530 38730 38786 38693 38543 38543 38528 38341 38237 38309 38295 38257 38248 38311 38343 38412 38295 38426 38477 38397 38372 38583 38746 38835 38849 38441 38095 38123 38250 38382 38528 38630 38678 38507 38043 37808 37968 38197 38364 38505 38499 38243 37934 37741 37722 37760 37886 38066 38141 37989 37827 37761 37808 37840 37948 38109 38126 38056 38016 38060 38102 38065 37868 37814 37729 37656 37731 37851 37960 38018 38018 37832 37789 37866 37966 38183 38388 38524 38516 38302 37910 37701 37769 37903 38046 38147 38119 37922 37749 37608 37751 37916 38054 38216 38298 38210 38083 38018 37823 37736 37872 38017 38046 37990 38007 38032 38046 37907 38116 38269 38259 38204 38222 38277 38390 38473 38422 37893 37738 37928 38157 38372 38536 38610 38570 38281 38085 38200 38312 38444 38572 38674 38682 38563 38417 38150 38120 38250 38346 38412 38363 38145 37897 37607 37371 37353 37663 37971 38079 38078 38120 38156 38192 38119 37873 37779 37798 37932 38109 38271 38389 38446 38383 38170 38274 38368 38451 38598 38782 38894 38872 38614 38186 38066 38214 38365 38509 38640 38574 38303 38100 37877 38028 38311 38504 38616 38592 38458 38398 38414 38325 38214 38226 38209 38102 38003 38036 38094 38151 38129 38126 38177 38231 38237 38363 38521 38662 38703 38648 38311 38062 38038 38082 38110 38205 38342 38280 38000 37507 37409 37801 38077 38308 38478 38348 38122 37955 37455 37219 37467 37724 37877 37759 37587 37527 37372 37155 37185 37543 37750 37787 37757 37777 37873 38005 37884 37410 37110 37185 37302 37413 37534 37629 37602 37327 36961 37022 37206 37381 37586 37785 37869 37737 37452 36979 36736 36843 37076 37240 37320 37205 37053 36865 36672 36520 36668 36945 37187 37241 37235 37285 37400 37420 37203 37225 37240 37268 37352 37460 37641 37722 37796 37676 37365 37460 37649 37864 38073 38232 38309 38248 37833 37379 37362 37621 37821 37986 38080 37983 37711 37467 37337 37526 37837 38051 38161 38088 37957 37928 37998 37675 37496 37723 37846 37783 37720 37739 37784 37823 37747 37726 37744 37778 37810 37870 38006 38070 38134 38066 37684 37552 37654 37832 37972 38086 38179 38150 37928 37598 37546 37832 38043 38191 38312 38302 38134 38087 37937 37642 37781 37972 38062 37978 37890 37889 37938 37879 37784 37929 38195 38221 38203 38272 38381 38477 38529 38160 37901 37934 38024 38173 38312 38437 38502 38424 38026 37853 38024 38191 38279 38391 38483 38460 38290 38000 37592 37756 38005 38113 38200 38163 37979 37780 37572 37522 37799 38011 38147 38189 38117 38075 38140 38195 37846 37531 37704 37781 37814 37839 37923 38005 38008 37920 37878 37923 37971 38161 38373 38540 38644 38714 38542 38036 37834 38016 38202 38335 38478 38585 38397 38095 37854 37857 38000 38062 38162 38282 38187 38034 37960 37889 37806 37827 37877 37907 37799 37710 37704 37702 37772 37802 37911 38081 38086 38107 38187 38258 38323 38343 38149 37832 37742 37788 37924 38053 38160 38195 38164 37880 37795 37907 37984 38097 38247 38409 38458 38293 37938 37765 37855 37970 38088 38216 38227 38089 37923 37794 37768 38027 38249 38388 38476 38387 38313 38328 38226 38109 38101 38056 37912 37841 37917 38082 38195 38260 38260 38227 38175 38129 38129 38197 38326 38415 38489 38333 38008 37745 37719 37903 38073 38265 38398 38252 38009 37769 37836 37990 38139 38297 38421 38327 38198 38053 37893 37735 37823 37938 37977 37869 37695 37511 37504 37385 37444 37696 37894 37951 37946 37966 38032 38041 37691 37579 37678 37727 37782 37869 37986 38083 38064 37981 37975 38018 38081 38189 38344 38409 38472 38350 37849 37515 37632 37779 37875 37983 38113 38036 37750 37357 37364 37684 37869 38019 38166 38026 37871 37771 37659 37471 37527 37710 37780 37688 37638 37627 37640 37609 37696 37852 37961 37933 37879 37927 38013 38120 38076 37835 37719 37712 37739 37844 37969 38087 38076 37907 37780 37852 37913 38048 38161 38291 38414 38376 38039 37709 37724 37841 37939 37960 38016 37898 37703 37521 37524 37765 37980 38103 38196 38133 38004 38028 38097 37825 37722 37994 38088 37969 37838 37845 37999 38023 37835 37971 38057 37983 37991 38131 38261 38381 38298 37973 37827 37827 37891 37980 38068 38142 38195 38007 37909 37939 37990 38124 38415 38754 38909 38822 38445 38016 37987 38106 38228 38377 38476 38338 38093 37879 37785 37937 38159 38320 38344 38171 38005 37986 38038 37833 37621 37633 37675 37624 37653 37706 37762 37803 37861 38003 38074 37974 37942 38003 38124 38241 38315 38133 37812 37772 37828 37862 37903 38001 38104 38053 37841 37824 37878 37980 38117 38281 38416 38331 38088 37814 37671 37794 37893 38005 38044 37955 37855 37814 37641 37841 38011 38074 38189 38192 38056 38038 38092 37940 37893 38056 38097 38039 38026 38098 38262 38453 38456 38469 38487 38420 38362 38384 38417 38465 38473 38263 37940 37879 37943 38099 38248 38306 38328 38142 37830 37723 37900 38120 38307 38451 38504 38319 38106 37813 37502 37452 37678 37880 38015 37908 37813 37793 37819 37694 37751 37944 38047 37968 37898 37936 38010 38015 37825 37691 37618 37580 37657 37748 37901 38019 38042 37840 37679 37732 37869 38015 38125 38214 38244 38039 37605 37274 37313 37473 37606 37759 37857 37775 37566 37326 37289 37527 37697 37752 37840 37804 37681 37629 37581 37362 37323 37488 37493 37442 37479 37521 37525 37412 37426 37601 37624 37555 37542 37687 37797 37881 37845 37544 37338 37314 37437 37598 37768 37791 37838 37760 37496 37513 37662 37795 37937 38139 38194 38040 37828 37610 37430 37558 37726 37800 37803 37664 37550 37447 37414 37531 37754 37982 38084 38064 38059 38115 38201 38101 37669 37629 37770 37843 37910 37982 38090 38181 38022 37863 38015 38145 38312 38519 38679 38748 38722 38390 37957 37767 37901 38071 38246 38402 38447 38199 37872 37815 38029 38242 38381 38541 38581 38415 38305 38253 38142 38120 38256 38338 38346 38305 38218 38158 38112 38120 38290 38385 38370 38331 38365 38414 38455 38431 38303 38223 38175 38199 38297 38361 38396 38352 38230 38114 38081 38217 38426 38718 38926 39010 38949 38588 38315 38198 38207 38285 38473 38662 38646 38385 38214 38191 38281 38462 38520 38699 38668 38546 38472 38451 38475 38513 38598 38677 38599 38589 38639 38725 38755 38769 38858 38894 38831 38807 38944 39124 39212 39223 39192 39024 38838 38840 38988 39131 39257 39300 39223 38975 38848 38873 38939 39066 39199 39344 39337 39082 38934 38937 39015 39130 39262 39394 39353 39126 38940 38876 38869 38883 38915 38968 38943 38852 38712 38571 38422 38296 38223 38219 38148 38094 38032 38063 38094 38118 38153 38245 38241 38234 38357 38534 38703 38572 38390 38210 38002 38032 38262 38529 38625 38679 38588 38343 38060 37994 38001 38071 38204 38366 38319 38169 37990 37831 37771 37751 37780 37868 37860 37724 37506 37355 37301 37359 37467 37549 37515 37414 37384 37279 37163 36984 36888 36864 36820 36817 36883 36954 36969 36857 36912 36933 36891 36910 36996 37155 37263 37286 37157 36803 36587 36506 36592 36723 36872 37010 37077 36915 36795 36710 36719 36865 37064 37274 37361 37177 36881 36553 36408 36455 36599 36732 36698 36543 36414 36271 36375 36620 36785 36961 37056 37017 36984 37035 37017 36858 36684 36627 36549 36586 36687 36876 37042 37016 37055 37154 37054 37017 37142 37317 37467 37614 37656 37440 36973 36813 36949 37167 37376 37607 37773 37656 37388 37326 37409 37554 37729 37949 38093 37969 37779 37607 37519 37512 37506 37622 37711 37678 37608 37558 37566 37263 37388 37633 37745 37730 37762 37764 37815 37815 37696 37455 37353 37302 37341 37494 37695 37842 37840 37616 37755 37840 37900 38025 38248 38364 38507 38422 38190 37921 37779 37786 37946 38089 38231 38231 38082 37919 38043 38273 38343 38404 38603 38673 38629 38577 38603 38553 38475 38446 38471 38428 38427 38454 38508 38599 38569 38727 38932 38953 38835 38902 39109 39250 39305 39319 39136 38847 38743 38782 38916 39072 39271 39340 38966 38656 38609 38672 38647 38787 39014 39085 38931 38712 38495 38324 38197 38132 38148 38153 38073 38015 37990 37908 37519 37610 38046 38279 38242 38264 38320 38375 38317 38135 38023 37804 37706 37725 37890 38033 38047 38002 37839 37567 37530 37656 37876 38083 38215 38247 38088 37757 37474 37311 37289 37375 37549 37743 37775 37610 37378 37276 37365 37511 37728 37954 38049 37861 37745 37688 37582 37457 37432 37465 37391 37380 37446 37544 37572 37533 37551 37698 37749 37764 37793 37874 37986 38167 38168 37856 37597 37550 37623 37748 37889 38043 38131 37949 37667 37671 37786 37970 38105 38236 38221 38022 37782 37592 37542 37632 37749 37839 37859 37746 37643 37504 37479 37655 37864 38057 38194 38172 38114 38160 38155 37959 37823 37812 37732 37759 37941 38138 38227 38241 38322 38317 38250 38244 38335 38432 38496 38587 38692 38534 38223 38119 38169 38260 38331 38439 38500 38343 38038 37979 38132 38220 38367 38545 38620 38493 38382 38344 38191 38154 38243 38342 38375 38325 38262 38254 38228 38169 38281 38407 38435 38452 38507 38643 38754 38752 38609 38401 38204 38191 38232 38403 38571 38626 38606 38271 38170 38266 38484 38727 38996 39190 39263 39088 38795 38390 38290 38327 38424 38486 38469 38330 38204 38112 38075 38266 38425 38554 38622 38579 38578 38611 38574 38523 38460 38374 38227 38152 38238 38398 38463 38489 38417 38427 38543 38492 38533 38673 38827 38886 38826 38565 38213 37983 37952 38004 38138 38290 38387 38186 37753 37753 37932 38164 38365 38592 38689 38545 38348 38239 38147 38092 38122 38198 38184 38070 37956 37903 37829 37860 38004 38096 38056 38025 38111 38206 38269 38219 38119 37990 37863 37818 37869 37999 38078 38044 37976 37578 37707 37910 38163 38335 38518 38637 38634 38371 38011 37840 37908 38096 38233 38367 38329 38002 37766 37728 37900 38057 38225 38430 38554 38447 38369 38292 38213 38141 38202 38315 38239 38115 38157 38231 38296 38235 38246 38325 38284 38346 38477 38595 38688 38718 38609 38324 38098 38054 38094 38183 38274 38310 38322 38122 38049 38175 38330 38468 38616 38785 38817 38658 38430 38259 38206 38228 38279 38417 38446 38325 38299 38300 38277 38380 38462 38506 38429 38302 38245 38264 38217 38065 37993 37963 37903 37930 38080 38305 38492 38599 38687 38699 38661 38754 38882 39061 39164 39267 39127 38897 38813 38786 38797 38851 38931 39058 39049 38791 38635 38625 38716 38860 39053 39244 39202 39028 38917 38769 38668 38672 38728 38768 38708 38629 38602 38561 38401 38476 38625 38693 38688 38727 38804 38890 38961 38867 38699 38481 38382 38433 38574 38746 38845 38855 38786 38582 38538 38602 38756 38909 39057 39142 38989 38580 38213 38119 38199 38347 38472 38562 38399 38136 37860 37905 38100 38269 38407 38559 38505 38323 38207 38046 37910 37931 38035 38014 37908 37906 37948 37961 37867 37924 38125 38163 38125 38189 38302 38386 38433 38282 37953 37704 37686 37821 37990 38179 38343 38380 38112 37876 37895 37985 38136 38365 38528 38568 38422 38083 37680 37621 37724 37856 38039 38078 37950 37792 37678 37719 37858 38006 38160 38198 38108 38101 38179 38218 38122 38080 38098 38011 37955 38035 38156 38256 38282 38223 38211 38195 38179 38293 38464 38590 38658 38648 38313 38017 38033 38152 38272 38415 38519 38402 38186 38013 38152 38348 38508 38684 38847 38783 38618 38564 38415 38292 38324 38385 38452 38431 38420 38427 38436 38654 38633 38701 38716 38598 38661 38750 38851 38984 38962 38602 38334 38348 38448 38733 38994 39042 38873 38406 38388 38510 38674 38885 39071 39188 39203 39061 38807 38380 38163 38223 38342 38482 38552 38543 38414 37928 37756 38082 38410 38653 38714 38629 38624 38706 38766 38719 38608 38608 38577 38571 38690 38849 38948 38970 39002 38796 38790 38807 38769 38975 39171 39194 39130 38729 38167 37959 38179 38379 38498 38589 38442 38157 37879 37713 37809 37971 38141 38385 38404 38279 38208 38241 38037 37843 37842 37840 37752 37754 37835 37895 37755 37551 37630 37716 37741 37790 37912 38020 38195 38252 37668 37020 36908 37097 37351 37589 37729 37807 37638 37485 37342 37420 37576 37732 37945 38057 37927 37703 37571 37397 37325 37412 37519 37469 37342 37265 37136 36943 37091 37355 37569 37610 37592 37621 37747 37836 37586 37190 36920 36826 36893 37037 37226 37410 37480 37362 37236 37321 37450 37616 37850 38032 38107 38059 37719 37313 37119 37176 37279 37485 37667 37663 37454 37322 37333 37557 37715 37913 38082 38046 37963 37979 38014 37746 37615 37759 37781 37771 37783 37823 37794 37695 37640 37809 37921 37888 37942 38033 38086 38032 37864 37623 37431 37498 37667 37855 38035 38133 38087 37956 37908 38005 38135 38333 38542 38723 38746 38552 38275 38061 38069 38170 38268 38323 38280 38153 38018 37945 38099 38323 38504 38662 38645 38572 38557 38671 38628 38451 38409 38410 38409 38414 38493 38595 38629 38619 38471 38419 38442 38555 38737 38897 39015 39094 38947 38510 38198 38220 38376 38515 38677 38858 38799 38531 38307 38258 38380 38540 38730 38854 38804 38637 38543 38165 37879 37991 38141 38162 38102 38111 38131 38134 38022 38009 38123 38113 38108 38144 38233 38351 38366 38162 37852 37692 37689 37763 37904 38065 38160 38165 37813 37546 37641 37821 38035 38238 38362 38252 37945 37515 37243 37261 37381 37520 37659 37634 37385 37241 37002 37214 37448 37622 37811 37805 37666 37663 37653 37467 37416 37522 37499 37424 37397 37498 37574 37573 37572 37609 37644 37665 37839 38045 38156 38221 38257 37937 37521 37440 37562 37694 37792 37898 37914 37610 37183 37069 37131 37437 37622 37908 37941 37777 37625 37451 37386 37433 37545 37672 37639 37601 37568 37592 37623 37653 37739 37869 37862 37852 37965 38062 38127 38166 38034 37695 37496 37485 37589 37746 37921 38019 38007 37753 37641 37668 37778 37948 38161 38334 38323 38154 37888 37736 37726 37783 37886 38015 38006 37941 37885 37881 37836 37801 38070 38177 38183 38154 38192 38253 38347 38215 38010 37960 37914 37968 38104 38234 38268 38247 38083 37955 38013 38130 38324 38517 38651 38670 38439 38083 37862 37787 37800 37922 38086 38140 37960 37799 37690 37740 37924 38123 38272 38338 38284 38174 38199 38250 38116 38030 38047 38027 38043 38102 38195 38239 38240 38127 37900 37910 37919 37990 38121 38202 38266 38237 38080 37724 37599 37691 37828 37995 38154 38116 37888 37657 37480 37663 37908 38043 38199 38340 38264 38169 38151 37912 37702 37767 37768 37725 37778 37870 37956 37982 37981 38055 37956 37804 37799 37926 38055 38185 38284 38212 37858 37632 37674 37790 37939 38115 38200 38073 37736 37417 37532 37711 37865 38021 38082 37939 37745 37585 37408 37259 37227 37276 37348 37391 37518 37689 37795 37819 37876 37921 37894 37924 37960 38102 38244 38358 38306 38152 37979 37907 37967 38119 38282 38366 38369 38146 37826 37713 37778 37872 37945 38046 38051 37932 37829 37777 37732 37708 37671 37666 37562 37506 37506 37672 37719 37725 37806 37826 37810 37860 37950 38078 38194 38244 38148 37951 37797 37816 37932 38082 38184 38254 38273 38099 37941 37954 37995 38104 38305 38486 38454 38274 38172 38024 37954 37951 38019 38045 37956 37903 37911 37916 37941 38056 38190 38247 38218 38219 38269 38324 38375 38337 38165 37850 37729 37786 37933 38075 38179 38252 38137 37910 37792 37867 37965 38098 38242 38291 38141 37943 37768 37685 37677 37741 37856 37910 37802 37673 37595 37501 37627 37762 37862 37903 37899 37852 37889 37940 37782 37651 37528 37429 37415 37476 37652 37812 37859 37806 37724 37669 37693 37828 38010 38186 38284 38261 37986 37568 37300 37341 37505 37652 37749 37692 37508 37299 37139 37259 37502 37709 37832 37830 37779 37813 37891 37827 37618 37614 37620 37534 37484 37559 37678 37710 37679 37517 37517 37570 37684 37874 38052 38196 38225 38113 37718 37403 37402 37547 37687 37790 37892 37814 37542 37296 37380 37592 37849 37946 38123 38157 38029 37913 37743 37481 37353 37444 37447 37419 37418 37506 37552 37518 37556 37633 37637 37676 37766 37919 38044 38106 38110 37739 37414 37335 37440 37555 37718 37857 37923 37712 37329 37228 37398 37616 37802 38007 38017 37843 37692 37538 37254 37203 37337 37443 37380 37341 37353 37386 37415 37471 37623 37734 37749 37750 37791 37834 37881 37761 37488 37327 37286 37386 37548 37716 37835 37857 37678 37371 37466 37605 37717 37879 38046 38112 38005 37719 37518 37464 37537 37682 37840 37948 37837 37710 37636 37679 37805 37849 37989 38081 38037 37938 37942 37885 37867 37812 37776 37684 37641 37698 37816 37932 37991 37979 38009 37944 37949 38046 38148 38257 38366 38345 38054 37794 37732 37810 37921 38052 38135 38096 37918 37720 37684 37727 37913 38115 38240 38193 38044 37953 37859 37783 37838 37923 38057 38052 37967 37973 37950 37937 38095 38216 38298 38300 38283 38342 38343 38355 38248 37950 37697 37648 37772 37937 38087 38210 38185 37974 37752 37815 37932 38045 38178 38324 38392 38241 37882 37643 37566 37651 37737 37853 37932 37784 37620 37548 37594 37737 37833 37926 37981 37901 37808 37812 37827 37688 37619 37655 37579 37513 37554 37639 37683 37676 37685 37837 37766 37739 37818 37929 37997 38040 37944 37578 37323 37282 37365 37436 37529 37656 37640 37325 37090 37249 37419 37580 37744 37938 37890 37679 37478 37169 37105 37238 37405 37477 37414 37339 37331 37271 37272 37393 37555 37717 37764 37736 37746 37801 37826 37653 37446 37298 37253 37297 37398 37520 37584 37643 37487 37312 37306 37315 37459 37658 37859 37948 37838 37472 37133 37125 37254 37372 37495 37558 37439 37239 37128 37159 37331 37596 37830 37822 37655 37600 37651 37574 37432 37425 37468 37360 37323 37396 37468 37552 37514 37430 37495 37514 37525 37632 37718 37786 37868 37681 37198 37041 37133 37306 37462 37615 37707 37502 37081 36772 36991 37280 37484 37701 37904 37854 37693 37639 37444 37202 37226 37370 37395 37331 37337 37410 37437 37301 37193 37434 37479 37504 37630 37819 37938 38066 38083 37607 37260 37296 37490 37653 37832 37970 37989 37849 37494 37497 37713 37874 38031 38244 38322 38183 38093 37921 37808 37801 37887 37900 37757 37585 37511 37549 37548 37567 37747 37849 37832 37828 37918 37968 38059 37688 37612 37605 37623 37709 37803 37882 38018 38186 38231 37904 37860 37926 38051 38239 38408 38494 38394 38133 37629 37472 37646 37868 38042 38121 38011 37897 37838 37796 37665 37813 38023 38090 38108 38138 38194 38257 38281 38131 37864 37704 37706 37780 37911 38074 38228 38248 37903 37590 37658 37745 37923 38060 38188 38152 37955 37704 37420 37371 37494 37629 37742 37747 37629 37538 37433 37206 37381 37671 37829 37850 37843 37793 37756 37692 37593 37429 37145 37048 37119 37296 37450 37509 37453 37332 37252 37319 37446 37622 37807 37965 37987 37808 37473 37270 37213 37237 37345 37491 37621 37480 37334 37126 37163 37330 37514 37626 37627 37499 37443 37473 37466 37338 37253 37230 37154 37155 37209 37287 37391 37436 37642 37554 37436 37492 37609 37730 37848 37905 37770 37429 37205 37158 37248 37359 37495 37561 37438 37222 37122 37211 37344 37464 37629 37780 37699 37572 37493 37418 37326 37348 37468 37447 37372 37363 37365 37377 37355 37414 37540 37536 37521 37662 37784 37877 37929 37802 37529 37294 37283 37386 37521 37652 37720 37686 37465 37427 37476 37598 37742 37908 38028 37913 37711 37531 37341 37180 37202 37295 37342 37295 37299 37451 37445 37452 37501 37680 37815 37825 37774 37821 37917 37973 37870 37605 37373 37346 37481 37636 37771 37867 37877 37650 37460 37503 37666 37842 37984 38131 38077 37936 37771 37581 37536 37605 37730 37818 37759 37645 37629 37684 37697 37755 37929 37995 38050 38076 38073 38065 38070 37968 37808 37683 37652 37745 37890 38043 38121 38127 38085 37895 37986 38108 38289 38439 38536 38554 38332 38001 37797 37781 37870 37973 38110 38099 37907 37730 37568 37710 37902 38062 38230 38242 38145 38104 38146 38044 37851 37867 37911 37896 37944 38039 38186 38339 38281 38267 38318 38308 38388 38541 38683 38773 38823 38667 38276 38008 38094 38220 38361 38488 38537 38310 38047 37902 38005 38113 38231 38375 38377 38217 38177 38140 37985 37950 38040 38052 37970 37938 37991 38057 38053 37969 38083 38154 38111 38110 38194 38281 38393 38503 38241 37843 37730 37798 37953 38106 38231 38320 38183 37886 37831 37957 38150 38244 38357 38384 38190 37921 37667 37527 37497 37574 37680 37717 37625 37503 37468 37447 37522 37642 37753 37744 37709 37732 37796 37823 37705 37508 37320 37203 37218 37343 37524 37684 37770 37622 37391 37344 37465 37673 37879 38090 38117 37916 37598 37369 37219 37212 37273 37453 37586 37471 37317 37202 37199 37355 37521 37701 37868 37835 37756 37760 37757 37576 37351 37366 37307 37314 37465 37623 37721 37745 37633 37521 37477 37579 37707 37899 38036 38136 38105 37890 37572 37457 37573 37777 37963 38094 38037 37799 37628 37544 37626 37746 37844 37953 37876 37756 37752 37822 37781 37744 37799 37700 37590 37632 37717 37772 37809 37861 37906 37906 37934 38030 38160 38300 38354 38365 38049 37728 37655 37712 37800 37944 38074 38022 37813 37629 37648 37790 37926 38051 38228 38204 38016 37917 37841 37756 37743 37793 37824 37728 37655 37602 37616 37546 37689 37925 38094 38079 38137 38225 38262 38316 38294 38008 37673 37582 37602 37700 37872 37978 38058 37945 37647 37565 37728 37863 37978 38137 38193 38003 37752 37538 37445 37450 37490 37565 37574 37522 37478 37392 37413 37609 37696 37843 37804 37737 37749 37802 37796 37626 37562 37451 37401 37412 37517 37679 37781 37856 37647 37487 37525 37608 37744 37894 38053 38114 37973 37625 37477 37464 37565 37672 37789 37848 37682 37510 37378 37287 37462 37657 37834 37911 37817 37710 37694 37610 37361 37340 37378 37318 37348 37484 37593 37632 37607 37561 37559 37530 37567 37711 37885 38034 38173 38142 37649 37425 37438 37532 37655 37779 37868 37690 37430 37380 37472 37579 37611 37666 37707 37552 37457 37439 37365 37283 37272 37351 37314 37307 37351 37426 37489 37366 37270 37415 37544 37610 37761 37958 38039 38097 37944 37519 37247 37291 37418 37554 37731 37833 37613 37338 37344 37497 37654 37800 37970 38113 37991 37836 37666 37538 37534 37603 37680 37698 37641 37610 37603 37559 37531 37679 37812 37789 37777 37841 37920 38026 37988 37770 37600 37556 37563 37647 37881 38034 38149 38036 37885 37794 37902 38026 38227 38348 38349 38188 37813 37578 37685 37810 37943 38104 38122 37896 37661 37551 37754 37924 38105 38255 38251 38106 38046 38092 38016 37901 37956 37951 37881 37879 37973 38053 38024 37953 37968 37975 37983 38086 38282 38356 38433 38489 38334 37893 37779 37950 38113 38278 38451 38493 38150 37736 37626 37766 37948 38129 38308 38325 38183 38087 37998 37739 37666 37851 38003 37955 37956 38045 38076 37936 37733 37951 38167 38218 38200 38276 38350 38417 38323 37925 37644 37666 37776 37922 38109 38253 38266 37968 37664 37739 37892 38071 38222 38380 38329 38158 37991 37712 37615 37772 37891 37933 37807 37677 37615 37547 37649 37879 37980 38071 38034 38038 38074 38159 38133 37917 37681 37549 37557 37671 37849 38054 38183 38208 37962 37816 37884 38016 38207 38363 38449 38362 38085 37712 37604 37663 37800 37957 38143 38080 37829 37710 37703 37822 37944 38124 38253 38171 38072 38082 37995 37802 37707 37750 37711 37736 37866 37923 37946 37948 37966 38021 37968 37997 38132 38291 38376 38416 38055 37565 37575 37731 37873 38076 38230 38325 38156 37722 37411 37567 37817 37997 38211 38314 38154 37976 37844 37579 37532 37676 37847 37834 37812 37771 37819 37859 37844 37962 37924 37941 37998 38086 38165 38227 38216 37954 37484 37411 37441 37539 37717 37905 38027 37903 37522 37400 37528 37736 37926 38078 38211 38077 37851 37606 37411 37362 37449 37550 37627 37592 37539 37519 37417 37339 37555 37761 37813 37828 37849 37931 37985 37920 37665 37389 37315 37370 37488 37692 37811 37884 37759 37488 37488 37645 37793 37926 38099 38218 38043 37658 37326 37212 37232 37305 37324 37385 37338 37130 37076 37100 37364 37652 37859 37993 37983 37968 38022 37924 37769 37847 37868 37785 37771 37811 37924 37955 37903 37879 37828 37804 37808 37943 38141 38253 38303 38091 37647 37663 37748 37840 37904 37902 37966 37787 37527 37557 37319 37616 37875 38070 38137 38032 37973 38003 37868 37673 37667 37687 37624 37655 37769 37865 37830 37855 37918 38043 38074 38076 38204 38309 38358 38408 38225 37998 37933 37978 38076 38231 38395 38488 38358 38096 37931 38046 38212 38361 38524 38611 38430 38271 38193 38121 38094 38203 38313 38289 38236 38241 38246 38167 38101 38176 38310 38347 38304 38339 38403 38472 38427 38195 37842 37721 37700 37810 37982 38083 38218 38048 37746 37722 37843 37959 38091 38265 38344 38194 37957 37746 37627 37612 37646 37755 37758 37653 37603 37639 37573 37490 37573 37693 37639 37603 37646 37735 37807 37737 37584 37375 37295 37326 37426 37566 37682 37795 37678 37412 37296 37453 37592 37747 37902 37984 37842 37576 37353 37187 37192 37238 37384 37497 37409 37326 37284 37314 37441 37627 37771 37853 37811 37786 37833 37781 37678 37572 37451 37390 37434 37610 37739 37843 37983 37787 37641 37635 37750 37915 38099 38311 38601 38691 38471 38291 38082 38091 38233 38288 38355 38223 38075 38006 38226 38647 39128 39402 39575 39493 39349 39218 39014 38955 39059 39042 38887 38776 38751 38827 38842 38747 38692 38701 38649 38560 38579 38655 38696 38638 38431 38194 38100 38130 38260 38370 38462 38367 38082 37870 37871 37967 38056 38138 38243 38186 38079 38064 38047 38102 38059 37992 37921 37744 37730 37717 37668 37758 37815 37831 37920 38155 38410 38601 38721 38815 38946 38840 38597 38610 38712 38803 38826 38823 38800 38448 37993 37773 37780 37991 38175 38300 38284 38030 37854 37676 37595 37585 37622 37730 37722 37670 37643 37777 37634 37551 37658 37776 37756 37721 37701 37742 37777 37775 37249 36736 36570 36694 36902 37120 37273 37305 37056 36737 36745 36878 37011 37173 37341 37374 37142 36880 36636 36609 36697 36892 37066 37069 36976 36885 36816 36712 36819 36982 37019 36937 36935 37010 37075 37136 37086 36848 36587 36586 36728 36965 37218 37385 37407 37157 37065 37024 37022 37028 37184 37360 37374 37215 37084 37028 37027 37122 37228 37366 37382 37355 37274 37284 37324 37474 37596 37670 37640 37600 37608 37652 37762 37708 37559 37493 37544 37604 37685 37777 37892 37923 37835 37798 37848 37896 37949 38004 38083 38161 38184 38016 37849 37892 38030 38152 38251 38258 38192 38132 38102 38115 38206 38378 38439 38412 38327 38321 38387 38493 38503 38422 38363 38357 38385 38479 38597 38716 38771 38681 38528 38586 38685 38772 38840 38943 39012 38991 38774 38454 38324 38401 38512 38618 38698 38640 38530 38445 38497 38604 38701 38768 38814 38822 38815 38834 38838 38735 38704 38700 38665 38591 38660 38798 38925 38850 38731 38547 38480 38481 38586 38732 38861 38928 38782 38373 38063 37998 38090 38195 38262 38291 38152 37832 37535 37324 37535 37841 38040 38070 37990 37934 37928 37885 37585 37412 37320 37220 37204 37323 37447 37524 37557 37580 37433 37350 37406 37558 37746 37897 38015 37992 37508 36983 36837 36960 37190 37402 37563 37549 37291 36987 36901 37071 37293 37439 37443 37272 37150 37183 37180 37009 36909 37059 37118 37049 37077 37164 37284 37380 37255 37361 37413 37420 37454 37559 37709 37844 37748 37312 37158 37293 37491 37701 37877 37977 37866 37467 37052 37127 37455 37696 37860 38040 37957 37841 37735 37622 37557 37640 37800 37847 37671 37614 37676 37688 37573 37221 37414 37659 37715 37871 37994 38183 38427 38384 38125 37858 37883 37991 38109 38234 38399 38475 38312 38031 38029 38196 38371 38532 38722 38713 38551 38418 38310 38259 38290 38386 38380 38305 38312 38329 38277 38329 38371 38438 38469 38433 38428 38475 38520 38606 38629 38420 38264 38239 38270 38280 38422 38487 38437 38229 37910 37835 38105 38241 38320 38419 38368 38257 38237 38121 38061 38114 38247 38368 38331 38255 38198 38195 38268 38248 38403 38347 38255 38261 38251 38273 38366 38413 38003 37670 37689 37819 37964 38056 38156 38113 37799 37457 37531 37727 37838 37947 38046 37942 37750 37726 37634 37559 37534 37571 37698 37672 37620 37590 37501 37392 37426 37528 37607 37512 37418 37461 37532 37576 37571 37446 37192 37107 37174 37311 37455 37593 37649 37522 37280 37238 37269 37248 37322 37464 37507 37344 37130 36983 36938 36955 37003 37116 37151 37093 37100 37055 37028 37065 37222 37364 37297 37265 37329 37461 37571 37382 37165 37112 37191 37331 37483 37658 37771 37818 37622 37311 37372 37544 37696 37869 38005 38071 37944 37797 37499 37442 37563 37683 37808 37867 37797 37717 37659 37468 37495 37711 37923 37980 37891 37910 37982 38020 37755 37497 37382 37480 37618 37786 37965 38082 38118 37823 37596 37741 37937 38096 38216 38299 38372 38290 38086 37691 37643 37911 38148 38320 38394 38294 38161 38014 37765 37976 38213 38369 38372 38266 38257 38337 38436 38164 38072 38130 38159 38192 38274 38358 38414 38377 38207 38064 38117 38155 38211 38202 38293 38362 38217 37980 37845 37897 38003 38054 38100 38138 37982 37744 37594 37718 37879 37899 37939 37966 37909 37806 37853 37890 37792 37711 37666 37622 37643 37753 37889 37953 38001 37831 37635 37703 37746 37749 37856 37952 38029 38021 37745 37496 37441 37533 37678 37755 37802 37709 37594 37532 37370 37446 37648 37767 37845 37734 37586 37650 37657 37519 37517 37524 37487 37495 37610 37734 37760 37804 37604 37657 37651 37582 37599 37806 38015 38167 38192 37802 37539 37606 37734 37842 37994 38108 37974 37678 37497 37608 37790 37869 37961 38050 37881 37745 37736 37639 37580 37661 37777 37803 37771 37809 37844 37867 37790 37801 37902 37860 37867 37939 38022 38096 38195 38204 37936 37751 37824 37981 38145 38270 38352 38240 38033 37816 37907 38074 38156 38216 38317 38213 38120 38114 37994 37855 37922 38025 37977 37900 37930 37971 37982 38033 38159 38234 38208 38155 38210 38322 38366 38409 38382 38049 37876 37957 38080 38207 38317 38392 38327 38125 37777 37779 37942 38008 38122 38209 38094 37995 38005 37817 37630 37745 37936 37963 37867 37850 37893 37951 37768 37711 37913 37957 37856 37825 37910 38033 38156 37985 37556 37389 37468 37604 37740 37853 37956 37893 37637 37416 37443 37545 37535 37544 37601 37475 37323 37247 37230 37174 37193 37295 37344 37216 37131 37112 37128 37186 37251 37291 37272 37184 37196 37302 37387 37253 36971 36490 36166 36164 36337 36668 36812 36873 36837 36720 36791 37036 37248 37465 37617 37761 37737 37492 37301 37301 37365 37389 37499 37616 37502 37347 37343 37393 37449 37647 37895 37982 37955 37839 37884 37971 37961 37988 37899 37744 37648 37736 37942 38222 38363 38304 38141 38048 38111 38220 38271 38301 38398 38271 38034 37916 37845 37817 37837 37962 38055 37942 37793 37742 37762 37804 37865 37943 38028 37944 37976 38036 37994 37819 37660 37648 37592 37611 37711 37879 37953 37863 37721 37527 37427 37577 37651 37794 37890 38001 37873 37536 37336 37316 37445 37602 37719 37797 37686 37414 37246 37228 37336 37465 37543 37538 37473 37491 37604 37638 37631 37628 37567 37479 37528 37710 37865 38006 38079 38076 37926 37784 37796 37915 38067 38273 38401 38397 38070 37755 37598 37664 37786 37891 37959 37874 37716 37570 37365 37464 37684 37917 37965 37935 37891 37925 37990 37925 37698 37613 37587 37687 37849 37997 38047 38020 37883 37640 37542 37451 37384 37468 37706 37901 37974 37731 37381 37201 37272 37419 37526 37685 37737 37528 37326 37204 37218 37231 37387 37666 37790 37640 37563 37512 37324 37332 37467 37500 37567 37687 37761 37865 37933 37839 37799 37584 37453 37588 37779 38083 38307 38306 37928 37770 37747 37821 37857 37851 37933 38017 37847 37651 37540 37487 37517 37562 37594 37534 37459 37498 37558 37595 37606 37512 37346 37223 37211 37302 37430 37514 37573 37589 37394 37290 37320 37369 37444 37576 37683 37615 37376 37143 37025 36988 37062 37153 37264 37186 37070 37076 37057 37030 37198 37272 37281 37276 37365 37514 37601 37592 37492 37324 37101 37023 37092 37236 37372 37426 37370 37051 36929 36991 37103 37232 37435 37602 37589 37371 37148 36946 36908 36987 37081 37184 37157 37063 36936 36872 36840 36974 37119 37164 37147 37173 37264 37337 37411 37361 37289 37100 36999 37042 37146 37259 37369 37432 37319 37048 37050 37112 37181 37327 37506 37595 37475 37254 37027 36916 36920 37028 37130 37209 37185 37146 37209 37336 37064 37229 37449 37527 37578 37621 37700 37765 37802 37527 37069 36879 36931 37122 37302 37482 37586 37596 37391 37125 37162 37332 37449 37544 37722 37767 37692 37595 37511 37362 37289 37342 37373 37285 37229 37271 37301 37261 37394 37505 37454 37393 37434 37487 37567 37568 37468 37309 37103 37010 37019 37118 37209 37306 37366 37181 36880 36868 37089 37393 37622 37901 38087 37983 37759 37657 37647 37700 37747 37885 37925 37823 37663 37673 37615 37531 37512 37624 37738 37729 37803 37869 37876 37695 37575 37393 37235 37212 37377 37574 37658 37705 37697 37501 37421 37408 37439 37584 37773 37927 37899 37664 37379 37087 37051 37179 37313 37417 37274 37067 36909 36791 36863 37045 37193 37249 37168 37106 37157 37124 36942 36759 36720 36617 36574 36697 36893 37022 37077 36989 36925 36862 36881 36967 37111 37230 37306 37206 36787 36362 36249 36328 36469 36668 36850 36786 36555 36303 36390 36549 36711 36871 37012 36896 36711 36599 36514 36371 36315 36369 36357 36280 36321 36343 36378 36375 36417 36372 36296 36291 36395 36548 36694 36743 36636 36306 36106 36112 36263 36429 36594 36655 36479 36203 36200 36353 36468 36624 36810 36887 36698 36446 36252 36166 36146 36200 36316 36356 36258 36228 36240 36218 36304 36394 36445 36510 36542 36608 36701 36781 36718 36650 36473 36352 36418 36563 36685 36781 36901 36898 36706 36717 36798 36893 37063 37267 37400 37355 37118 36921 36807 36801 36916 37017 37116 37046 36919 36875 36860 37001 37166 37260 37303 37297 37256 37308 37346 37317 37254 37213 37169 37172 37285 37361 37466 37540 37617 37612 37574 37567 37595 37739 37884 37977 37991 37743 37493 37386 37467 37532 37627 37766 37857 37772 37654 37658 37800 37874 37965 38092 38165 38111 38043 37973 37917 37808 37775 37748 37707 37730 37770 37798 37830 37876 37948 37915 37853 37939 38071 38177 38243 38257 38032 37662 37496 37527 37632 37776 37913 37999 37884 37619 37556 37594 37673 37796 37922 37963 37785 37536 37347 37213 37139 37187 37317 37314 37211 37120 37111 37090 37099 37174 37264 37246 37198 37213 37286 37306 37252 37095 36819 36673 36699 36828 36992 37068 37116 37080 36861 36753 36707 36740 36915 37125 37260 37196 36942 36643 36496 36472 36571 36727 36854 36763 36610 36508 36497 36633 36723 36831 36923 36877 36833 36853 36914 36891 36767 36738 36676 36632 36669 36805 36877 36929 36927 36929 36909 36830 36904 37051 37210 37276 37274 36986 36644 36555 36665 36827 36980 37147 37211 37102 36879 36813 36920 37041 37139 37313 37413 37326 37310 37299 37209 37072 37108 37144 37131 37168 37248 37344 37432 37392 37409 37401 37385 37466 37579 37715 37813 37929 37894 37595 37387 37388 37502 37623 37757 37824 37762 37591 37540 37544 37624 37710 37847 38010 37945 37796 37724 37668 37579 37564 37601 37569 37483 37486 37545 37654 37647 37765 37811 37752 37653 37680 37752 37850 37949 37940 37717 37428 37352 37410 37536 37681 37810 37811 37600 37376 37367 37447 37558 37715 37800 37739 37550 37439 37340 37301 37273 37301 37348 37270 37181 37178 37250 37256 37260 37321 37379 37356 37352 37403 37482 37523 37462 37304 37064 36990 37049 37192 37353 37434 37476 37274 37077 37071 37110 37239 37386 37532 37591 37375 37158 36999 36907 36884 36950 37062 37047 36890 36834 36799 36849 36906 37012 37094 37063 37025 37036 37052 37037 36943 36878 36730 36681 36760 36892 37016 37106 37200 37104 36998 36998 37050 37171 37320 37411 37368 37094 36844 36713 36728 36810 36947 37087 37098 36937 36805 36798 36909 37001 37052 37141 37170 37104 37121 37149 37127 37091 37058 36949 36853 36891 37028 37142 37206 37141 37039 37012 37080 37206 37334 37475 37528 37544 37368 37107 36975 37008 37048 37107 37187 37278 37186 37011 36961 37040 37068 37105 37237 37307 37299 37318 37328 37347 37364 37448 37458 37413 37466 37623 37778 37898 37884 37858 37761 37657 37631 37731 37847 38038 38131 38032 37734 37544 37478 37490 37576 37730 37942 37951 37779 37560 37524 37624 37640 37710 37782 37744 37738 37804 37762 37720 37716 37697 37661 37632 37720 37848 37913 37901 37937 37850 37712 37744 37905 38098 38282 38409 38380 38076 37892 37850 37927 38093 38254 38404 38410 38218 37987 37908 37985 38101 38234 38379 38353 38211 38149 38129 38051 38043 38102 38028 37942 37953 38037 38122 38183 38183 38130 37964 37819 37852 37944 38042 38109 38117 37843 37535 37400 37418 37455 37530 37687 37763 37596 37405 37323 37340 37408 37466 37583 37565 37443 37420 37526 37501 37427 37361 37220 37060 37023 37123 37269 37416 37414 37284 37035 36910 36918 37030 37217 37417 37573 37528 37294 37079 36929 36871 36886 36972 37057 37038 36894 36777 36662 36636 36754 36852 36968 37000 36987 37015 37080 37130 37106 37002 36742 36661 36745 36934 37128 37265 37309 37225 36982 36957 37028 37133 37243 37367 37509 37416 37202 36996 36901 36914 36993 37089 37088 36991 36927 36953 36894 37010 37148 37305 37324 37250 37268 37333 37444 37470 37356 37180 37051 37042 37138 37312 37473 37573 37643 37443 37305 37317 37448 37608 37781 37917 37880 37669 37419 37284 37264 37323 37425 37539 37491 37376 37365 37329 37411 37551 37656 37756 37757 37727 37752 37848 37843 37826 37677 37491 37453 37513 37669 37826 37913 37962 37815 37665 37671 37764 37881 38022 38164 38220 38072 37812 37662 37627 37683 37767 37896 37984 37881 37814 37749 37786 37897 38059 38156 38150 38081 38032 38108 37978 37796 37749 37646 37603 37695 37851 37985 38081 38108 37947 37898 37849 37859 38034 38234 38403 38536 38391 38008 37717 37626 37659 37754 37874 37989 37805 37622 37411 37416 37593 37787 37957 38070 37939 37806 37791 37727 37594 37496 37485 37424 37380 37418 37478 37562 37549 37387 37427 37434 37488 37564 37687 37812 37950 37908 37485 37155 37099 37198 37322 37496 37632 37652 37423 37232 37224 37262 37386 37549 37719 37646 37455 37289 37189 37129 37168 37275 37294 37250 37195 37198 37310 37307 37396 37509 37529 37453 37451 37557 37678 37634 37500 37371 37260 37247 37269 37399 37508 37544 37394 37266 37355 37487 37634 37802 37949 38013 37916 37560 37281 37258 37314 37422 37518 37571 37467 37352 37225 37107 37292 37451 37556 37705 37700 37641 37636 37699 37513 37393 37423 37379 37402 37503 37632 37684 37501 37290 37368 37399 37476 37629 37781 37908 38004 37987 37649 37280 37288 37445 37550 37688 37773 37599 37213 36986 37134 37358 37554 37743 37822 37698 37631 37659 37539 37382 37407 37536 37503 37428 37435 37520 37584 37628 37612 37680 37722 37770 37873 37898 38006 38185 38110 37703 37469 37501 37638 37826 37988 38065 37934 37576 37494 37658 37853 38031 38174 38253 38137 38013 37744 37552 37529 37658 37793 37796 37729 37734 37776 37733 37762 37839 37918 37906 37915 37978 38087 38188 38167 38016 37721 37579 37642 37823 38013 38098 38165 38083 37795 37774 37885 38028 38198 38376 38456 38288 37974 37741 37666 37695 37775 37926 37960 37771 37695 37700 37836 37840 37965 38078 38079 38006 38015 38061 38015 37938 37865 37748 37667 37725 37878 37970 38075 38042 37808 37755 37784 37876 38036 38183 38253 38241 37934 37661 37550 37627 37762 37926 38065 38004 37837 37651 37586 37693 37792 37941 38105 38123 37978 37889 37746 37544 37482 37560 37539 37517 37603 37665 37784 37763 37719 37780 37782 37746 37813 37958 38058 38105 37862 37441 37321 37374 37543 37715 37876 37928 37746 37358 37355 37458 37650 37877 38043 38071 37832 37519 37239 37123 37249 37392 37539 37490 37378 37301 37278 37218 37243 37440 37656 37744 37697 37721 37771 37684 37512 37362 37181 37149 37270 37514 37664 37766 37758 37595 37487 37449 37536 37723 37867 37938 37793 37443 37176 37155 37258 37415 37581 37627 37485 37264 37221 37323 37456 37603 37786 37816 37695 37621 37579 37460 37396 37467 37539 37510 37476 37507 37584 37591 37583 37725 37793 37785 37914 38071 38144 38181 38097 37781 37496 37463 37572 37722 37930 38050 38058 37895 37749 37808 37903 38042 38285 38477 38461 38274 38033 37818 37760 37834 37923 37946 37889 37857 37880 37880 37901 38011 38157 38209 38192 38241 38324 38416 38447 38180 38050 38044 38128 38240 38318 38341 38424 38402 38183 38153 38270 38389 38558 38687 38729 38552 38254 38070 37990 38045 38102 38142 38098 37957 37891 37920 37802 37966 38160 38327 38349 38329 38314 38268 38125 37963 37805 37705 37668 37703 37791 37770 37819 37721 37537 37463 37416 37545 37726 37948 38086 37986 37701 37471 37316 37294 37369 37506 37642 37513 37344 37157 37134 37249 37376 37569 37728 37766 37715 37659 37574 37496 37381 37262 37103 37092 37192 37264 37251 37232 37341 37436 37399 37409 37508 37684 37815 37875 37660 37234 37071 37112 37150 37203 37288 37322 37104 36820 36846 37022 37193 37365 37474 37429 37303 37242 37089 36974 36983 37051 37053 37024 37038 37048 37088 37040 37013 37167 37277 37362 37428 37517 37609 37670 37531 37128 36930 36922 37061 37286 37484 37587 37512 37177 37125 37252 37422 37556 37653 37718 37603 37302 37019 36985 37146 37269 37382 37354 37198 37124 37141 37166 37278 37375 37445 37392 37384 37467 37589 37542 37460 37427 37328 37245 37288 37399 37407 37509 37562 37609 37535 37516 37633 37779 37893 37970 37788 37409 37150 37068 37173 37337 37466 37413 37106 36837 36524 36358 36689 37017 37294 37329 37051 36787 36614 36697 36904 37113 37249 37242 37280 37363 37383 37324 37136 37173 37215 37236 37276 37392 37487 37617 37776 37496 37104 36996 37096 37194 37304 37405 37444 37209 36868 36779 36968 37164 37309 37415 37357 37230 37283 37219 37088 36990 37034 36990 36951 37035 37162 37280 37305 37192 37243 37196 37170 37240 37352 37488 37638 37713 37296 36901 36847 36995 37169 37350 37452 37312 37054 36726 36819 37041 37182 37292 37221 37077 37042 37155 36983 36720 36818 36928 36899 36901 36993 37085 37188 36984 36972 37080 37130 37135 37230 37343 37447 37480 37004 36673 36716 36857 36997 37091 37224 37168 36860 36459 36627 36920 37120 37307 37489 37469 37347 37308 37035 36855 36914 37037 37009 36951 36936 36901 36757 36499 36566 36799 36877 36929 37030 37165 37320 37462 37409 37008 36809 36857 36983 37130 37269 37375 37374 37182 37092 37249 37378 37453 37594 37732 37616 37492 37371 37099 36957 37040 37092 37029 37038 37094 37009 36795 36853 37090 37153 37160 37252 37397 37531 37625 37573 37289 37131 37159 37282 37413 37520 37606 37564 37295 37078 37201 37403 37510 37694 37837 37738 37564 37175 36923 36979 37082 37163 37158 37079 36972 36878 36895 37018 37296 37499 37535 37480 37495 37599 37760 37676 37371 37166 37176 37283 37459 37630 37734 37745 37195 37054 37173 37343 37539 37705 37844 37818 37677 37469 37264 37200 37292 37432 37568 37486 37343 37328 37327 37266 37020 37417 37504 37460 37381 37381 37399 37279 37096 36931 36893 36903 36970 37084 37249 37374 37274 37119 37083 37086 37166 37308 37429 37526 37423 37137 36933 36857 36898 37027 37191 37176 36997 36876 36840 36847 36949 37040 37044 36967 36924 36958 37054 37021 36922 36868 36759 36649 36712 36877 36960 36956 36920 36920 36857 36847 36925 37076 37152 37176 36927 36520 36154 36012 36106 36334 36543 36706 36681 36546 36489 36623 36815 36956 37093 37247 37197 37142 37106 37034 36922 36901 36838 36829 36918 37081 37217 37249 37238 37221 37056 37014 37164 37319 37512 37607 37606 37454 37123 36948 36960 37073 37183 37269 37249 37122 36914 36817 37011 37151 37205 37276 37206 37093 37129 37097 37006 36987 37030 36984 36913 36938 37029 37107 37153 37135 37195 37172 37142 37194 37312 37468 37591 37404 36995 36880 36969 37028 37158 37327 37463 37206 36977 37046 37184 37329 37476 37613 37609 37446 37301 37101 36891 36866 36970 37036 37053 37047 37067 37119 36968 36996 37106 37126 37068 37131 37262 37408 37538 37385 36908 36693 36735 36874 37032 37160 37249 37227 37011 36861 36924 37058 37233 37375 37473 37349 37186 37067 36890 36766 36837 36959 36916 36840 36854 36884 36946 36974 37054 37187 37161 37126 37191 37248 37353 37340 37075 36769 36730 36798 36911 37054 37127 37074 36823 36460 36598 36803 36904 37027 37160 37091 36961 36814 36614 36653 36744 36799 36836 36800 36786 36767 36698 36728 36918 37056 37175 37142 37092 37156 37215 37129 36914 36709 36669 36744 36899 37030 37144 37160 37013 36576 36565 36755 36967 37180 37321 37416 37338 37093 36794 36685 36801 36992 37239 37345 37267 37222 37096 36857 36885 37141 37360 37358 37355 37410 37509 37506 37335 37243 37183 37193 37281 37403 37569 37666 37761 37560 37305 37382 37529 37652 37762 37880 37832 37647 37419 37172 37126 37218 37282 37309 37236 37148 37056 36920 36991 37257 37372 37413 37476 37541 37557 37592 37533 37344 37260 37171 37216 37299 37421 37474 37510 37568 37441 37321 37433 37627 37800 37890 37961 37886 37671 37415 37323 37377 37432 37520 37459 37256 37093 36942 36881 37099 37312 37464 37518 37452 37485 37551 37538 37437 37313 37100 36965 36973 37088 37219 37319 37399 37280 37138 37111 37190 37307 37502 37655 37742 37526 37206 36830 36750 36831 36942 37112 37122 36903 36690 36559 36482 36582 36819 36921 36926 36936 36995 37050 37006 36805 36569 36406 36389 36488 36620 36738 36803 36812 36725 36627 36721 36851 36997 37179 37298 37176 36835 36545 36434 36460 36557 36668 36691 36545 36419 36389 36429 36507 36662 36782 36809 36764 36765 36830 36851 36735 36650 36584 36540 36556 36642 36744 36874 36892 36803 36761 36757 36849 37040 37232 37323 37344 37135 36845 36705 36768 36842 36889 36961 36848 36640 36546 36622 36824 36983 37071 37052 37013 37016 37115 37230 37167 37021 36947 36873 36894 36991 37156 37235 37337 37194 37093 37069 37079 37172 37331 37437 37537 37415 37113 36934 36928 37063 37233 37349 37403 37243 37136 37081 37096 37194 37265 37347 37375 37319 37261 37282 37183 36869 36840 36874 36876 36972 37075 37166 37110 37041 37064 37129 37141 37202 37326 37461 37585 37632 37399 37090 36916 36965 37047 37146 37281 37316 37178 37012 36969 37077 37213 37319 37413 37320 37169 37180 37138 36929 36903 36969 36930 36860 36914 37022 37107 37070 37025 37103 37110 37089 37203 37360 37447 37498 37422 37034 36764 36754 36853 36954 37053 37092 36926 36647 36466 36629 36841 36947 37050 37108 36983 36878 36846 36742 36609 36658 36682 36615 36585 36645 36766 36760 36556 36686 36849 36842 36855 36944 37030 37068 37066 36813 36499 36400 36442 36520 36622 36787 36831 36662 36450 36483 36591 36669 36788 36964 36881 36715 36654 36632 36538 36482 36518 36477 36425 36453 36531 36575 36584 36586 36636 36533 36440 36492 36594 36645 36671 36586 36346 36201 36235 36336 36492 36647 36780 36707 36518 36376 36498 36563 36617 36749 36861 36744 36599 36549 36498 36457 36462 36445 36380 36406 36465 36506 36562 36539 36674 36676 36592 36622 36729 36828 36915 36976 36848 36587 36473 36518 36614 36761 36919 36918 36746 36529 36708 36810 36931 37091 37239 37143 36973 36951 36935 36882 36881 36961 36979 36929 36916 36943 36986 36988 37049 37145 37071 37005 37093 37177 37257 37317 37210 36922 36787 36822 36957 37136 37269 37309 37178 36997 37036 37120 37248 37381 37542 37618 37461 37322 37251 37180 37129 37190 37236 37164 37107 37077 37099 37092 37121 37276 37314 37218 37260 37374 37460 37475 37444 37213 37040 37001 37060 37186 37314 37426 37451 37251 37182 37191 37262 37323 37478 37628 37557 37378 37253 37069 36976 37056 37168 37182 