3530 3525 3526 3522 3518 3525 3524 3525 3517 3516 47673 47917 47667 47661 47920 47919 47919 47887 47594 47532 47701 47630 47606 47614 47625 47617 47577 47564 47560 47579 47619 47404 47413 47680 47695 47460 47472 47499 47523 47567 47590 47613 47639 47666 47682 47677 47670 47664 47658 47651 47650 47642 47640 47629 47635 47636 47627 47624 47624 47623 47619 47625 47614 47622 47620 47614 47613 47609 47605 47593 47590 47580 47579 47573 47564 47562 47563 47583 47588 47590 47582 47594 47601 47616 47624 47612 42264 42090 41917 41737 41566 41429 41274 41160 41112 41084 41318 41629 41942 42250 42634 42969 43135 43219 43271 43309 43352 43400 43459 43525 43614 43688 43676 43630 43593 43589 43586 43596 43634 43658 43668 43702 43743 43770 43805 43854 43893 43934 43941 43919 43847 43776 43731 43696 43616 43573 43515 43406 43335 43244 43201 43130 43015 43017 43119 43184 43274 43378 43444 43490 43513 43576 43634 43699 43778 43870 43916 43980 44087 44182 44234 44271 44294 44299 44299 44271 44191 44056 43927 43791 43681 43568 43414 43319 43245 43139 42997 42948 43067 43289 43298 43083 42934 42818 42775 42818 42915 42895 42591 42394 42454 42484 42486 42405 42465 42644 42895 42981 42701 42666 42691 42764 42852 42943 42919 42728 42569 42698 42632 42612 42762 42999 43184 43391 43493 43289 43353 43517 43428 43366 43432 43737 43781 43969 43944 43618 43623 43800 43968 44090 44321 44457 44419 44433 44474 44531 44528 44503 44522 44537 44663 44466 44026 43994 44097 44366 44573 44777 44967 44940 44930 44954 44992 44960 44948 44967 45045 45053 45002 44676 44483 44561 44805 44970 45157 45333 45305 45293 45329 45376 45438 45570 45512 45615 45542 45295 44986 44821 44908 45041 45230 45512 45745 45682 45701 45746 45838 45933 45821 45833 46002 46039 45854 45446 45311 45374 45455 45596 45846 46184 46261 46246 46329 46372 46397 46482 46562 46651 46742 46644 46225 45952 45893 45984 46174 46345 46667 46929 46866 46915 46998 47136 47195 47038 46936 47255 47314 47121 46739 46517 46547 46652 46830 47073 47245 47301 47268 47317 47324 47382 47391 47409 47552 47571 47639 47307 47010 46933 46977 47066 47209 47571 47607 47590 47588 47541 47460 47426 47438 47477 47489 47588 47581 47284 47159 47159 47259 47518 47593 47585 47560 47563 47517 47433 47379 47373 47402 47458 47558 47555 47514 47458 47568 47579 47574 47578 47567 47528 47543 47521 47422 47305 47277 47468 47473 47552 47635 47604 47522 47483 47508 47581 47583 47606 47580 47618 47622 47585 47492 47445 47416 47489 47539 47648 47481 47278 47143 47103 47139 47183 47247 47445 47450 47318 47302 47256 47182 47093 39149 39238 39195 38943 38738 38640 38616 38605 38664 38754 38891 39019 38944 38938 38898 38881 38868 38852 38891 38955 38928 38701 38537 38473 38581 38571 38736 38928 39132 39131 39127 39160 39216 39277 39387 39442 39539 39501 39522 39464 39392 39308 39229 39219 39308 39451 39599 39576 39574 39612 39585 39676 39760 39819 39831 39764 39667 39325 39132 39169 39241 39264 39353 39528 39576 39540 39537 39549 39587 39664 39688 39609 39785 39745 39435 39220 39075 39247 39268 39344 39457 39598 39687 39716 39718 39738 39783 39755 39761 39855 39829 39583 39402 39232 39191 39164 39225 39401 39623 39605 39624 39624 39533 39318 39314 39724 39903 39912 39740 39457 39199 39143 39136 39165 39304 39677 39855 39812 39852 39852 39912 39968 39961 40012 40093 40047 39840 39671 39529 39517 39548 39603 39668 39845 39966 39963 39979 39991 39989 40016 40026 40037 40089 40068 39920 39809 39684 39693 39670 39747 39995 40153 40229 40274 40259 40250 40285 40340 40387 40406 40356 40271 40033 39812 39765 39812 39955 40174 40403 40407 40428 40371 40389 40375 40404 40478 40563 40640 40509 40174 39930 39876 39888 39913 40007 40289 40588 40604 40606 40568 40527 40536 40528 40437 40791 40922 40730 40484 40296 40330 40400 40451 40506 40624 40799 40754 40797 40802 40727 40792 40796 40925 41031 40895 40652 40561 40539 40442 40467 40473 40548 40731 40834 40790 40827 40717 40605 40742 40629 40841 41041 41013 40785 40588 40479 40434 40425 40478 40708 40890 40971 40930 40950 40533 40615 40492 40431 40419 40526 40506 40454 40296 40202 40163 40281 40388 40601 40776 40889 40912 40886 40803 40764 40745 40812 40961 40925 40702 40418 40277 40318 40394 40380 40443 40633 40780 40751 40752 40593 40651 40696 40630 40864 40982 40831 40598 40302 40221 40261 40314 40391 40592 40782 40815 40846 40837 40893 40580 40533 40655 40838 40949 40949 40764 40560 40447 40618 40546 40652 40870 41113 41120 41098 40842 40753 40606 40434 40820 41014 41106 40850 40559 40328 40376 40440 40573 40629 40908 40946 40905 40866 40885 40808 40820 40830 40979 40975 40804 40608 40353 40270 40296 40262 40344 40478 40641 40597 40585 40599 40591 40623 40625 40654 40716 40589 40411 40261 40124 40066 39927 39998 40129 40337 40322 40276 40341 40545 40886 41121 41250 41172 40876 40724 40640 40530 40477 40463 40428 40419 40389 40396 40353 40307 40307 40287 40248 40255 40279 40281 40235 40184 40152 40137 40152 40283 40314 40311 40289 40228 40172 40133 40142 40132 40172 40209 40265 40324 40272 40256 40170 40062 39963 39899 39908 39884 40045 40099 40048 40010 39993 40019 40044 40056 40059 40109 40022 39828 39560 39446 39465 39442 39491 39523 39748 39743 39684 39681 39665 39596 39563 39416 39493 39455 39319 39274 39178 39084 39017 39079 39093 39229 39398 39491 39432 39345 39254 39232 39245 39207 39157 39120 39090 38965 38864 38736 38642 38662 38727 38769 38854 38975 38907 38826 38814 38789 38821 38878 38813 38884 38828 38726 38586 38350 38249 38288 38372 38489 38686 38722 38588 38548 38495 38565 38600 38565 38539 38476 38310 38239 38105 38034 38045 38104 38210 38264 38399 38362 38240 38220 38140 38089 38106 38065 38158 38135 37945 37928 37876 37797 37815 37914 38011 38081 38123 37996 37899 37867 37830 37802 37857 37828 37933 37840 37748 37750 37692 37484 37403 37508 37642 37793 37905 37767 37733 37662 37688 37783 37783 37648 37689 37593 37566 37478 37391 37378 37441 37549 37729 37911 37963 37866 37842 37886 37998 37961 38014 38078 38168 38170 37990 37768 37625 37714 37923 38108 38366 38569 38628 38592 38568 38501 38351 38304 38394 38443 38642 38573 38441 38271 38095 38084 38079 38125 38249 38467 38465 38433 38380 38382 38532 38519 38469 38602 38584 38537 38426 38325 38219 38216 38246 38346 38516 38600 38543 38575 38544 38433 38510 38477 38510 38441 38382 38266 38050 38022 38132 38245 38341 38534 38598 38555 38521 38448 38321 38394 38401 38478 38493 38399 38269 38190 38198 38224 38267 38315 38357 38443 38334 38305 38256 38133 38101 37973 38084 38294 38429 38474 38401 38195 38099 38136 38170 38294 38562 38775 38743 38773 38680 38554 38537 38511 38708 38850 38950 38849 38871 38886 38698 38702 38734 38830 39126 39237 39167 39181 39131 39144 39089 38808 38931 39076 39214 39173 39024 38744 38670 38714 38814 38960 39205 39305 39313 39274 39245 39314 39364 39170 39114 39360 39357 39303 39175 38940 38836 38815 38852 38965 39253 39326 39380 39376 39363 39350 39336 39264 39283 39398 39520 39327 39158 38819 38882 38950 39161 39271 39479 39618 39553 39549 39460 39493 39432 39366 39336 39408 39440 39463 39324 39066 39004 39004 39082 39276 39578 39676 39626 39596 39495 39577 39603 39554 39567 39673 39728 39609 39408 39187 39185 39398 39427 39573 39723 39883 39848 39828 39792 39834 39709 39775 39820 40030 40075 39898 39599 39411 39379 39424 39544 39793 39939 40037 40020 40060 40108 40179 40222 40227 40401 40476 40413 40393 40229 40033 39814 39823 40007 40032 40259 40424 40431 40436 40390 40406 40159 40075 40239 40393 40307 40199 40001 39725 39753 39852 39900 40060 40200 40092 40160 40121 40067 39836 39867 39997 40104 40388 40405 40429 40401 40290 40024 39844 39962 40061 40272 40475 40470 40467 40519 40357 40256 40322 40343 40496 40479 40269 39947 39758 39788 39904 40009 40126 40319 40360 40330 40346 40368 40424 40438 40423 40663 40750 40774 40700 40539 40460 40461 40406 40437 40621 40734 40707 40771 40729 40678 40568 40516 40553 40658 40638 40412 40148 39931 39949 40026 40128 40169 40350 40472 40418 40396 40385 40420 40446 40457 40469 40613 40662 40631 40474 40276 39966 39839 39942 40032 40251 40354 40326 40305 40331 40338 40325 40266 40250 40337 40296 40214 39919 39610 39682 39695 39799 39841 40030 40084 40055 40034 40007 40030 39897 39867 39955 40141 40037 40035 39897 39742 39607 39626 39649 39723 39901 39934 39928 39929 39985 40071 40140 40154 40152 40046 39913 39597 39303 39306 39446 39549 39710 39932 40017 39964 39926 39904 39938 39985 39958 40094 40068 39927 39646 39349 39314 39435 39561 39744 39843 39891 39908 39909 39902 39975 39995 39988 40067 40169 40123 39927 39628 39390 39364 39394 39551 39832 39927 40003 39964 40021 40020 39996 40045 40063 40207 40186 39971 39646 39502 39580 39753 39719 39895 39962 40027 39945 39948 39946 40018 39967 39921 40095 40111 39937 39545 39416 39315 39366 39609 39778 39947 40201 40343 40439 40509 40439 40385 40316 40225 40140 40024 39999 40010 40142 40274 40376 40394 40388 40379 40322 40241 40226 40264 40268 40272 40318 40305 40235 40168 40125 39995 39844 39793 39848 39876 39936 39937 39844 39809 39857 39882 39958 39984 39967 39771 39535 39505 39513 39245 39174 39106 39390 39542 39841 39813 39750 39665 39673 39730 39801 39768 39811 39743 39555 39580 39393 39053 39008 39237 39266 39428 39383 39275 39205 39150 39200 39240 39240 39249 39208 38934 38890 38917 38554 38367 38447 38624 38808 38940 38851 38783 38748 38744 38790 38713 38764 38834 38727 38589 38487 38292 38257 38358 38401 38509 38710 38759 38708 38640 38639 38701 38828 38921 38973 38977 38897 38550 38317 38146 38239 38302 38455 38638 38813 38870 38851 38822 38875 38969 38999 38978 38963 38899 38843 38680 38391 38152 38317 38553 38772 38948 38863 38693 38636 38623 38653 38641 38625 38683 38701 38582 38394 38118 38156 38259 38289 38429 38599 38672 38617 38626 38647 38743 38745 38709 38786 38740 38560 38251 37947 37955 38142 38255 38367 38541 38704 38669 38623 38526 38455 38329 38378 38389 38623 38813 38548 38262 38267 38578 38628 38780 38876 38976 38982 38954 39000 39010 38826 38731 38830 39082 39186 39006 38651 38537 38671 38909 39048 39200 39361 39365 39294 39313 39350 39381 39424 39457 39445 39512 39540 39511 39504 39575 39641 39744 39921 40018 40104 39952 39782 39782 39645 39577 39692 39684 39702 39479 39247 39424 39728 39959 39984 40053 40041 40054 40371 40441 40342 40256 40136 39986 40011 40087 39962 39813 39966 39980 39999 40081 40192 40222 40353 40406 40311 40134 40141 40120 39856 39719 39969 40081 40027 39873 39895 39739 39682 39515 39447 39518 39675 39692 39783 39789 39716 39674 39432 39331 39307 39705 39816 39722 39527 39261 39247 39314 39437 39726 39867 39765 39654 39545 39468 39350 39234 39159 39312 39576 39431 39338 39304 39192 39138 39155 39175 39339 39372 39268 39273 39174 39026 38987 39015 38975 39114 39060 38928 38738 38638 38712 38903 38904 39085 39324 39317 39322 39349 39317 39297 39357 39389 39511 39476 39431 39200 38942 38941 39026 39160 39285 39466 39415 39410 39413 39456 39514 39569 39598 39661 39654 39543 39340 39106 38919 38964 39063 39266 39450 39663 39649 39728 39565 39466 39314 39298 39352 39372 39505 39530 39396 39266 39148 39138 39205 39323 39567 39751 39726 39729 39576 39528 39488 39469 39420 39474 39486 39386 39277 39154 39111 39121 39176 39324 39583 39688 39729 39703 39556 39495 39372 39372 39358 39445 39432 39392 39319 39263 39267 39345 39411 39578 39733 39708 39656 39631 39539 39513 39406 39419 39543 39532 39398 39246 39139 39157 39237 39293 39573 39688 39694 39646 39587 39470 39398 39366 39338 39418 39429 39327 39218 39131 39210 39306 39395 39575 39731 39725 39687 39633 39652 39629 39589 39674 39875 39977 40074 40058 39940 39839 39825 39801 39821 40107 40206 40183 40035 40043 39942 39995 40041 40223 40206 40231 40240 40135 40078 40012 40065 40085 40276 40416 40244 40122 40017 39940 39858 39851 39897 40045 40038 39902 39775 39635 39604 39616 39690 39904 40076 40079 40079 39942 39931 39911 39964 40193 40219 40204 39934 39708 39907 39872 40021 40097 40439 40571 40586 40602 40575 40606 40626 40429 40662 40783 40619 40493 40435 40331 40424 40444 40602 40723 40733 40778 40815 40852 40849 40850 40921 41082 41156 40915 40752 40536 40541 40589 40684 40851 41065 41138 41190 41248 41244 41189 41189 41180 41389 41448 41524 41497 41488 41354 41282 41271 41262 41413 41569 41571 41578 41502 41299 41244 41355 41465 41594 41614 41732 41785 41849 41768 41788 41788 41876 41999 42094 42093 42049 41962 41852 41915 41796 42024 42066 41940 41734 41740 41594 41613 41597 41651 41810 41883 41858 41827 41607 41533 41456 41544 41671 41864 41931 41752 41410 41177 41194 41260 41447 41732 41859 41828 41858 41791 41596 41649 41611 41700 41740 41721 41578 41440 41251 41137 41090 41073 41248 41490 41585 41557 41504 41332 41180 41125 41273 41514 41552 41619 41414 41172 41046 41054 41090 41153 41360 41498 41437 41381 41186 40997 40744 40679 40814 41050 40914 40797 40641 40527 40474 40459 40471 40568 40847 40861 40839 40841 40632 40634 40589 40609 40848 40855 40665 40379 40350 40355 40440 40405 40477 40654 40935 41057 40926 40715 40659 40600 40495 40551 40685 40612 40379 40258 40129 40082 40074 40193 40334 40550 40696 40661 40617 40635 40607 40487 40466 40569 40736 40591 40394 40157 40051 39999 40002 40176 40567 40747 40670 40673 40607 40694 40590 40613 40635 40747 40766 40707 40551 40437 40151 40080 40063 40132 40312 40647 40768 40766 40823 40795 40831 40788 40751 40782 40742 40654 40533 40437 40357 40368 40461 40524 40690 40815 40851 40867 40894 41000 40628 40767 40767 40865 40870 40728 40604 40622 40578 40528 40566 40633 40943 41034 41064 41142 41121 41099 40991 40832 40887 40939 40870 40627 40405 40471 40430 40568 40639 40842 40887 40903 40973 40949 40817 40706 40757 40931 40896 41022 40824 40764 40572 40589 40596 40672 40860 40809 40726 40682 40557 40411 40170 40176 40346 40412 40325 40058 40068 40009 39888 39796 39841 39951 40128 39972 39828 39830 39650 39255 39228 39436 39511 39395 39262 39252 39163 39078 39129 39254 39433 39659 39631 39675 39619 39619 39445 39341 39529 39600 39684 39658 39413 39139 39130 39185 39226 39327 39587 39518 39527 39545 39593 39563 39564 39580 39654 39460 39235 39097 39053 38995 39054 39216 39404 39647 39593 39656 39622 39605 39686 39675 39763 39842 39854 39840 39783 39776 39654 39679 39607 39685 39892 39866 39892 39901 39892 39740 39753 39922 40080 39982 39781 39657 39439 39258 39156 39192 39322 39580 39873 39785 39760 39723 39740 39607 39854 40051 40275 40215 40171 40082 39867 39644 39627 39611 39641 39889 40003 39954 39927 39952 39973 39983 39960 39934 39956 39825 39676 39474 39323 39220 39201 39295 39429 39648 39601 39531 39510 39461 39510 39476 39486 39574 39530 39476 39292 38875 38782 38914 39020 39193 39518 39437 39409 39448 39519 39558 39351 39421 39475 39352 39327 39243 39161 39115 39058 39085 39138 39264 39235 39155 39154 39172 39197 39146 39044 39086 39210 39020 38896 38704 38417 38290 38435 38590 38811 39175 39090 39093 39145 39157 39159 39127 39109 39248 39144 39078 39014 38832 38716 38906 38962 38986 39187 39392 39227 39338 39432 39284 39212 39162 39358 39451 39307 39298 39068 38776 38770 38914 39031 39229 39599 39559 39479 39457 39428 39444 39554 39609 39653 39752 39761 39614 39595 39565 39450 39485 39513 39677 39909 39876 39934 40021 40079 39921 39992 40013 40100 40068 39904 39812 39635 39671 39712 39809 39936 40137 40005 40014 40017 40011 40083 40170 40224 40398 40369 40345 40176 39914 39786 39856 39932 40092 40327 40388 40319 40388 40337 40353 40123 40206 40281 40322 40282 40179 39949 39804 39799 39966 40059 40262 40491 40472 40563 40549 40565 40239 40083 40197 40460 40430 40442 40288 40080 40006 40031 40098 40221 40513 40640 40683 40743 40680 40627 40669 40719 40898 40953 41060 41091 41118 41084 40966 41063 41102 41269 41411 41409 41383 41289 41182 41139 41189 41308 41495 41415 41177 40824 40679 40716 40774 40882 41128 41251 41241 41217 41119 41143 41060 41002 40998 41062 40933 40795 40682 40539 40589 40648 40642 40719 40854 40766 40744 40726 40684 40606 40564 40573 40648 40660 40599 40434 40245 40051 40042 40094 40181 40418 40647 40552 40518 40468 40466 40388 40372 40370 40456 40381 40264 40107 40069 39990 40006 39947 39951 40024 40106 39992 39947 39936 39988 39977 40100 40225 40163 40064 39819 39614 39439 39504 39664 39805 40021 40177 40072 40036 39884 39860 39681 39744 39740 39658 39674 39697 39617 39545 39526 39553 39580 39647 39762 39631 39592 39586 39618 39682 39480 39492 39381 39219 39215 39073 38937 38929 39048 39180 39335 39590 39707 39555 39517 39383 39339 39252 39226 39278 39244 39180 39196 39026 38921 38882 38896 38959 39182 39270 39206 39151 39137 39123 39166 39129 39117 39069 38931 38897 38796 38671 38639 38682 38779 38930 39259 39026 38992 38897 38835 38793 38759 38769 38894 38896 38882 38907 38751 38581 38624 38723 38832 39013 39283 39135 39145 39208 39222 39126 39095 39123 39111 38917 38865 38782 38777 38770 38840 38917 38989 39114 39060 38907 38856 38861 38855 38869 38941 39080 39077 38895 38828 38828 38780 38780 38844 38979 39082 39296 39290 39274 39484 39707 39832 39958 40083 40281 40376 40308 40154 40039 40091 40097 40112 40121 40124 40125 40130 40120 40170 40321 40607 40667 40707 40804 40807 40572 40369 40243 40094 40018 40015 40062 40170 40317 40312 40297 40262 40204 40199 40224 40050 40179 40156 40065 40151 40114 40030 39992 40019 40019 40144 40403 40321 40333 40339 40355 40382 40377 40465 40608 40566 40505 40286 40074 39881 40012 40222 40361 40610 40580 40493 40463 40434 40387 40383 40341 40395 40487 40399 40305 40284 40258 40148 40145 40100 40115 40292 40171 40134 40132 40025 39958 39965 39903 39909 39959 39814 39956 39914 39990 40069 40150 40175 40263 40504 40497 40444 40325 40472 40810 41119 41387 41494 41512 41423 41397 41355 41195 41072 41017 41016 41091 41069 40997 40945 40912 40918 40929 40973 40923 40872 40658 40530 40433 40219 40059 40017 40138 40280 40542 40467 40320 40262 40254 40259 40277 40268 40213 40183 40079 40012 40026 39899 39838 39797 39810 39851 40029 39989 39980 39993 40022 40028 40072 40085 40086 40087 39961 39908 39857 39687 39676 39789 39855 39911 39912 39766 39761 39865 40068 40192 40202 40236 40205 40108 40087 40071 40031 39977 39957 39979 40059 40124 40108 40159 40129 40118 40136 40150 40118 40118 40113 40013 39884 39793 39772 39752 39774 39777 39783 39857 39966 39825 39666 39667 39678 39704 39764 39936 40025 40016 39899 39819 39767 39665 39710 39811 39884 39923 40110 40195 40159 40173 40117 40096 40078 39856 40010 40173 40227 40088 40022 39901 39965 40074 40116 40177 40329 40287 40308 40348 40380 40484 40571 40591 40728 40799 40754 40594 40498 40226 40194 40287 40387 40507 40752 40754 40741 40758 40737 40720 40514 40577 40670 40722 40716 40651 40605 40656 40538 40542 40498 40595 40696 40672 40668 40643 40648 40630 40669 40677 40658 40609 40447 40317 40234 40195 40238 40322 40436 40572 40513 40471 40456 40528 40537 40664 40754 40755 40627 40603 40522 40326 40062 40114 40194 40245 40341 40510 40477 40496 40531 40594 40634 40720 40742 40713 40545 40459 40329 40147 40047 40063 40102 40186 40399 40416 40339 40302 40365 40409 40294 40168 40386 40534 40558 40483 40258 40117 40134 40191 40186 40261 40519 40565 40481 40527 40490 40420 40470 40558 40591 40575 40437 40362 40045 39911 39965 40157 40271 40428 40695 40542 40481 40468 40488 40320 40254 40421 40578 40533 40517 40371 40094 39949 40056 40119 40183 40472 40487 40518 40564 40597 40635 40429 40464 40510 40418 40422 40362 40195 39939 39892 39983 40057 40215 40518 40492 40442 40449 40448 40455 40356 40446 40488 40495 40495 40386 40162 39887 39869 39995 40098 40224 40475 40418 40425 40426 40372 40251 40197 40205 40238 40231 40197 40166 40079 39905 39851 39895 39956 40060 40348 40249 40250 40280 40170 40178 40302 40402 40591 40571 40414 40206 39869 39827 39988 40173 40254 40561 40564 40550 40620 40682 40660 40615 40705 40789 40779 40696 40565 40322 40125 40153 40283 40362 40515 40552 40510 40592 40585 40628 40358 40115 40182 40485 40488 40455 40305 40106 39946 39925 39930 39995 40215 40509 40478 40457 40315 40167 40073 40131 40337 40636 40755 40934 40744 40470 40372 40352 40356 40413 40595 40825 40743 40731 40667 40639 40644 40631 40771 40808 40668 40446 40128 39987 40033 40098 40216 40488 40574 40518 40444 40341 40299 40018 39890 39897 40149 40223 40148 40081 39883 39856 39854 39846 39857 40112 40199 40129 40140 40112 40165 40117 39975 40102 40087 39944 39833 39657 39460 39366 39438 39605 39719 39942 40051 39956 39909 39883 39907 39943 39972 39985 40077 40063 40017 39843 39604 39335 39283 39284 39346 39501 39955 39913 39994 40085 40147 40156 40055 39976 39865 39946 39878 39805 39693 39431 39354 39448 39549 39597 39779 39799 39756 39777 39783 39802 39720 39731 39834 39961 39823 39709 39634 39688 39658 39684 39671 39699 39795 39944 39831 39810 39748 39745 39637 39625 39665 39704 39747 39824 39842 39848 39823 39837 39789 39789 40010 39976 39978 40035 40090 40090 39839 39876 40087 40008 39850 39705 39531 39532 39574 39634 39676 39955 39987 39949 39969 39979 39843 39593 39582 39776 39989 39964 39866 39517 39403 39380 39486 39626 39712 39921 39878 39857 39957 39984 39926 39632 39541 39524 39877 39874 39849 39699 39666 39661 39695 39704 39792 39975 39954 39893 39867 39824 39697 39518 39480 39888 39947 39995 39842 39660 39584 39611 39657 39728 39972 40079 39978 39988 39953 39953 39956 39909 39907 39977 39884 39734 39481 39305 39330 39473 39605 39774 40071 39935 39934 39893 39796 39862 39885 39837 39911 39913 39764 39704 39650 39573 39616 39665 39739 40003 40095 40115 40142 40114 40070 39777 39781 39888 40115 40104 39915 39867 39934 39861 39855 39868 39891 40095 40236 40206 40209 40203 40222 40020 40022 40055 40273 40336 40112 39810 39640 39642 39805 40039 40287 40628 40668 40689 40804 40869 40866 41001 41117 41367 41407 41328 41193 41091 40950 40973 41004 41074 41175 41573 41551 41575 41628 41692 41642 41578 41705 41797 41860 41833 41719 41436 41303 41365 41466 41543 41833 41997 42043 42045 42036 42118 42003 42105 42249 42441 42451 42304 42014 41748 41813 41952 42019 42148 42399 42476 42509 42570 42628 42653 42666 42622 42723 42854 42738 42554 42299 42184 42316 42400 42417 42559 42758 42703 42661 42648 42511 42473 42445 42512 42637 42710 42595 42375 42175 41999 42047 42118 42143 42302 42427 42350 42368 42371 42321 41966 41869 41804 41921 41994 41886 41729 41538 41496 41543 41584 41663 41884 41885 41824 41716 41586 41519 41498 41512 41459 41477 41432 41190 41093 41073 41082 41130 41155 41418 41438 41441 41405 41110 40963 40899 40988 41069 41093 41034 40839 40661 40586 40626 40719 40748 40862 40871 40827 40749 40749 40718 40749 40659 40706 40641 40488 40301 40170 40012 40040 40155 40208 40358 40471 40356 40254 40122 40022 39990 40093 40095 40146 40106 40057 39942 39875 39810 39829 39858 39903 40011 40044 39906 39893 39867 39889 39937 39992 40215 40439 40493 40555 40531 40551 40481 40492 40538 40528 40515 40403 40273 40197 40149 40123 40144 40174 40214 40213 40134 40064 40050 40060 40178 40277 40383 40465 40520 40483 40471 40512 40571 40619 40636 40602 40574 40437 40289 40259 40192 40060 40053 40083 40179 40253 40271 40157 40056 40047 40074 40130 40179 40183 40173 40017 39871 39853 39891 39815 39829 39877 39967 40158 40173 40100 40004 39922 39920 39912 39948 39956 39944 39802 39705 39764 39717 39586 39596 39729 39776 39948 40040 39896 39840 39836 39934 39980 40026 40017 39950 39737 39657 39602 39490 39514 39662 39755 39848 40004 39867 39703 39632 39616 39621 39633 39524 39495 39437 39385 39420 39419 39375 39356 39414 39534 39704 39799 39698 39661 39658 39686 39752 39984 40077 39924 39775 39719 39505 39326 39253 39380 39531 39720 39937 39790 39793 39748 39745 39687 39699 39832 39881 39849 39898 39792 39550 39410 39425 39521 39657 39971 40043 40033 40083 40128 40173 40221 40192 40282 40354 40318 40270 40082 39863 39858 39943 40032 40194 40411 40387 40311 40323 40361 40438 40510 40530 40664 40675 40669 40504 40177 39915 39915 39976 40017 40182 40477 40526 40551 40604 40603 40693 40736 40759 40840 40867 40838 40649 40345 40334 40430 40525 40546 40817 40833 40808 40848 40853 40863 40812 40805 41005 41114 40995 40732 40348 40108 40044 40077 40136 40464 40734 40681 40743 40792 40818 40792 40830 40808 40941 40963 40876 40571 40311 40301 40365 40384 40372 40593 40646 40684 40654 40603 40521 40482 40633 40691 40892 40785 40550 40240 40080 40096 40148 40262 40423 40632 40541 40525 40505 40450 40244 40035 40296 40511 40553 40367 40108 39935 40325 40207 40343 40316 40479 40507 40393 40414 40452 40308 40165 40201 40424 40434 40402 40333 40013 39813 39849 39964 40133 40185 40474 40377 40276 40314 40342 40343 40285 40326 40474 40465 40422 40217 39972 39806 39921 39927 39963 40099 40310 40233 40235 40249 40031 39971 39962 40158 40180 40124 40109 39946 39624 39549 39618 39712 39792 39993 39994 39977 39995 40071 40077 40133 40165 40241 40384 40345 40206 39920 39611 39516 39537 39629 39753 40100 40109 40117 40263 40314 40258 40029 39930 40306 40446 40360 40235 39942 39714 39710 39820 39956 40097 40288 40270 40239 40317 40282 40130 40064 40281 40747 40809 40839 40734 40738 40721 40831 40994 41046 41146 41145 40913 40983 40968 40919 40843 40727 40796 41025 41078 41058 40788 40618 40571 40605 40622 40699 40873 41019 40871 40937 41008 40959 41037 41075 41159 41276 41191 41070 40843 40619 40560 40594 40699 40900 41088 41054 41093 41108 41024 40644 40395 40388 40924 41198 41454 41558 41555 41455 41446 41442 41369 41318 41503 41358 41427 41336 41306 41264 41405 41580 41684 41705 41715 41722 41607 41442 41344 41246 41223 41258 41486 41653 41580 41501 41284 41064 40870 40880 41154 41318 41340 41236 41018 40966 41016 41033 40977 40939 41060 41093 41032 40983 40930 40788 40582 40908 40896 40912 40777 40550 40392 40243 40160 40162 40246 40545 40811 40792 40851 40789 40604 40336 40286 40606 40705 40658 40474 40324 40267 40347 40392 40374 40445 40739 40676 40658 40739 40739 40648 40452 40476 40827 41068 41066 40816 40539 40362 40356 40469 40649 40968 41100 41056 41138 41132 40940 40826 40828 40879 41007 41054 41012 40857 40740 40637 40617 40636 40729 40872 40958 40960 40950 40857 40752 40704 40709 40793 40736 40719 40575 40433 40280 40256 40337 40459 40680 40910 40859 40831 40695 40496 40400 40376 40433 40345 40354 40394 40321 40214 40173 40156 40160 40197 40355 40255 40294 40296 40241 40158 39976 39974 40214 40136 40080 40026 39916 39801 39791 39862 39949 40049 40295 40301 40295 40228 40077 39980 39945 39970 40015 40009 40031 39963 39842 39692 39647 39662 39680 39835 40053 40093 40110 40138 40069 40081 40050 40125 40147 40185 40117 40253 40258 40213 40127 40115 40211 40397 40367 40369 40353 40361 40325 40111 40063 40331 40378 40421 40230 39958 39817 39819 39929 40042 40295 40374 40350 40443 40464 40279 40080 40132 40429 40468 40357 40366 40329 40119 40019 39980 40026 40275 40378 40294 40283 40227 40289 40257 40179 40385 40520 40496 40372 40180 39920 39842 39904 39977 40085 40375 40283 40290 40351 40370 40332 40304 40329 40338 40134 40092 39951 39825 39765 39823 39912 39936 40036 40067 40023 40010 39882 39874 39886 40024 40241 40308 40274 40180 40115 39871 39957 39926 39999 40177 40471 40359 40339 40312 40296 40279 40267 40325 40439 40361 40349 40144 39892 39816 39861 39918 39955 40146 40264 40230 40273 40266 40297 40301 40334 40317 40234 40114 40054 39883 39661 39652 39831 39930 40069 40345 40295 40260 40217 40139 40148 40137 40060 40170 40117 40136 40120 39996 39825 39727 39768 39799 39940 40171 40311 40303 40377 40465 40539 40590 40572 40644 40582 40472 40338 40113 40044 40197 40333 40456 40709 40618 40586 40593 40687 40711 40671 40729 40736 40682 40567 40379 40223 40227 40269 40353 40462 40636 40915 40981 40982 40901 40889 40949 40844 40882 40933 40987 40964 40814 40604 40537 40597 40691 40776 40957 41022 41009 40983 40965 40897 40929 40976 41076 41199 41058 40893 40669 40528 40530 40583 40653 40798 41043 41012 41041 41013 40991 41004 40957 41032 41138 41142 41113 40937 40743 40722 40766 40793 40833 41140 41171 41124 41137 41158 41181 41200 41270 41298 41361 41310 41134 40939 40824 40934 40942 40970 41023 41263 41168 41065 40997 40943 40802 40763 40880 40957 41107 40971 40893 40631 40208 40012 39999 40220 40386 40690 40638 40541 40546 40478 40500 40396 40160 40228 40350 40344 39984 39879 39853 39984 40162 40193 40211 40287 40263 40170 40156 40158 40137 40188 40315 40426 40364 40203 39940 39621 39546 39713 39828 39983 40133 40253 40153 40158 40143 40061 40004 39858 40009 40076 40070 40033 39878 39718 39770 39820 39873 39923 40054 39881 39786 39737 39874 39810 39848 40171 40316 40175 40223 40388 40489 40524 40602 40699 40741 40833 40984 40939 40780 40629 40502 40465 40451 40420 40533 40666 40626 40609 40428 40275 40242 40227 40271 40390 40471 40460 40418 40338 40177 40118 40035 40027 40067 39980 39886 39675 39537 39537 39650 39750 39823 39973 39716 39620 39462 39353 39234 39279 39347 39487 39524 39589 39482 39303 39147 39140 39166 39235 39469 39310 39309 39228 39185 39186 39121 39007 38869 38700 38504 38475 38418 38412 38455 38541 38618 38642 38458 38234 38193 38139 38155 38243 38321 38403 38445 38404 38276 38072 37896 37913 38041 38195 38400 38656 38493 38514 38550 38590 38554 38627 38796 38753 38785 38846 38679 38659 38717 38820 38869 38848 39014 38968 38923 38911 38796 38658 38675 38903 39196 39343 39342 39348 39353 39357 39209 39131 39221 39245 39462 39526 39482 39390 39121 39000 38858 39093 39118 39086 39058 39033 38923 38728 38803 38964 38956 38996 39209 39104 39005 39003 38994 39170 39034 39167 39161 38992 38894 38866 38892 38795 38836 38927 39080 39205 39224 39166 39112 39134 39169 39276 39385 39423 39458 39275 39163 39020 38999 39017 39043 39050 39145 39198 39108 39008 38991 39059 39227 39314 39227 39135 38999 38909 38913 38787 38605 38682 38861 39038 39352 39483 39321 39328 39308 39395 39433 39390 39231 39425 39490 39638 39487 39216 39110 39176 39300 39503 39847 39903 39820 39856 39720 39624 39590 39629 39642 39641 39666 39663 39539 39455 39489 39591 39706 39818 40066 39998 39956 39886 39869 39853 39853 39887 39856 39866 39840 39740 39535 39448 39499 39594 39695 39935 40117 40217 40231 40319 40457 40531 40530 40623 40611 40629 40625 40498 40303 40254 40333 40531 40684 40862 40825 40786 40711 40714 40617 40664 40682 40793 40784 40849 40748 40584 40389 40333 40427 40544 40836 41021 40989 40970 40977 40966 40987 40939 41021 41122 41120 41062 41016 40952 40882 40804 40754 40821 41013 41242 41272 41270 41191 41126 41208 41304 41373 41311 41396 41361 41251 41197 41184 41216 41254 41347 41461 41386 41360 41340 41353 41361 41430 41497 41346 41317 41207 41011 40738 40704 40760 40947 41077 41435 41474 41598 41657 41698 41622 41680 41724 41768 41711 41467 41179 40983 40954 41052 41246 41436 41584 41487 41386 41353 41340 41385 41429 41509 41543 41562 41368 41243 40901 41042 40959 41088 41186 41377 41413 41367 41364 41330 41259 41282 41192 41192 41177 41119 40938 40688 40622 40676 40773 40900 41164 41121 41044 41035 40943 40805 40825 40938 41205 41216 41200 41198 41218 41022 40965 40925 40988 41257 41289 41180 41143 41123 41061 41110 40960 41115 41011 40986 40809 40930 40719 40826 40881 41051 41226 41200 41082 41022 40967 40949 40966 40914 41022 40971 40900 40700 40501 40374 40426 40529 40642 41025 41123 41153 41195 41155 41050 41175 41107 41301 41425 41449 41234 40893 40857 40966 41100 41199 41374 41496 41412 41401 41428 41471 41474 41450 41538 41539 41392 41161 40958 40859 40838 40885 40971 41220 41474 41452 41420 41360 41274 41267 41290 41332 41470 41473 41370 41097 40846 40829 40909 40951 41037 41373 41296 41245 41294 41287 41124 41030 41171 41281 41342 41227 41007 40661 40596 40703 40858 41030 41273 41406 41258 41213 41002 40961 40943 41202 41359 41502 41536 41476 41374 41458 41413 41341 41282 41384 41624 41501 41443 41414 41375 41328 41310 41218 41185 41215 41129 40960 40642 40495 40588 40786 41008 41311 41466 41439 41446 41470 41526 41613 41681 41797 41907 41847 41689 41518 41292 41206 41152 41087 41048 41041 41029 40951 40891 40831 40762 40713 40750 40757 40766 40684 40633 40770 40914 41064 41203 41274 41372 41445 41510 41593 41688 41780 41859 41926 41980 41951 41866 41754 41693 41709 41752 41769 41795 41796 41807 41769 41569 41358 41212 41101 41036 41029 41019 40966 40800 40641 40588 40515 40455 40426 40335 40238 40107 40019 39975 39956 39948 39938 39910 39814 39658 39383 39195 39159 39203 39307 39429 39575 39724 39819 39716 39523 39433 39403 39383 39425 39469 39530 39432 39350 39275 39224 39186 39133 39156 39179 39298 39343 39110 38928 38920 38962 38948 38956 38971 38973 38882 38758 38706 38752 38770 38825 38888 38903 38927 38925 38690 38519 38490 38583 38661 38770 38880 38927 38817 38601 38520 38492 38486 38542 38638 38731 38865 38959 38864 38742 38646 38612 38628 38667 38653 38691 38698 38643 38665 38625 38589 38603 38657 38888 39103 39187 39177 39152 39186 39227 39285 39335 39374 39340 39279 39289 39215 39241 39381 39463 39616 39742 39723 39613 39501 39458 39447 39488 39538 39615 39672 39680 39752 39766 39717 39701 39743 39820 39901 40015 39966 39938 39962 39964 39917 39867 39921 39888 39860 39941 39938 39964 40014 40094 40132 40182 40227 40161 40083 40023 40036 40075 40091 40078 40158 40125 40049 40025 39986 40001 40028 40072 40126 40233 40308 40258 40204 40178 40166 40131 40050 40172 40202 40210 40272 40369 40428 40438 40433 40425 40477 40583 40617 40603 40590 40604 40523 40552 40661 40642 40651 40653 40734 40812 40814 40824 40832 40824 40876 40939 40890 40827 40765 40673 40625 40644 40732 40744 40789 40838 40812 40752 40721 40723 40730 40736 40820 40825 40804 40770 40757 40754 40685 40742 40740 40716 40690 40719 40770 40748 40757 40763 40778 40778 40779 40728 40672 40624 40625 40645 40714 40790 40787 40734 40727 40608 40663 40588 40601 40647 40697 40753 40699 40638 40553 40457 40411 40427 40514 40540 40539 40468 40500 40525 40557 40572 40581 40570 40649 40749 40803 40832 40849 40877 40927 40966 40998 41001 40968 40953 40937 40926 40926 40921 40938 40961 41066 41066 40957 40860 40810 40809 40844 40849 40889 40915 40929 40877 40811 40770 40753 40758 40791 40861 40887 40824 40802 40769 40739 40771 40800 40775 40786 40773 40800 40753 40758 40766 40771 40855 40930 40849 40749 40681 40630 40602 40648 40727 40801 40796 40778 40775 40649 40579 40557 40588 40642 40721 40832 40809 40805 40752 40698 40678 40669 40699 40708 40745 40693 40713 40651 40585 40619 40642 40695 40719 40796 40753 40702 40678 40679 40667 40717 40753 40714 40588 40416 40406 40356 40373 40398 40428 40512 40623 40624 40452 40303 40222 40151 40113 40132 40139 40168 40217 40096 40095 40061 39995 40021 40046 40146 40212 40281 40282 40265 40257 40206 40133 40102 40109 40103 40068 40109 40150 40137 40175 40226 40272 40238 40255 40236 40199 40169 40148 40173 40110 40175 40213 40152 40054 40050 40016 39990 40050 40115 40182 40240 40364 40282 40152 40038 39948 39905 39936 40031 40063 40087 40134 40109 40054 40032 40035 40049 40102 40257 40198 40074 40037 40061 40101 40146 40194 40186 40164 40023 39981 40046 40146 40209 40285 40318 40327 40338 40204 40100 40070 40056 40086 40197 40281 40312 40162 40089 40051 40053 40098 40149 40217 40268 40318 40323 40207 40097 40007 39985 40008 40076 40099 40116 40053 39985 40039 40089 40163 40160 40151 40149 40172 40116 40061 40017 40036 40066 40147 40213 40173 40067 39872 39801 39810 39906 39985 40052 40097 40146 40137 39957 39850 39800 39842 39917 39984 40125 40161 40160 40207 40213 40185 40181 40166 40176 40243 40329 40241 40194 40185 40214 40196 40198 40203 40208 40085 40015 40039 40069 40122 40155 40197 40179 40172 40124 39931 39861 39871 39924 39972 40065 40117 40077 39869 39733 39691 39700 39748 39824 39927 39998 40066 40065 39888 39764 39692 39709 39734 39817 39915 39989 40007 39922 39866 39853 39800 39742 39777 39893 40041 40165 40218 40223 40275 40297 40318 40390 40480 40536 40565 40636 40769 40884 40998 41052 41073 41032 41019 40937 40843 40791 40770 40769 40806 40844 40906 40800 40696 40670 40579 40514 40526 40572 40615 40690 40802 40732 40620 40548 40505 40509 40591 40726 40843 40875 40919 40910 40919 40917 40928 40926 40948 41022 41026 40980 40942 40936 40958 40950 40952 40949 40913 40824 40800 40693 40677 40679 40731 40782 40832 40851 40820 40738 40704 40728 40708 40711 40735 40764 40803 40695 40645 40493 40409 40381 40411 40452 40514 40599 40561 40421 40298 40240 40215 40246 40344 40461 40438 40438 40444 40467 40382 40339 40382 40504 40640 40649 40601 40587 40608 40615 40640 40684 40686 40609 40519 40426 40394 40323 40325 40326 40375 40539 40533 40492 40377 40343 40348 40365 40351 40398 40434 40469 40448 40403 40360 40386 40395 40428 40486 40541 40613 40564 40556 40499 40483 40462 40478 40493 40509 40510 40478 40491 40483 40443 40433 40448 40517 40694 40690 40685 40664 40691 40723 40758 40780 40787 40755 40732 40750 40729 40698 40705 40734 40822 40974 41110 41122 41097 41081 41051 41056 41006 40952 41114 41204 41235 41277 41325 41324 41351 41342 41365 41400 41489 41501 41501 41487 41466 41499 41552 41527 41604 41591 41620 41636 41582 41491 41472 41548 41662 41728 41701 41660 41625 41628 41674 41648 41683 41686 41656 41626 41542 41436 41396 41393 41431 41569 41724 41797 41728 41628 41552 41506 41539 41596 41633 41702 41718 41708 41644 41536 41497 41460 41465 41530 41604 41575 41540 41497 41490 41494 41463 41477 41496 41539 41504 41461 41294 41204 41195 41250 41310 41378 41450 41413 41355 41306 41279 41202 41220 41263 41359 41393 41268 41126 40968 40921 40930 40995 41082 41200 41344 41345 41252 41146 41094 41068 41115 41195 41288 41373 41349 41341 41279 41226 41147 41023 41080 41266 41370 41359 41309 41313 41298 41266 41211 41194 41206 41228 41195 41175 41193 41108 40976 40968 41051 41086 41068 40969 40901 40844 40790 40808 40855 40918 40946 40823 40748 40623 40536 40510 40545 40626 40685 40747 40714 40614 40503 40443 40433 40493 40526 40552 40611 40557 40476 40380 40330 40328 40355 40390 40457 40571 40523 40503 40499 40484 40496 40487 40442 40421 40367 40334 40266 40209 40254 40340 40412 40370 40349 40274 40135 40102 40094 40118 40210 40272 40355 40326 40213 40108 39957 39914 39959 40027 40095 40248 40287 40260 40184 40177 40150 40201 40297 40419 40540 40509 40499 40553 40613 40622 40523 40497 40478 40550 40502 40453 40481 40527 40602 40693 40729 40729 40598 40426 40390 40414 40416 40443 40456 40483 40448 40335 40179 40060 40020 39971 39975 40072 40142 40229 40134 40020 39849 39711 39651 39658 39720 39875 39870 39836 39794 39752 39674 39635 39618 39612 39658 39604 39513 39499 39475 39492 39473 39418 39416 39443 39343 39239 39203 39189 39209 39233 39314 39300 39147 38985 38944 38962 38992 39102 39218 39346 39430 39416 39227 39092 39021 38984 38964 39043 39143 39176 39143 39135 39065 38950 38897 38910 38989 39078 39156 39260 39248 39240 39186 39133 39092 39096 39141 39194 39181 39062 39084 39172 39216 39238 39224 39193 39180 39142 38971 38891 38834 38865 38957 39115 39109 38951 38752 38718 38732 38799 38842 38947 39072 39124 39135 38909 38703 38626 38608 38682 38771 38930 39062 39105 38995 38924 38941 38881 38790 38769 38829 38957 39078 38960 38916 38849 38799 38718 38677 38747 38836 38838 38733 38748 38678 38693 38738 38756 38785 38846 38916 38794 38700 38749 38848 38998 39098 39092 38967 38873 38839 38885 38988 39106 39174 39245 39279 39280 39118 38911 38856 38870 38905 38999 39138 39308 39524 39531 39560 39645 39718 39782 39823 39904 40006 40174 40197 40180 40134 40113 40079 40112 40204 40265 40317 40290 40317 40429 40468 40452 40387 40354 40368 40405 40323 40287 40294 40347 40377 40358 40301 40234 40112 40036 39961 39878 39865 39871 39895 39865 39893 39805 39579 39518 39528 39590 39673 39774 39829 39747 39639 39601 39640 39662 39679 39708 39817 39901 40009 39891 39735 39660 39641 39671 39747 39881 40043 40205 40209 40255 40382 40420 40386 40337 40316 40333 40322 40196 40089 40081 40089 40108 40094 40044 40016 39959 39878 39839 39786 39791 39872 39939 39970 40001 39912 39797 39775 39800 39774 39801 39940 40049 40124 40037 40003 40050 40054 39981 40031 40141 40278 40436 40391 40285 40230 40257 40301 40413 40507 40586 40665 40654 40756 40858 40871 40822 40787 40769 40837 40850 40798 40790 40806 40765 40737 40725 40700 40659 40593 40602 40702 40770 40800 40844 40865 40829 40744 40515 40359 40282 40268 40334 40398 40490 40562 40491 40296 40229 40240 40266 40343 40423 40475 40534 40561 40463 40349 40276 40214 40179 40145 40171 40205 40229 40284 40369 40396 40411 40427 40483 40567 40682 40694 40661 40683 40690 40703 40619 40514 40596 40760 40855 40990 41155 41270 41307 41296 41332 41342 41364 41408 41390 41381 41365 41337 41423 41520 41549 41568 41495 41486 41527 41538 41517 41517 41558 41589 41647 41598 41497 41378 41281 41225 41236 41309 41365 41369 41340 41364 41326 41274 41202 41184 41253 41293 41313 41200 41141 41097 41070 40996 40954 40877 40773 40690 40645 40591 40542 40536 40553 40540 40520 40518 40350 40237 40229 40185 40167 40160 40241 40254 40132 39919 39864 39788 39756 39802 39850 39909 40073 40136 39923 39790 39682 39633 39632 39691 39765 39800 39775 39774 39815 39799 39763 39726 39696 39706 39783 39896 39818 39680 39675 39613 39533 39447 39362 39297 39247 39289 39375 39471 39589 39713 39783 39713 39686 39640 39569 39510 39512 39606 39679 39774 39812 39722 39560 39419 39383 39487 39636 39805 39945 40039 40068 40033 39891 39769 39679 39645 39613 39604 39502 39513 39701 39799 39970 40038 40050 40064 40068 40101 40104 40083 40019 39947 39856 39788 39720 39616 39547 39494 39454 39427 39459 39527 39614 39652 39684 39631 39554 39460 39367 39324 39349 39400 39443 39509 39509 39392 39306 39238 39268 39328 39388 39490 39650 39811 39918 39941 39879 39868 39905 39986 40078 40192 40327 40462 40448 40435 40528 40662 40871 41187 41408 41568 41569 41497 41377 41301 41252 41220 41274 41379 41400 41336 41257 41201 41163 41112 41063 41020 40996 40990 40969 40843 40723 40797 40787 40815 40869 40890 40790 40657 40607 40486 40436 40446 40521 40626 40726 40835 40754 40573 40494 40477 40418 40305 40338 40551 40735 40758 40782 40792 40710 40641 40624 40646 40693 40742 40742 40681 40656 40608 40476 40462 40441 40486 40496 40491 40460 40413 40408 40465 40458 40456 40489 40435 40348 40274 40291 40287 40294 40348 40431 40454 40394 40274 40264 40320 40343 40399 40448 40516 40605 40630 40550 40511 40519 40571 40606 40695 40762 40908 41059 41169 41401 41470 41513 41506 41490 41465 41464 41406 41358 41367 41379 41434 41459 41390 41307 41258 41247 41246 41263 41232 41166 41197 41314 41287 41176 41080 41013 41001 41000 41032 41012 41036 40975 40884 40779 40726 40699 40708 40761 40886 40917 40935 40853 40843 40810 40772 40785 40820 40838 40874 40861 40851 40798 40852 40885 40920 40946 41004 41085 41075 41082 41133 41202 41275 41336 41291 41270 41221 41163 41090 40970 40947 40972 41030 41095 41154 41249 41167 41112 41032 41046 41030 41102 41227 41261 41309 41265 41161 41092 41020 41035 41083 41148 41227 41249 41207 41158 41075 40995 40952 40953 40985 40988 40950 40922 40843 40793 40870 40961 41023 41043 41063 41062 40999 40938 40925 40932 40942 40891 40781 40713 40635 40544 40504 40501 40516 40470 40536 40620 40650 40554 40357 40248 40186 40154 40089 40125 40196 40242 40145 40064 40045 40026 40062 40126 40210 40301 40388 40372 40368 40347 40388 40441 40507 40529 40550 40562 40536 40518 40542 40537 40546 40546 40567 40559 40486 40456 40459 40439 40458 40468 40461 40397 40229 40158 40116 40078 40104 40142 40177 40238 40254 40169 39970 39892 39865 39893 39934 40019 40066 40107 40063 39998 39927 39771 39712 39755 39781 39873 40108 40138 40093 40084 40088 40052 40047 40055 40058 40065 40026 40045 40102 40072 40115 40198 40243 40293 40263 40169 40133 40133 40119 40150 40149 40198 40222 40185 40108 40077 40124 40176 40238 40300 40343 40377 40339 40245 40137 40070 40060 40101 40150 40195 40241 40245 40248 40255 40279 40294 40393 40574 40829 40951 40908 40823 40786 40673 40335 40206 40187 40227 40375 40352 40375 40390 40405 40482 40501 40544 40529 40493 40426 40365 40321 40331 40376 40434 40483 40569 40571 40527 40602 40677 40680 40688 40774 40837 40856 40732 40581 40459 40349 40215 40149 40272 40403 40456 40406 40380 40259 40151 40105 40128 40213 40310 40383 40316 40249 40226 40159 40070 40016 40023 39998 39973 39933 39905 39948 40007 40043 40060 40033 39910 39721 39574 39470 39440 39470 39505 39542 39489 39345 39190 39186 39252 39337 39356 39432 39568 39701 39684 39510 39359 39246 39134 39105 39141 39157 39145 39132 39146 39189 39166 39151 39144 39232 39403 39455 39364 39308 39298 39293 39291 39191 39138 39164 39220 39249 39293 39385 39447 39555 39629 39606 39459 39261 39169 39140 39132 39085 39076 39168 39259 39240 39126 39074 39120 39155 39251 39336 39425 39568 39551 39470 39346 39245 39187 39169 39176 39219 39221 39232 39277 39368 39418 39410 39382 39350 39381 39251 39163 39150 39146 39121 39153 39155 39084 38930 38796 38814 38934 39023 39152 39275 39374 39369 39183 38993 38882 38854 38869 38894 39002 39057 39059 39021 38973 38888 38863 38906 38975 39090 39229 39226 39124 39123 39085 38990 38890 38874 38933 38949 38909 38886 38964 39048 39117 39197 39188 39189 39203 39158 39075 39073 39074 39062 39058 39119 39057 38889 38638 38551 38510 38524 38629 38759 38916 39093 38980 38754 38629 38539 38491 38409 38387 38430 38449 38439 38486 38525 38513 38550 38623 38752 38895 38966 38988 39029 39150 39230 39265 39323 39330 39340 39377 39409 39494 39589 39664 39739 39753 39697 39684 39578 39493 39463 39461 39493 39642 39835 39968 39987 39899 39977 40064 40140 40235 40310 40433 40554 40562 40383 40199 40108 40085 40088 40145 40179 40191 40168 40118 40186 40272 40329 40367 40413 40508 40518 40525 40498 40470 40505 40484 40438 40400 40335 40339 40262 40243 40330 40366 40346 40372 40377 40390 40392 40262 40169 40159 40121 40106 40047 40194 40307 40279 40073 40063 40105 40155 40242 40310 40382 40406 40470 40320 40168 40092 40065 40051 40003 40039 40085 40072 40017 40095 40102 40097 40099 40111 40122 40162 40152 40017 39946 39987 40057 40050 40000 39947 39893 39829 39767 39828 39919 39978 40063 40121 40070 39982 39844 39597 39526 39617 39723 39777 39890 40041 40020 39706 39540 39548 39642 39669 39735 39815 39908 39989 39846 39546 39393 39394 39453 39537 39583 39686 39707 39674 39716 39825 39857 39831 39842 39900 39995 40028 39927 39771 39716 39763 39764 39535 39518 39488 39571 39500 39491 39495 39570 39688 39771 39750 39687 39618 39500 39438 39460 39510 39512 39596 39779 39750 39608 39526 39598 39679 39786 39861 39943 40095 40175 40154 39981 39848 39812 39880 39920 39984 40047 40085 40081 40076 40106 40086 40061 40068 40106 40173 40205 40183 40099 40112 40173 40198 40197 40203 40229 40243 40194 40238 40314 40356 40424 40485 40482 40403 40370 40316 40297 40314 40381 40475 40543 40655 40650 40559 40471 40439 40462 40529 40533 40532 40623 40727 40736 40588 40494 40457 40483 40518 40603 40686 40706 40663 40596 40577 40462 40357 40346 40422 40452 40418 40261 40047 39756 39330 38996 38908 38880 38915 39001 39053 39082 39108 39047 39035 39191 39290 39318 39333 39358 39395 39411 39433 39479 39553 39632 39708 39757 39648 39446 39416 39465 39499 39516 39509 39570 39723 39855 39838 39742 39746 39751 39813 39918 40048 40116 40167 40113 40041 39988 39921 39855 39862 39981 40161 40265 40300 40216 40125 40069 40038 40024 40025 40030 40031 39983 39948 39911 39918 39945 39955 39961 40072 40190 40128 40077 40072 40098 40128 40124 40124 40057 39998 39972 39921 39921 39977 40092 40170 40278 40271 40218 40040 39959 39937 39952 39996 40123 40206 40258 40284 40260 40170 40098 40113 40151 40223 40283 40369 40347 40293 40263 40204 40147 40113 40193 40246 40264 40213 40200 40299 40366 40424 40429 40413 40410 40454 40441 40428 40418 40446 40449 40374 40416 40400 40361 40301 40320 40292 40315 40290 40373 40512 40555 40585 40526 40431 40384 40391 40409 40414 40428 40494 40501 40422 40321 40281 40287 40308 40291 40329 40469 40545 40575 40480 40355 40245 40196 40188 40065 40133 40196 40195 40160 40182 40128 40136 40160 40221 40276 40322 40391 40357 40288 40297 40399 40427 40437 40414 40392 40357 40295 40300 40424 40460 40504 40575 40607 40578 40486 40368 40314 40342 40326 40304 40374 40473 40466 40305 40190 40161 40253 40290 40340 40403 40439 40488 40421 40251 40079 40013 40016 39954 40016 40139 40212 40213 40148 40195 40235 40215 40159 40146 40211 40229 40227 40096 40039 40011 39970 39789 39636 39518 39541 39464 39482 39505 39538 39621 39704 39749 39708 39682 39621 39493 39499 39496 39435 39462 39549 39652 39633 39470 39364 39389 39403 39454 39462 39507 39649 39708 39713 39557 39410 39343 39317 39347 39472 39580 39589 39573 39552 39582 39573 39547 39559 39590 39590 39624 39552 39468 39423 39411 39411 39382 39331 39329 39264 39160 39151 39225 39303 39371 39422 39469 39508 39461 39375 39236 39177 39151 39156 39172 39256 39319 39221 39026 38942 38912 38972 39065 39179 39299 39435 39511 39471 39231 39067 38970 38951 38952 38860 39050 39220 39280 39198 39175 39188 39185 39216 39281 39337 39403 39432 39396 39326 39268 39180 39091 39077 39146 39213 39257 39171 39189 39252 39353 39420 39429 39380 39365 39393 39341 39251 39275 39334 39408 39491 39555 39510 39434 39304 39298 39460 39657 39800 39899 39977 39988 39898 39727 39507 39440 39471 39506 39286 39430 39507 39564 39509 39461 39503 39505 39500 39547 39603 39644 39651 39516 39462 39438 39366 39340 39274 39354 39354 39283 39199 39149 39106 39129 39188 39247 39260 39364 39346 39221 39218 39271 39344 39445 39571 39650 39619 39465 39360 39428 39554 39632 39657 39684 39794 39929 39811 39604 39506 39461 39453 39471 39525 39578 39579 39522 39493 39465 39448 39468 39491 39595 39665 39732 39671 39576 39524 39501 39458 39402 39358 39319 39218 39052 39023 39042 39050 39122 39157 39066 39002 39027 39026 39125 39241 39373 39563 39697 39729 39621 39666 39656 39812 40062 40267 40447 40572 40558 40498 40412 40284 40300 40320 40355 40385 40319 40303 40343 40338 40271 40132 40020 39941 39913 39940 39988 40059 40121 40188 40033 39887 39787 39698 39669 39646 39673 39730 39790 39727 39660 39660 39635 39619 39629 39782 39889 39968 39968 39806 39683 39677 39675 39696 39704 39656 39521 39437 39241 39191 39228 39339 39510 39693 39784 39741 39616 39387 39234 39174 39179 39243 39182 39284 39265 39128 38949 38898 38932 38992 39095 39250 39409 39513 39571 39447 39277 39209 39155 39134 39200 39214 39178 39141 39031 39021 39112 39159 39183 39226 39273 39357 39528 39655 39838 39971 40024 39961 39798 39690 39607 39536 39448 39438 39534 39596 39647 39801 39793 39728 39754 39796 39758 39728 39728 39735 39750 39794 39768 39596 39372 39189 39127 39186 39215 39235 39313 39490 39540 39403 39169 38976 38933 38965 39059 39204 39310 39423 39437 39370 39339 39296 39238 39244 39313 39473 39553 39548 39476 39493 39604 39578 39552 39519 39567 39668 39714 39695 39661 39723 39740 39701 39674 39681 39675 39544 39440 39450 39503 39497 39589 39619 39458 39193 38952 38822 38834 38841 38895 39064 39252 39452 39535 39286 38959 38837 38759 38748 38840 39020 39064 39113 38955 38752 38613 38558 38506 38544 38690 38881 38998 39030 38880 38779 38608 38535 38511 38583 38623 38609 38523 38332 38362 38465 38557 38560 38614 38699 38825 38910 38795 38719 38718 38697 38718 38701 38636 38517 38429 38443 38509 38619 38727 38855 39013 39130 39130 38990 38778 38692 38725 38782 38849 38930 39037 39070 38916 38704 38646 38720 38828 38924 39031 39181 39288 39327 39172 38998 38899 38866 38794 38838 38943 39014 39100 39094 39173 39278 39336 39397 39418 39482 39573 39599 39547 39538 39601 39721 39758 39821 39796 39712 39650 39674 39775 39889 39970 40097 40239 40210 40085 39875 39722 39682 39700 39705 39709 39813 39883 39837 39619 39510 39547 39600 39677 39724 39828 39952 40073 39962 39792 39716 39671 39628 39646 39691 39719 39763 39706 39769 39839 39857 39833 39760 39876 39974 39999 39871 39863 39940 39973 40027 39999 39976 39953 39875 39866 39879 39928 39997 40110 40215 40266 40281 40136 40072 40144 40280 40404 40545 40656 40761 40696 40564 40468 40468 40437 40381 40355 40501 40619 40621 40511 40362 40224 40042 40036 40059 40093 40125 40093 40042 40087 40129 40184 40211 40232 40251 40326 40263 40110 40043 40061 40056 40047 39962 39836 39640 39507 39453 39465 39496 39527 39664 39817 39911 39866 39591 39451 39394 39407 39458 39492 39564 39618 39572 39375 39251 39263 39341 39404 39504 39654 39798 39922 39887 39747 39650 39613 39641 39727 39821 39896 39972 39964 39952 40070 40145 40142 40117 40124 40169 40217 40160 40021 39995 40011 40083 40069 40080 40066 40060 39995 39996 40025 40062 40133 40218 40324 40327 40269 40009 39897 39817 39801 39730 39696 39829 39947 39943 39806 39780 39813 39884 39958 40031 40138 40196 40341 40260 40085 39952 39906 39901 39944 40035 40115 40200 40188 40197 40219 40180 40141 40137 40188 40291 40445 40461 40421 40415 40438 40379 40356 40292 40242 40314 40317 40382 40500 40601 40642 40641 40678 40627 40545 40351 40233 40155 40180 40151 40197 40327 40276 40101 39905 39888 39945 40028 40114 40197 40300 40417 40349 40043 39849 39731 39692 39665 39698 39834 39929 39898 39812 39736 39631 39574 39557 39591 39668 39748 39798 39644 39600 39552 39492 39509 39414 39471 39572 39629 39619 39613 39702 39806 39862 39872 39853 39852 39891 39785 39666 39640 39687 39747 39784 39739 39635 39478 39369 39343 39453 39585 39697 39786 39868 39791 39672 39613 39405 39342 39469 39621 39729 39786 39865 39887 39737 39553 39441 39476 39593 39708 39797 39904 39950 39992 39894 39578 39483 39542 39647 39773 39813 39810 39815 39811 39753 39730 39768 39835 39878 39964 40137 40244 40203 40034 40060 40068 40053 40084 40152 40272 40303 40314 40447 40521 40633 40733 40775 40758 40768 40767 40745 40771 40793 40848 40963 41101 41205 41193 41129 41130 41247 41446 41585 41663 41710 41721 41664 41451 41328 41187 41147 41071 41111 41226 41330 41387 41328 41320 41329 41378 41283 41387 41579 41632 41659 41513 41473 41426 41422 41312 41328 41387 41426 41470 41473 41520 41587 41642 41684 41722 41804 41831 41738 41667 41656 41730 41746 41787 41867 41767 41597 41445 41417 41430 41450 41542 41672 41771 41821 41677 41521 41412 41370 41407 41448 41505 41511 41506 41404 41403 41394 41393 41401 41424 41452 41461 41518 41437 41388 41382 41394 41336 41165 41125 41105 40991 40942 40968 41059 41110 41199 41131 41108 41037 40937 40772 40707 40761 40866 40936 41009 40967 40761 40585 40434 40479 40567 40641 40662 40674 40763 40797 40502 40118 39912 39819 39723 39709 39745 39819 39852 39788 39679 39613 39589 39576 39579 39628 39714 39819 39653 39588 39587 39491 39385 39378 39475 39529 39529 39488 39548 39585 39639 39684 39826 39938 39888 39796 39677 39707 39749 39853 39975 40056 39982 39771 39494 39400 39356 39442 39614 39854 40054 40184 40080 39796 39627 39554 39555 39589 39632 39632 39663 39624 39635 39616 39644 39724 39800 39918 40007 39948 39875 39910 39919 39881 39818 39797 39768 39711 39656 39707 39734 39794 39921 40088 40119 40103 40039 39951 39944 40048 40118 40289 40422 40473 40438 40309 40235 40175 40178 40223 40344 40409 40535 40504 40377 40292 40243 40249 40354 40560 40664 40707 40745 40800 41016 41153 41079 41024 41006 41002 41027 40914 40856 40860 40885 40861 40875 40792 40694 40646 40556 40668 40841 40956 41012 41047 40961 40853 40605 40355 40324 40323 40348 40375 40451 40535 40539 40388 40306 40290 40282 40291 40328 40375 40501 40567 40437 40306 40153 40118 40032 40053 40137 40340 40387 40397 40530 40644 40631 40568 40485 40453 40388 40159 39979 39914 39886 39705 39506 39204 38958 38906 38921 39017 39182 39202 39207 39198 39167 39212 39056 38785 38779 38838 38899 38713 38634 38669 38875 38843 38746 38798 38909 38981 38978 38976 39086 39252 39265 39042 38924 38872 38816 38803 38936 39114 39172 39138 39260 39454 39630 39653 39618 39629 39645 39606 39385 39360 39436 39521 39498 39434 39363 39260 39189 39257 39363 39513 39633 39744 39867 39809 39676 39427 39208 39182 39210 39191 39260 39404 39530 39443 39169 39117 39119 39178 39267 39364 39438 39616 39692 39546 39296 39124 39098 39149 39218 39293 39385 39426 39418 39474 39454 39408 39362 39376 39488 39662 39854 39829 39862 40008 40180 40216 40235 40298 40403 40452 40461 40376 40472 40645 40796 40860 40806 40706 40664 40613 40411 40357 40415 40480 40538 40561 40502 40354 40232 40066 40104 40292 40446 40578 40570 40609 40593 40382 40078 39920 39916 39987 39991 40001 40071 40156 40090 40019 40000 39999 40067 40208 40459 40711 40877 40954 40803 40657 40619 40629 40646 40745 40884 40968 40928 40865 40843 40815 40817 40856 40948 41059 41137 41099 40867 40824 40859 40896 40901 40829 40743 40648 40525 40451 40481 40521 40568 40647 40765 40747 40639 40395 40181 40177 40236 40256 40288 40424 40522 40430 40175 40053 40019 40040 40084 40169 40252 40400 40522 40402 40238 40135 40036 39978 39943 40019 40090 40087 40000 40057 40087 40066 40035 40020 40062 40124 40196 40129 40002 39927 39866 39694 39553 39448 39364 39396 39368 39356 39434 39562 39731 39895 39883 39773 39661 39462 39341 39341 39409 39541 39597 39660 39600 39306 38886 38527 38714 38831 39118 39328 39554 39746 39903 40001 39859 39826 39841 39912 40009 40127 40292 40349 40311 40247 40218 40348 40565 40836 41006 41120 41255 41365 41398 41424 41461 41396 41344 41258 41124 40907 40688 40595 40558 40597 40609 40625 40611 40644 40443 40035 39723 39511 39485 39589 39663 39583 39244 38809 38604 38593 38626 38681 38794 38932 39009 38810 38211 37685 37478 37524 37760 38151 38496 38607 38394 38014 37809 37802 37828 37886 38043 38286 38490 38541 38206 37854 37642 37707 37972 38331 38602 38823 38733 38391 38283 38479 38585 38597 38650 38793 38956 38908 38646 38366 38268 38371 38629 38943 39147 39188 39071 38962 38993 39126 39236 39349 39462 39643 39780 39857 39859 39750 39770 39840 39911 40128 40441 40659 40622 40486 40605 40704 40706 40685 40816 40995 41185 41392 41433 41356 41341 41377 41457 41620 41882 42091 42219 42118 42229 42426 42365 42234 42181 42284 42487 42764 42772 42739 42846 42969 43010 43112 43267 43383 43251 43111 43316 43440 43336 43284 43144 42989 42995 42974 42809 42674 42623 42609 42568 42582 42563 42435 41948 41433 41048 40788 40604 40487 40433 40466 40427 40058 39427 38841 38588 38612 38859 39161 39363 39282 38977 38662 38477 38388 38211 38245 38529 38754 38855 38631 38247 37988 37900 37905 38036 38294 38358 38061 37699 37594 37640 37678 37720 37882 38025 38087 37959 37412 37066 37002 37163 37527 37969 38195 38114 37613 37384 37383 37371 37366 37492 37852 38181 38418 38331 37851 37561 37408 37419 37636 38010 38239 38183 37786 37483 37538 37658 37599 37714 37938 38132 38269 38129 37795 37578 37539 37511 37502 37666 37898 37965 37599 37353 37533 37824 37971 38165 38339 38474 38538 38328 37918 37725 37783 37893 38067 38335 38509 38340 37925 37845 38043 38214 38333 38579 38837 39126 39313 39039 38722 38607 38640 38834 39177 39460 39579 39447 39247 39254 39457 39383 39268 39237 39463 39757 39960 39838 39638 39615 39607 39684 39808 40004 39998 39745 39585 39723 39788 39757 39869 40080 40263 40377 40409 40113 39899 39811 39810 39900 39978 40162 40149 39805 39728 39836 39797 39883 40078 40215 40383 40517 40504 40168 39944 39757 39730 39788 39897 39983 40027 39743 39595 39751 39816 39761 39757 39837 39933 40071 39900 39576 39432 39458 39678 39850 40016 40037 39769 39472 39462 39672 39663 39845 40043 40303 40382 40273 39880 39581 39471 39528 39688 39871 40069 40065 39732 39435 39352 39219 39137 39263 39589 39834 40043 39993 39621 39338 39114 39051 39092 39227 39371 39358 39177 39112 39202 39177 39100 39089 39172 39294 39386 39196 38861 38744 38809 38898 39163 39292 39255 38966 38608 38519 38799 38919 39057 39214 39356 39351 39092 38432 38102 38094 38394 38656 38974 39207 39248 38891 38359 38195 38194 37998 37955 38162 38455 38710 38643 38264 38047 37953 38106 38313 38417 38480 38429 38196 38055 38217 38250 38276 38399 38570 38686 38577 38373 38248 38186 38266 38422 38688 38853 38793 38472 38203 38294 38403 38407 38510 38786 38977 39078 39072 38517 38220 38153 38197 38385 38642 38893 39007 38750 38514 38520 38541 38557 38724 38937 39160 39387 39455 39126 38898 38779 38757 38842 39016 39126 39105 38892 38929 39114 39140 39218 39351 39440 39593 39727 39382 39066 39155 39283 39339 39380 39467 39446 39239 38983 39155 39578 39673 39765 39902 40068 40161 40151 39898 39520 39405 39467 39631 39881 40147 40382 40494 40115 39951 40129 40245 40307 40400 40539 40653 40725 40605 40353 40142 40021 40119 40302 40540 40788 40888 40642 40344 40564 40925 40962 40986 41078 41191 41377 41500 41448 41334 41284 41373 41462 41558 41619 41526 41149 40819 40945 41290 41436 41528 41656 41726 41734 41645 41370 41082 40938 40880 40979 41070 41112 41075 40629 40068 40052 40422 40508 40630 40757 40955 41183 41214 40928 40567 40298 40153 40186 40341 40525 40567 40319 40026 40069 40389 40525 40633 40759 40940 41106 41122 40889 40651 40510 40495 40432 40386 40457 40501 40328 39997 40020 40492 40649 40763 40900 40964 41005 40987 40804 40579 40432 40439 40543 40744 40989 40972 40584 39934 39891 40306 40430 40473 40597 40705 40920 41094 40701 40257 39965 39857 39820 39868 39982 40068 40001 39581 39321 39460 39668 39714 39742 39859 40064 40238 39933 39715 39536 39367 39306 39485 39832 40118 40035 39548 39443 39433 39347 39497 39558 39642 39741 39880 39929 39655 39314 39154 39192 39329 39377 39343 39130 38725 38443 38551 38853 38954 38948 39018 39152 39290 39100 38645 38482 38541 38707 38913 39194 39475 39484 39132 38926 39048 39112 38979 39003 39293 39629 39885 39995 39528 39227 39208 39417 39728 40195 40704 40953 41055 40932 40775 40663 40510 40443 40435 40625 40994 41013 40800 40639 40586 40626 40693 40788 40864 40667 40404 40448 40462 40369 40430 40730 40828 40870 40852 40544 40327 40269 40320 40480 40512 40573 40303 40004 39954 40029 39934 39863 40010 40249 40430 40560 40221 39816 39592 39534 39817 40156 40425 40423 40263 40118 40215 40162 40132 40166 40414 40693 40930 41041 40748 40538 40430 40418 40400 40462 40480 40378 40135 39894 40068 40267 40343 40368 40391 40348 40388 40161 39847 39695 39648 39448 39448 39478 39597 39332 38997 39270 39365 39301 39411 39612 39778 39907 40004 39595 39226 39085 39085 39090 39199 39509 39649 39494 39626 39654 39443 39343 39411 39538 39750 40062 40263 39974 39796 39569 39453 39303 39364 39449 39579 39507 39710 39621 39529 39552 39607 39704 39921 40159 39836 39708 39641 39640 39671 39777 39757 39576 39226 39130 39142 39118 39078 39116 39242 39367 39471 39115 38746 38657 38626 38629 38722 38990 39177 39035 38888 38907 38898 38815 38781 38835 38921 39076 39196 38995 38799 38590 38437 38263 38479 38820 39040 38993 39259 39705 39889 39878 39872 39854 39916 40024 39760 39581 39513 39439 39410 39596 39632 39389 39122 39278 39366 39278 39290 39405 39538 39607 39671 39211 39096 38993 38999 39049 39119 39214 39226 39120 38908 38933 38926 38803 38767 38876 39030 39307 39693 39603 39207 39019 38926 38921 38951 39187 39399 39247 39130 39325 39365 39446 39453 39585 39821 39912 40064 40039 39955 39978 39960 40037 40125 40212 40246 40077 40136 40269 40295 40522 40491 40535 40545 40563 40553 40345 40179 40132 40173 40130 40195 40142 39801 39534 39576 39637 39577 39603 39809 40016 40136 40132 39610 39153 39027 39021 39030 39224 39414 39567 39415 39248 39173 39011 38807 38746 38843 39006 39396 39755 39428 39449 39486 39265 39009 39001 39324 39542 39215 39325 39651 39916 39972 40074 40052 40114 40294 40469 40073 39949 40015 40128 39961 39893 39998 40054 39700 39676 39754 39558 39630 39926 40199 40176 40298 40357 39898 39715 39824 40047 40085 40139 40400 40466 40179 40007 40010 39884 39919 40138 40317 40456 40657 40675 40213 39910 39857 39949 39885 39972 40193 40288 40019 40013 40040 39913 39893 40002 40063 40185 40400 40408 40080 39898 39820 39714 39539 39626 39888 39920 39766 39829 39872 39613 39514 39523 39629 39955 40271 39983 39868 39876 39886 39889 39874 39765 39743 39374 39654 39929 39730 39766 39905 40060 40084 40134 40118 39747 39590 39563 39559 39488 39597 39798 39638 39428 39542 39537 39427 39485 39605 39682 39736 39902 39896 39343 39253 39203 39238 39220 39447 39688 39576 39700 39904 39714 39516 39569 39728 39889 40079 40199 39902 39824 39881 39948 39885 39868 40021 39960 39725 39823 40144 39994 39988 40009 40149 40150 40268 39798 39749 39788 39938 39856 40001 40234 40323 40084 39996 39767 39591 39545 39736 40054 40226 40404 40286 39714 39558 39476 39512 39415 39567 39876 39770 39646 39685 39445 39266 39318 39527 39840 40129 40314 40062 39879 39777 39818 39816 39983 40223 40344 40151 40168 40068 39893 39930 39985 40053 40180 40396 40227 39865 39832 39875 39950 40105 40299 40227 39749 39728 39837 39697 39737 40032 40429 40630 40660 40702 40406 40269 40332 40379 40345 40415 40556 40538 40393 40367 40230 39957 39974 40107 40336 40569 40891 40928 40629 40535 40264 39970 39837 40019 40162 40247 40324 40441 40303 40156 40161 40278 40462 40580 40843 40678 40469 40503 40499 40427 40344 40333 40369 40363 40537 40939 41233 41388 41544 41753 41728 41627 41635 41184 41022 40973 40789 40777 40921 41084 41023 40766 40705 40631 40305 40301 40465 40705 40843 41097 41097 40749 40586 40451 40385 40064 40137 40312 40293 40239 40280 40035 39783 39751 39946 40153 40285 40597 40619 40405 40375 40195 39956 39687 39707 39845 39900 40049 40356 40577 40636 40651 40574 40508 40629 40766 40371 40150 40130 40071 39932 39976 39985 39913 39409 39180 39354 39405 39397 39390 39475 39598 39708 39730 39200 38985 38788 38886 38965 39210 39269 39514 39110 38910 38839 38992 39017 39229 39441 39682 39853 39835 39477 39288 39049 38665 38646 39039 39307 39550 39435 39564 39769 39938 39740 39645 39698 39937 40178 39895 39677 39736 39709 39626 39765 39646 39764 39592 39367 39335 39221 39223 39363 39650 39864 39874 39833 39427 39432 39494 39614 39585 39622 39859 39889 39481 39445 39586 39469 39484 39642 39794 39950 40216 40551 40154 40063 40219 40368 40194 40233 40361 40352 40175 40118 40099 39823 39768 39939 40093 40288 40507 40513 40193 40125 40108 39935 39769 39859 39976 40057 39890 39996 39767 39794 39957 40170 40212 40269 40510 40245 40108 40214 40262 40182 40098 40191 40143 39712 39441 39545 39461 39488 39645 40057 40194 40359 40432 39969 39494 39433 39240 39232 39148 39582 39662 39806 39480 39502 39781 40006 40131 40204 40348 40509 40716 40712 40381 40172 40019 40152 40451 40768 40961 41026 41101 41127 40929 40685 40555 40523 40627 40871 41258 41085 40969 41058 41107 41073 40814 40722 40646 40260 40127 40230 40212 40147 40157 40264 40369 40304 39893 39564 39474 39392 39382 39313 39469 39740 39512 39257 39194 39152 38996 38961 39112 39472 39749 39982 39610 39461 39280 39189 39038 39145 39197 39436 39364 39516 39732 39368 39267 39274 39456 39670 39952 39958 39744 39627 39673 39766 39752 39862 40054 39969 39770 39835 39691 39556 39638 39808 40142 40126 40308 40203 39929 39965 40033 40165 40313 40489 40518 40068 39818 39998 40301 40328 40495 40560 40703 40908 40992 40563 40338 40385 40521 40504 40707 40865 40919 40700 40578 40445 40467 40376 40418 40448 40579 40776 40666 40345 40311 40216 40008 39810 39970 40151 40050 39781 39973 40231 40388 40553 40558 40583 40634 40778 40696 40547 40528 40629 40650 40676 40799 40850 40711 40282 40255 40407 40416 40505 40668 40879 40943 41022 40510 40309 40271 40322 40341 40399 40484 40548 40510 40268 40183 40188 40132 40078 40190 40497 40741 40951 40754 40598 40502 40404 40222 40324 40638 40542 40430 40573 40681 40843 40870 41000 41063 41156 41358 41261 40978 40847 40930 41033 41130 41057 40941 40542 40456 40417 40379 40290 40309 40515 40787 40946 40997 40551 40395 40355 40411 40362 40192 40195 40211 39973 40023 39976 39890 39987 40344 40481 40721 40976 41080 40796 40505 40359 40375 40579 40789 40811 40586 40221 40118 40438 40753 40896 40976 40944 40927 40548 40487 40590 40694 41007 41218 41345 41412 41450 41581 41560 41547 41508 41350 41203 41193 41249 41236 41145 41091 40826 40589 40320 40183 40064 39977 39788 39515 38784 38878 38862 38832 38987 39281 39552 39722 39923 40246 40445 40588 40829 40938 41170 41608 41831 41823 41922 42109 42105 41993 41879 41776 41754 41666 41314 41009 40810 40565 40361 40145 39893 39808 39693 39522 39215 38883 38736 38723 38802 38898 38827 38610 38490 38530 38551 38567 38625 38578 38774 38572 38429 38137 37834 37629 37660 37909 38011 38216 38320 38094 37984 37871 37950 38023 38257 38456 38445 38519 38377 38074 37903 37854 37882 38010 38112 38238 38205 38255 38327 38370 38160 38362 38454 38445 38069 38296 38281 38222 38129 38138 38315 38368 38334 38149 37963 37957 37981 37863 37967 38243 38482 38421 38235 37992 37669 37479 37490 37607 37803 38017 38191 38170 38145 38051 37926 37758 37682 37739 38055 38186 38463 38742 38985 38946 38846 38815 38816 38816 38783 38561 38542 38444 38409 38291 38358 38494 38503 38336 38412 38323 38196 38172 38232 38289 38287 38255 38136 38039 38045 38121 38050 38206 38531 38636 38469 38529 38519 38285 38212 38499 38527 38623 38712 38585 38449 38442 38448 38601 38607 38784 38908 38814 38717 38723 38590 38400 38370 38332 38387 38430 38454 38447 38385 38450 38598 38643 38541 38731 38926 38921 38854 38953 38860 38847 38870 38849 38771 38678 38697 38604 38470 38455 38477 38560 38723 38578 38463 38605 38864 39463 39756 40133 40402 40523 40736 40944 41203 41330 41528 41893 42159 42110 41986 41989 42107 42102 42026 41965 41920 41933 41961 41897 41897 41880 41518 41218 41377 42035 42532 42846 43132 43393 43519 43604 43835 44092 44228 44378 44394 44333 44343 44376 44323 44475 44346 44279 44255 44254 44150 43734 43208 42897 42793 42719 42539 42390 42492 42639 42592 42345 41938 41839 41795 41650 41563 41609 41464 41251 40803 40419 40141 40007 40000 39981 39997 40007 39943 39501 39069 38844 38736 38733 38811 38862 38961 39026 38936 38845 38749 38680 38644 38643 38585 38544 38443 38257 38083 38029 38029 38002 38035 37991 37880 37660 37408 37342 37333 37484 37711 37810 37761 37700 37615 37427 37225 37103 37133 37298 37558 37682 37401 37047 36850 36763 36851 37114 37397 37640 37824 37906 37587 37215 36977 36994 37202 37525 37832 38015 38018 37818 37501 37369 37422 37566 37734 37894 38059 38081 37891 37594 37368 37274 37280 37340 37433 37391 37165 36896 36759 36722 36803 37038 37205 37303 37445 37476 37315 37115 37099 37210 37360 37569 37705 37681 37595 37428 37387 37440 37588 37812 38065 38254 38291 38199 37935 37753 37816 37902 38034 38285 38555 38625 38314 38190 38130 38204 38337 38503 38654 38808 38998 38946 38751 38569 38545 38577 38662 38812 38919 38999 38893 38837 38895 38951 38960 39030 39103 39161 39288 39169 39145 39286 39404 39485 39510 39506 39464 39458 39423 39359 39307 39359 39437 39552 39543 39467 39444 39402 39271 39308 39378 39503 39446 39531 39568 39474 39293 39173 39185 39249 39340 39440 39548 39625 39588 39344 39073 39061 39126 39195 39275 39260 39317 39372 39250 39087 39011 39057 39126 39253 39324 39434 39538 39336 39105 38929 38842 38833 38943 39105 39244 39358 39240 39206 39279 39343 39324 39300 39284 39285 39342 39221 39082 38999 38983 38948 38972 39091 39167 39207 39013 38857 38886 38988 39058 39145 39082 38933 38871 38763 38561 38540 38658 38858 38932 39149 39164 39033 38895 38837 38899 39022 39025 39088 39206 39410 39433 39298 39268 39397 39511 39633 39805 40008 40106 40104 40038 39985 39877 39758 39651 39638 39696 39754 39858 39835 39883 39789 39728 39742 39877 40022 40150 40155 40054 40038 40055 39949 39762 39732 39765 39771 39667 39440 39331 39329 39425 39516 39421 39304 39206 38958 38725 38630 38634 38677 38752 38902 39004 38954 38711 38564 38542 38614 38586 38765 38988 38990 38796 38713 38731 38740 38797 38915 39033 39178 39323 39282 39077 39004 38932 38865 39004 39260 39429 39435 39392 39498 39509 39514 39494 39501 39526 39628 39689 39638 39650 39773 39829 39863 39975 40090 40210 40201 40249 40250 40129 40077 40150 40168 40046 40016 39941 39760 39603 39557 39624 39760 39878 39983 39863 39669 39614 39538 39498 39527 39613 39730 39913 39964 39765 39681 39612 39598 39719 39758 39939 40226 40221 40372 40508 40535 40346 40161 40158 40209 40341 40179 40112 40205 40345 40372 40411 40576 40665 40711 40631 40546 40642 40725 40673 40569 40423 40366 40418 40325 40347 40465 40644 40794 40980 41047 40903 40612 40439 40497 40469 40409 40434 40509 40558 40551 40292 39994 39999 40159 40186 40343 40547 40647 40682 40465 40357 40259 40133 39989 39932 39966 40011 40054 39905 39766 39627 39430 39281 39429 39649 39873 39845 39725 39723 39692 39573 39489 39469 39525 39723 39701 39626 39675 39664 39587 39675 39810 39949 40004 39892 39947 39958 39767 39769 39872 40040 40056 40103 40039 40179 40331 40481 40677 40941 41178 41311 41147 41031 41085 41130 41159 41123 41159 41237 41296 41250 40871 40724 40635 40688 40746 40927 41044 41160 41128 41030 41013 40935 40869 40795 40751 40742 40757 40716 40555 40584 40483 40380 40296 40294 40284 40335 40242 40098 40047 40008 40003 39929 39834 39780 39833 39805 39736 39753 39806 39848 39896 39974 40012 39928 39916 40013 39996 39960 39914 40026 40199 40111 40026 39949 39942 40024 40212 40426 40625 40823 40923 40618 40425 40384 40248 40022 40005 40271 40410 40488 40336 40055 39876 39707 39628 39617 39785 39866 39855 39770 39714 39688 39624 39462 39393 39451 39590 39708 39668 39707 39779 39795 39625 39619 39765 39908 39951 39912 39908 39889 39893 39880 39720 39613 39660 39697 39471 39433 39423 39548 39600 39618 39568 39317 39072 38882 38810 38783 38813 38885 38998 39046 38854 38549 38351 38347 38505 38694 38859 39004 39091 39054 38782 38622 38556 38603 38713 38837 39011 39146 39107 39107 38995 38886 38856 38830 38926 39048 39237 39442 39636 39866 39817 39658 39662 39727 39881 39973 39922 39786 39686 39601 39600 39548 39533 39478 39465 39442 39381 39346 39343 39447 39643 40000 39988 39870 39901 39909 39948 40021 40131 40239 40402 40448 40225 39802 39600 39479 39477 39617 39732 39842 39931 39886 39650 39269 39072 39059 39137 39310 39444 39439 39304 39009 38790 38754 38642 38630 38818 39072 39284 39445 39330 39016 38867 38858 38975 39156 39359 39376 39282 39162 39150 39118 39108 39146 39177 39242 39345 39411 39168 39066 39071 39137 39202 39246 39232 39197 39018 38769 38664 38617 38596 38681 38840 38875 38899 38790 38513 38356 38512 38705 39002 39121 39476 39360 38996 39036 39024 39147 39012 39044 39169 39378 39490 39212 38811 38723 38763 38892 39066 39192 39396 39422 39482 39315 38934 38683 38667 38838 39039 39241 39409 39319 39382 39313 39170 39079 39051 39234 39399 39419 39279 39320 39216 38990 38945 39013 38989 38998 39099 39007 38774 38668 38794 38860 38940 38948 38842 38774 38448 38353 38422 38534 38490 38628 38767 38755 38770 38652 38449 38386 38364 38358 38293 38421 38596 38448 38025 38104 38234 38200 38264 38455 38716 38931 39046 38876 38542 38475 38575 38787 39042 39335 39540 39588 39448 39045 38787 38779 38733 38661 38672 38745 38815 38974 38969 38815 38701 38678 38691 38864 39126 39245 39196 38982 38911 39127 39068 38976 38946 39046 39182 39305 39341 39174 39143 39154 39121 39106 39211 39385 39425 39155 39037 39146 39278 39224 39194 39205 39107 39094 39274 39236 39128 39097 39204 39313 39574 39774 39700 39592 39257 39108 39291 39382 39352 39420 39556 39565 39543 39366 39166 39182 39270 39442 39633 39907 40006 39870 39376 39283 39371 39497 39488 39567 39682 39905 40016 39956 39652 39442 39347 39401 39593 39690 39886 39868 39638 39579 39459 39276 39261 39335 39453 39576 39736 39770 39619 39530 39495 39485 39623 39872 39995 39943 39671 39534 39618 39631 39563 39524 39470 39494 39625 39656 39440 39256 39238 39449 39755 39958 39857 39665 39296 39316 39410 39411 39360 39392 39519 39728 39621 39305 39104 39048 39064 39084 39021 39167 39409 39319 38777 38576 38610 38478 38674 38799 39008 39210 39502 39420 39125 38867 38695 38685 38647 38828 39206 39244 39190 39110 38961 38717 38654 38696 38768 38842 39074 39097 38918 38849 38878 38775 38591 38591 38821 38831 38707 38825 38701 38572 38555 38603 38600 38552 38627 38690 38525 38575 38719 38851 38981 39079 39067 38870 38474 38536 38395 38243 38320 38456 38719 38888 38924 38629 38527 38555 38657 38773 38742 38980 39126 39017 38980 38964 38829 38777 38747 38889 39141 39339 39406 39285 39043 38875 38821 38939 39233 39434 39498 39404 39499 39537 39462 39138 39083 39188 39382 39521 39536 39349 39363 39483 39708 39783 39905 39828 39673 39387 39335 39321 39029 39158 39534 39699 39561 39478 39233 39122 39122 39217 39466 39779 40069 40002 39717 39392 39282 39163 39357 39331 39454 39550 39617 39590 39247 38931 38858 38904 38890 39193 39382 39455 39329 39070 38917 38898 38814 38859 38966 39110 39250 39322 39018 38800 38678 38737 38901 39222 39346 39422 39117 38956 38934 38835 38848 38885 39012 39142 39256 39015 38690 38567 38644 38892 39164 39278 39220 39020 38848 38841 38951 39092 39246 39412 39536 39418 39120 38866 38904 39081 39226 39321 39533 39780 39858 39559 39299 39223 39208 39213 39321 39548 39676 39808 39549 39345 39247 39319 39416 39664 39926 40092 40134 40202 40302 40056 39947 39827 39794 39883 39935 40077 39780 39880 39885 39748 39586 39377 39630 39860 39773 39642 39692 39473 39354 39276 39315 39353 39400 39493 39537 39458 39579 39709 39809 39953 40114 40214 40147 40046 40161 40010 39947 39857 39890 39983 39970 39951 39808 39714 39834 40077 40261 40422 40648 40731 39971 40175 39932 39729 39751 39842 39970 40104 40247 40086 39490 39315 39229 39400 39458 39714 39969 40194 39913 39922 39565 39247 39225 39383 39436 39528 39670 39529 39442 39260 39081 38881 38875 38990 38868 39334 39643 39401 39335 39250 39058 38947 38839 38845 38973 38897 38841 38839 38879 38733 38703 38790 39000 38973 38894 39230 39352 39423 39430 39427 39240 38994 38913 38938 38665 38691 38770 38719 38594 38847 38880 38756 38319 38387 38287 38103 38157 38285 38488 38533 38500 38232 38070 38185 38377 38467 38541 38867 39067 38720 38380 38270 38095 37977 38036 38127 38205 38309 38444 38094 38095 38013 38160 38288 38323 38560 38825 38764 38810 38639 38513 38408 38425 38474 38600 38709 38973 38870 38937 38873 38848 38891 39145 39269 39473 39204 39491 39524 39386 39066 38970 38981 39108 39278 39367 39493 39588 39652 39722 39716 39794 39939 39699 39762 39685 39393 39344 39460 39575 39553 39517 39565 39554 39708 39806 39864 39902 39794 39795 39837 39710 39284 39497 39561 39654 39666 39820 39841 39784 39777 39545 39391 39498 39554 39621 39527 39703 40000 39990 39638 39676 39601 39477 39461 39531 39723 39899 40018 39786 39921 40090 40221 40313 40227 40284 40425 40352 39896 39558 39399 39362 39476 39590 39753 39846 39893 39941 39415 39127 39124 39306 39469 39487 39692 39941 39808 39848 39762 39505 39513 39612 39715 39807 39841 39904 39716 39376 39026 38865 38919 38971 39189 39456 39715 39573 39488 39653 39530 39365 39289 39444 39578 39680 39794 39660 39486 39427 39477 39527 39626 39677 39890 39959 39842 39864 39992 40130 40314 40485 40627 40714 40665 40499 40205 39914 39731 39633 39583 39403 39448 39512 39174 38953 39053 39125 39086 39126 39179 39128 39101 39231 39011 38895 38809 38898 39085 39213 39176 39132 38817 38734 38821 38821 38823 38953 39166 39282 39230 39220 39129 39296 39459 39789 40068 40078 40307 40356 40050 39728 39776 39633 39588 39618 39726 39829 39875 39815 39489 39351 39460 39711 39772 39822 40089 40493 40651 40026 40132 40399 40570 40645 40770 40824 40920 41046 40637 40291 40131 39957 39746 40025 40300 40277 40030 40237 40205 40013 39790 39688 39708 39819 39880 39983 39829 39784 39800 39695 39626 39725 39899 39985 39737 39699 39706 39780 39833 39822 39733 39742 39777 39790 39613 39549 39537 39605 39546 39557 39489 39431 39090 39059 39127 39257 39324 39491 39677 39744 39676 39465 39425 39569 39623 39532 39356 39320 39490 39566 39370 39576 39627 39366 39277 39343 39528 39708 39845 39570 39238 39069 38995 38761 38801 39064 39346 39462 39360 39249 38995 38684 38593 38646 38800 38955 39129 39099 38979 38756 38535 38432 38119 38281 38613 38753 38672 38769 38651 38553 38483 38565 38654 38799 38857 38648 38528 38498 38509 38300 38193 38356 38396 38165 37966 37802 37820 37861 38052 38358 38424 38435 38148 37983 37980 38112 38225 38403 38429 38421 38544 38581 38993 39182 39080 38901 38875 38940 39014 39114 38925 38772 38697 38685 38850 39154 39296 39612 39760 39683 39485 39555 39473 39432 39430 39432 39560 39625 39739 39577 39343 39115 39163 39355 39481 39805 40093 40079 39933 39791 39659 39633 39610 39625 39662 39669 39713 39721 39660 39607 39766 39804 39947 40096 40193 40147 39965 39874 39750 39654 39538 39495 39491 39557 39779 39595 39445 39388 39391 39451 39613 39671 39540 39358 39088 39075 38915 38890 39018 39288 39534 39668 39664 39293 38973 38877 38977 39211 39412 39635 39761 39641 39159 38869 38784 38841 38969 39126 39322 39436 39311 38978 38823 38638 38712 38928 39185 39343 39407 39234 39159 39255 39183 39028 38914 39055 39264 39470 39499 39375 39322 39323 39405 39473 39469 39317 39103 38808 38785 38762 38789 38997 39282 39345 39212 39117 38754 38445 38416 38572 38808 39098 39345 39290 38773 38218 38095 38199 38361 38577 38828 39033 39188 39113 38523 37985 37784 37831 38094 38450 38788 39001 38949 38569 38258 38105 38039 38117 38290 38549 38726 38824 38616 38280 38030 37904 38018 38229 38512 38703 38589 38379 38318 38559 38892 39058 39026 39074 39233 39465 39376 39215 39122 39041 39083 39079 39041 39004 38828 38625 38600 38782 38902 38983 39027 38965 38830 38758 38566 38450 38306 38358 38683 39040 39327 39467 39229 38807 38517 38553 38605 38536 38552 38688 38870 39090 38907 38731 38417 38180 38159 38334 38519 38698 38807 38708 38687 38619 38615 38477 38474 38527 38633 38857 39017 38767 38808 38756 38556 38280 38304 38578 38711 38716 38921 39162 39315 39414 39485 39513 39610 39723 39729 39625 39775 39991 40141 40318 40334 40341 40438 40376 40273 40410 40502 40595 40748 41371 42526 43058 43170 43204 43322 43516 43678 43880 43965 44104 44136 44128 44155 44119 44209 44335 44495 44636 44641 44555 44457 44315 44267 44238 44258 44123 43711 43381 43013 42863 42849 42846 42901 42844 42669 42329 42119 42171 42100 42087 42089 42207 42216 42126 42098 41970 42022 41953 41715 41525 41577 41508 41287 39989 39166 39210 39846 40293 40617 40606 40608 40703 40856 40893 40878 40888 40858 40846 40945 40900 40809 41058 40920 40597 40388 40418 40467 40508 40652 40830 41001 41171 41146 41004 40578 40645 40697 40967 41339 41457 41443 41303 41339 41466 41516 41601 41894 42136 42029 41801 41894 41967 41975 41953 41972 41847 41603 41377 41684 42128 42176 42096 42105 42005 41644 41086 40305 39559 39020 38627 38324 38094 37972 37866 37549 36866 36030 35193 34616 34405 34331 34369 34652 35001 35150 34961 34647 34504 34520 34557 34702 34857 34934 35002 34897 34490 34172 34132 34096 34203 34299 34203 33886 33628 33499 33602 33686 33749 33841 33944 33971 33749 33406 33261 33275 33400 33540 33639 33563 33424 33255 33104 33225 33478 33742 33982 34056 33961 33922 33650 33449 33470 33634 33897 34216 34398 34311 33856 33531 33416 33410 33590 33950 34260 34413 34272 34113 33858 33781 33773 33964 34306 34531 34345 34260 34017 33778 33665 33696 33728 33826 33904 34071 34420 34392 34489 34648 34620 34623 34694 35230 35684 36049 36133 36048 36041 36008 36060 36041 35950 35930 35956 35942 35852 35836 35911 36053 36258 36204 36052 35893 35454 35178 34969 34813 35067 35158 35297 35288 35357 35283 35148 35194 35416 35706 36042 36224 36346 36288 35972 35691 35483 35463 35429 35469 35488 35611 35861 35853 35544 35312 35224 35200 35445 35684 35868 35820 35491 35329 35201 34934 34815 34808 34857 35302 35601 35629 35539 35400 34944 34798 34973 35232 35383 35286 35132 34976 34818 34801 34860 34809 34862 35055 35147 34996 34905 34934 35176 35545 35775 35629 35201 34752 34772 34831 35009 35010 35095 35191 35297 35391 35185 34778 34613 34512 34474 34543 34667 35043 35233 35056 34982 34903 34898 34925 35086 35109 35080 35337 35606 35507 35311 35040 34679 34659 35059 35376 35797 35819 35475 35178 34987 34761 34702 34653 34749 35148 35473 35357 35378 35529 35560 35794 35857 35850 36012 36311 36386 36303 36240 36227 36190 35902 35501 35600 35952 35902 36073 36165 36393 36559 36634 36371 36280 35833 35495 35367 35254 35270 35423 35488 35588 35776 35974 35896 36156 36326 36526 36860 36924 36857 37002 36446 35962 35633 35458 35358 35355 35440 35669 36230 36495 36451 36613 36739 36949 37289 37384 37310 37457 37306 37012 36807 36650 36412 36245 36186 36287 36591 36857 36788 36858 36894 36808 36967 37106 37090 36981 36948 36607 36372 36263 36088 35869 35688 35657 35998 36492 36638 36631 36697 36806 37019 37080 37036 36728 36557 36130 35916 35823 35835 35970 35983 35941 36009 36344 36556 36494 36549 36592 36840 37191 37344 37149 37037 36937 36708 36621 36624 36675 36686 36751 36644 36638 36756 36594 36656 36909 37193 37578 37807 37796 37919 37527 37055 36777 36570 36508 36544 36633 36723 37118 37446 37431 37408 37432 37650 37798 37737 37655 37659 37543 37196 36856 36525 36345 36240 36083 36148 36485 36923 37098 37144 36911 36561 36464 36748 36944 36928 37019 37024 36922 36713 36495 36290 36265 36429 36628 36961 37103 37188 37331 37451 37354 37440 37299 37061 37177 37293 37204 37074 37078 37104 37037 36785 36663 36922 36877 36881 36999 37003 37081 37146 37054 36933 37272 37690 37589 37616 37524 37409 37403 37262 36955 37039 36693 36695 36869 36850 36911 36723 36726 36471 36126 36003 36154 36222 36372 36512 36508 36507 36758 36667 36352 36320 36457 36640 36995 37169 36966 36829 36618 36676 36702 36563 36447 36477 36488 36485 36633 36738 36670 36702 36875 37052 37432 37596 37293 36981 36797 36898 37060 37169 37063 36903 36903 36859 36947 36965 36909 37037 37326 37407 37477 37457 37095 36741 36402 36467 36743 36854 36871 36863 36851 36850 36984 37062 37089 37062 36971 36889 36987 37059 37069 37204 36943 36838 36824 36859 36923 36969 36947 37051 37438 37334 37170 37039 36825 36944 37141 37250 37441 37261 36927 36638 36418 36313 36334 36408 36661 37143 37263 37145 36850 36755 36720 37088 37271 37222 37527 37668 37392 37336 37156 36949 36868 36834 36804 36864 37234 37052 37068 37220 37520 37811 37568 37662 37751 37965 37638 37485 37448 37376 37226 37086 36979 37172 37530 37577 37592 37741 37590 37548 37715 37584 37566 37458 37148 37098 37141 37182 37070 36858 36804 37017 37169 37340 37579 37687 37264 37128 37190 37523 37609 37798 37645 37436 37282 37197 37202 37257 37360 37420 37734 37697 37833 37978 38158 38376 38516 38424 38365 38189 37892 37892 37847 37759 37609 37596 37613 37819 37876 37889 37777 37668 37507 37397 37579 37760 38402 38438 38103 38018 37895 37840 37822 37847 38034 38010 38182 38200 38105 37822 37744 37988 38066 38014 38316 38380 38119 38000 37982 37915 37827 37764 37807 38104 38354 38343 38387 38628 38929 38871 38688 38546 38778 38496 38375 38453 38551 38487 38334 38150 38160 38462 38617 38708 38783 38709 38909 39004 38908 38632 38791 38738 38747 38683 38603 38560 38577 38496 38358 38461 38508 38503 38626 38709 38814 38930 38883 38609 38542 38206 38043 38057 38072 37996 37953 37962 38022 38182 38128 37930 37948 38161 38260 38443 38488 38498 38645 38653 38276 38031 37821 37650 37642 37608 37656 37892 38202 38311 38204 38160 38211 38237 38415 38504 38359 38507 38290 38210 38206 38129 37883 37685 37609 37804 37904 37867 37862 37932 37905 37898 37898 37884 37779 37700 37781 37575 37584 37535 37472 37344 37214 37220 37459 37613 37540 37512 37607 37749 37908 37963 37831 37579 37516 37408 37346 37293 37294 37415 37553 37542 37385 37440 37405 37323 37451 37597 37849 38057 38300 38040 37834 37477 37206 37028 36979 37084 37226 37261 37146 37360 37291 37151 37216 37149 37354 37633 37858 37677 37741 37433 37219 37094 37065 37069 37046 37148 37307 37747 37973 37966 37741 37463 37458 37542 37658 37761 37952 38014 37806 37844 37662 37437 37226 37202 37386 37447 37340 37251 36982 36898 37111 37145 37142 37319 37477 37363 37234 37123 37037 37009 37025 37033 37166 37361 37413 37352 37035 36918 37274 37455 37850 37808 37432 37093 36936 36881 36919 37031 37161 37304 37505 37579 37344 37240 37336 37500 37606 37590 37518 37423 37178 37068 36925 36868 36798 36816 36882 37007 37329 37519 37603 37761 37695 37747 37845 37879 37946 37978 37616 37357 37235 37253 37299 37256 37357 37463 37309 37050 36966 37095 37252 37685 37927 37784 37636 37426 37019 36828 36651 36545 36582 36624 36714 36714 36835 36640 36541 36627 36707 37003 37054 37103 37274 37197 36894 36556 36433 36206 36123 36141 36406 36762 37043 37090 36822 36714 36598 36474 36624 36718 36970 37173 36869 36642 36415 36227 36191 36375 36534 36892 37223 37214 37276 37152 36704 36544 36754 36677 36910 37053 37004 36879 36763 36818 36892 36818 36903 37094 37122 37031 37097 37115 36919 37128 37303 37227 36817 36681 36589 36428 36371 36439 36617 36787 36918 37002 36701 36395 36412 36407 36303 36408 36476 36583 36955 36597 36322 36107 36000 35998 35975 36173 36693 37142 37264 37241 36974 36720 36728 36948 37296 37403 37454 37226 37082 36887 36758 36791 36855 36864 37154 37563 37605 37565 37561 37338 36949 37067 37455 37574 37594 37627 37400 37329 37194 37164 37132 37128 37345 37277 37271 37240 37096 37117 37443 37745 37849 37576 37383 37227 36931 36721 36685 36646 36639 36756 37125 37297 37323 37250 37091 36826 36926 37390 37600 37741 37740 37291 37045 36881 36754 36733 36774 36902 37205 37608 37688 37584 37263 36999 37290 37469 37667 37736 37908 37633 37443 37297 37074 36960 36944 37052 37091 37494 37716 37700 37678 37509 37562 37786 38009 37853 38051 37745 37490 37346 37309 37302 37169 36998 37124 37209 37346 37342 37590 37675 37660 37946 37950 37777 37815 37664 37460 37211 37125 37153 37261 37232 37016 36988 37183 37216 37401 37538 37670 37942 38112 38084 37576 37313 36873 36825 36726 36890 36999 37026 37179 37325 37187 36839 36738 36389 36219 36609 36965 37151 37174 36932 36546 36247 36072 36082 36154 36324 36776 36873 36620 36360 36228 36288 36387 36590 36726 36633 36405 36341 36322 36322 36166 36046 35860 35921 36379 36553 36697 36813 36940 37486 38114 38346 38195 38042 37814 37576 37528 37532 37492 37403 37414 37281 37145 37182 37110 36985 37040 37297 37661 37919 37948 37626 37044 36734 36804 36861 36957 36950 36938 36951 36995 37279 37123 36968 36747 36743 36872 37409 37689 37820 37565 37600 37073 36651 36264 36075 36645 36530 36800 37395 37568 37407 37181 37133 37156 37308 37522 37420 37421 37106 37021 36991 37062 37042 37077 37137 37519 37675 37672 37755 38073 38317 38286 38376 38507 38540 38550 38293 38068 37968 37920 37909 37855 37753 37970 38029 37999 38009 38129 38274 38487 38554 38558 38332 37967 37508 37178 36928 36908 37069 37317 37680 37835 37640 37338 37260 37352 37544 37806 37824 37852 37766 37479 37067 36929 36801 36867 37098 37265 37446 37402 37148 37006 36946 36915 36996 37083 37293 37318 36956 36709 36592 36884 36934 36882 36810 36961 37270 37375 37248 37296 37321 37476 37704 37557 37382 37114 36816 36824 36701 36473 36690 36962 37269 37257 37122 37118 37307 37448 37429 37743 38075 38207 38194 37901 37550 37143 36952 36876 36982 37087 37242 37524 37613 37334 37149 37126 36758 36849 37258 37699 37989 38242 37948 37600 37413 37284 37310 37344 37414 37640 37922 38090 38196 38092 37938 37973 37938 38004 37987 37893 37500 37249 37136 37093 37086 37009 37003 37284 37440 37499 37527 37347 37180 37365 37482 37708 37789 37688 37462 37266 37183 37238 37323 37449 37522 37611 37868 37974 38165 38398 38599 38791 38728 38743 38693 38359 37813 37490 37132 36926 36965 37181 37413 37770 37763 37544 37317 37056 37094 37456 37386 37462 37531 37345 37123 37029 36684 36496 36624 36799 37271 37587 37546 37532 37632 37661 37704 37574 37532 37731 37886 38448 38919 39011 38874 38739 38457 38159 38020 37818 37657 37589 37730 37584 37405 37537 37531 37080 36781 36903 36945 37047 37206 37364 37498 37398 37273 36873 36482 36481 36672 37031 37489 37853 37900 37584 37026 36672 36648 36636 36760 36856 36965 37016 37285 37120 36602 36308 36419 36779 37389 37771 38030 37986 37834 37590 37167 36799 36525 36281 36169 36360 36775 36939 37022 36993 36918 36823 36913 36921 37030 36835 36926 36792 36626 36571 36556 36615 36524 36483 36679 37133 37554 37716 37944 38179 38692 39055 39206 39290 38916 39383 39200 38967 38838 38846 38970 38833 38549 38235 38243 38440 38571 38647 38767 38770 38468 38510 38150 38009 37642 37337 37180 37091 37169 37264 37476 37708 37775 37782 37684 37592 37605 37744 37885 37802 38121 38410 37948 37709 37698 38051 38538 38996 39251 39331 39111 38924 38649 38494 38529 38684 38786 38799 38725 38644 38482 38397 38415 38447 38508 38562 38622 38772 38689 38577 38518 38466 38470 38510 38574 38664 38729 38654 38474 38356 38434 38630 38845 38915 38798 38729 38671 38497 38328 38281 38418 38662 38907 38947 38700 38289 37939 37844 37899 38148 38400 38581 38731 38709 38443 38079 37871 37796 37878 38107 38405 38721 38824 38603 38100 37772 37742 37956 38184 38417 38589 38778 38891 38518 38009 37807 37713 37815 38086 38376 38583 38708 38619 38497 38617 38786 38932 39067 39182 39268 39239 38949 38692 38662 38593 38452 38362 38353 38469 38358 38135 38076 38191 38296 38418 38363 38225 38173 38274 38177 38018 38044 38118 38264 38413 38587 38540 38290 37972 37979 38024 38087 38143 38227 38307 38357 38264 38013 37857 37869 37956 38105 38299 38476 38629 38409 37993 37739 37676 37731 37794 37882 38018 38179 38413 38420 38138 37908 37810 37878 38012 38108 38129 38112 38028 38032 38148 38174 38186 38156 38191 38250 38368 38446 38280 38203 38153 38200 38202 38155 38251 38257 38117 38092 38272 38405 38492 38525 38463 38382 38405 38510 38334 38312 38359 38508 38731 38906 38851 38511 38162 37947 37951 38159 38192 38221 38460 38672 38615 38225 37991 37882 37877 37967 38205 38424 38463 38480 38233 37890 37710 37529 37449 37478 37611 37793 37999 38238 38419 38573 38640 38730 38684 38622 38703 38733 38619 38747 38919 39079 39274 39416 39424 39500 39524 39438 39425 39404 39426 39402 39348 39352 39372 39141 38881 38683 38462 38456 38527 38545 38672 38895 38829 38595 38435 38353 38410 38496 38842 38919 38664 38391 38315 38374 38432 38589 38717 38741 38983 38916 38500 38186 38060 38260 38466 38381 38523 38742 38604 38208 37732 37491 37455 37611 37779 37980 38245 38171 37952 37725 37602 37584 37548 37882 38028 37859 37551 37293 37276 37326 37281 37197 37097 37253 37648 37470 37080 37032 37205 37125 37183 37379 37413 37071 36977 36882 36781 36748 36936 37261 37325 37132 37281 37136 37020 37132 36892 36854 36954 37459 37541 37112 36888 36752 36688 36794 36945 37032 37100 37141 37192 37368 37237 37012 37169 37421 37686 37880 37916 38013 37615 37175 37025 36997 37061 37032 37051 37201 37556 37934 37939 37661 37451 37550 37597 37742 37578 37876 38336 37934 37745 37625 37566 37523 37604 37667 38087 38447 38583 38731 38947 39081 38965 38958 38930 39124 39461 39789 39668 39502 39394 39427 39313 39213 39200 39340 39452 39545 39678 39738 39722 39931 39851 39610 39501 39602 39285 39038 38929 38884 38941 38872 38886 38980 39132 39208 39278 39474 39635 39997 40151 40251 40309 40065 39803 39655 39671 39894 39886 39991 39990 39956 39905 39819 39895 40100 40193 40357 40421 40467 40661 40406 40100 39769 39575 39472 39451 39456 39490 39582 39627 39687 39605 39265 39328 39374 39424 39419 39205 38899 38730 38739 38716 38551 38456 38556 38579 38569 38536 38624 38566 38730 38742 38587 38427 38166 37894 37904 37975 38057 38183 38242 38224 37881 37351 37152 37275 37599 37812 37952 38082 38144 37785 37176 36749 36492 36419 36619 36762 36791 37110 37178 36918 36645 36756 36956 37184 37405 37455 37528 37384 37094 36564 36139 35968 36224 36293 36453 36514 36898 37029 36900 36653 36524 36505 36660 36844 37058 36963 36974 36646 36803 36748 36676 36572 36590 36803 37169 37294 37100 36925 36808 36550 36499 36463 36679 36961 36660 36511 36384 36361 36416 36555 36725 36767 37094 37197 37100 36978 37039 37233 37521 37608 37449 37297 37118 37253 37203 37260 37509 37654 37750 37849 37750 37515 37486 37583 37766 38137 38221 38331 38331 38024 37973 38076 37945 37973 38046 38078 38353 38445 38307 38112 37981 38054 38257 38366 38400 38201 37992 37985 38057 38049 38057 38026 37991 38088 38350 38225 38030 38056 38086 37946 38045 38150 38191 37995 37980 37881 37865 37713 37727 37687 37720 37723 37790 37438 37439 37412 37408 37442 37659 37882 37770 37233 37097 37109 37137 37228 37284 37420 37605 37554 37391 36897 36816 36830 36896 36889 37331 37556 37662 37159 36894 36726 36724 36808 36995 37111 37314 37577 37518 37108 37183 37373 37499 37623 37792 38175 38359 38202 37954 37500 37264 37190 37119 37150 37388 37623 37935 37938 37857 37676 37391 37134 37335 37979 38245 38419 38333 38058 37923 37904 37812 37611 37488 37679 37925 37901 37887 37763 37328 36913 36994 37467 37857 38360 38419 38253 38275 38302 38428 38336 38012 37873 37693 37748 37615 37421 37208 37308 37440 37261 37193 37288 37611 38002 38425 39053 39492 39840 40113 40342 40472 40463 40387 40448 40515 40669 40673 40717 40686 40314 39996 39867 39749 39804 39690 39683 39617 39646 39841 39698 39492 39412 39607 39821 40150 40319 40441 40495 40494 40419 40190 39984 39850 39776 39727 39773 39794 39789 39796 39818 39896 40020 40040 39835 39518 39135 38905 38884 39160 39035 39008 38925 38741 38880 38924 38893 39010 39051 39175 39450 39503 39288 38831 38478 38298 38430 38537 38627 38914 39093 38823 38726 38513 38424 38582 38647 39041 39293 39343 38954 38490 38156 38457 38491 38594 38632 38712 38844 38906 38731 38212 37842 37874 38166 38479 38812 38812 38635 38230 37729 37576 37570 37530 37509 37468 37544 37591 38002 38098 37919 37917 37822 37573 37589 37694 37869 37736 37363 37283 37195 37098 37071 37119 37321 37694 37900 37658 37579 37767 37947 38006 38062 38037 37809 37628 37392 37557 37457 37385 37409 37412 37389 37598 37921 37829 37700 37816 37860 37694 37689 37637 37923 38263 38355 37975 37872 37871 37923 37953 37879 38037 38161 38247 38313 38434 38596 38923 39004 38984 38516 37909 37810 37663 37729 37825 37979 38045 38063 38021 38208 38104 38114 38232 38299 38313 38691 38762 38774 38698 38402 38044 37925 37799 37791 37812 37844 37970 38292 38519 38533 38622 38868 39212 39432 39739 39655 39590 40087 39834 39423 39165 38984 38914 38818 38792 38896 39260 39236 39250 39059 38933 39024 38842 38649 38791 38651 38296 38298 38177 37818 37543 37706 38348 38630 38865 38969 39079 38892 38648 38593 38643 38695 38753 38624 38365 38205 38184 38197 38113 37974 38069 38567 38833 38832 38843 39070 39333 39430 39321 38997 39211 39478 39501 39331 39319 39193 39106 38999 38755 38641 38823 38784 38650 38635 38584 38843 39076 38965 38596 38549 38182 37932 37772 37713 37746 37869 38084 38263 38056 37855 37829 37870 37804 38164 38488 38566 38556 38099 37472 37126 36947 36905 36991 37198 37456 37853 37869 37513 37191 37263 37450 37751 37935 37982 38148 38272 38037 37687 37452 37293 37219 37143 37235 37656 37926 38054 38106 38093 38133 38250 38438 38541 38438 38656 38402 38217 38101 37978 37924 37857 37873 37879 38226 38303 38259 38274 38130 38032 38052 37948 37701 37560 37401 37333 37354 37425 37544 37514 37589 37739 37855 37815 37754 37760 37484 37546 37806 37806 38010 38383 38654 38790 38884 38826 38763 38840 38708 38286 38221 38069 37949 37794 37589 37533 37584 37916 37983 38078 38089 37882 37632 37453 37468 37577 37694 37719 37888 37954 37880 37773 37728 37833 37944 37998 38371 38517 38779 38736 38351 38179 38052 37969 37917 37788 37999 38299 37955 37892 37942 38168 38229 38322 38251 38465 38430 38149 38292 38160 38083 38113 38108 38195 38420 38782 38930 39123 38732 38597 38839 38762 38821 38656 38819 38656 38414 38393 38334 38218 38107 38020 38117 38517 38673 38700 38898 39002 39038 39013 38910 38774 38731 38330 38243 38362 38682 38920 38882 38816 38547 38660 38725 38763 38803 39371 39660 39653 39090 38012 38037 38159 37990 38100 38239 38459 38459 38074 37921 37608 37658 37998 38327 38357 38648 38716 38182 37380 37055 36941 37129 37345 37546 37710 37815 37928 37330 36694 36596 36779 37051 37436 37732 37726 37505 37082 36836 36668 36995 37055 37242 37350 37359 37539 37247 36845 36672 36661 36900 37204 37646 37737 37409 37191 37100 37233 37213 37154 37170 37244 37278 37430 37613 37296 37092 37146 37209 37434 37741 37772 37533 37281 37011 37047 37273 37514 37590 37540 37445 37684 37585 37324 37248 37431 37715 37917 37966 37894 37721 37453 37467 37557 37678 37724 37843 37726 37522 37608 38001 38038 38064 38333 38364 38516 38752 38748 38572 38918 39574 39669 39488 39324 39297 39190 39049 38866 38959 38901 38911 38923 39057 39015 38752 38628 38735 38837 38659 38799 38686 38784 38977 39021 39028 39304 39449 39260 39241 39327 39487 39654 39733 39541 39418 39216 39070 38942 38882 38826 38807 38919 39262 39359 39556 39611 39643 39573 39255 39287 39362 39401 39309 39318 39088 39044 39218 39214 39071 38915 38926 39112 39354 39438 39384 39057 38827 38892 38960 38668 38402 38378 38292 38231 38177 38304 38429 38392 38512 38619 38669 38728 38806 38364 38640 39202 39102 38540 38217 38144 37971 37939 38039 38328 38501 38517 38389 38216 38118 38319 38089 37958 38526 38623 38747 38621 38463 37956 37725 37583 37621 37720 37926 38058 38404 38303 38162 38244 38399 38470 38557 38570 38524 38572 38331 37973 37678 37492 37475 37478 37528 37835 37871 37874 37826 37742 37739 37886 38046 38034 38028 37830 37537 37439 37285 37243 37231 37294 37368 37711 37768 37629 37681 37891 37999 38125 38034 37767 37294 37068 37005 36986 36988 37266 37574 37419 37451 37344 36999 36915 37093 37384 37567 37920 37996 37631 37361 37142 36980 36832 36891 37213 37468 37722 38038 37624 37338 37310 37481 37587 37846 37765 37806 37930 37783 37432 37132 36862 36763 37082 37444 37681 38013 38261 38142 37932 37837 37728 37746 37931 38035 38229 37985 37713 37597 37457 37280 37159 37210 37592 38068 38274 38323 38324 38304 38016 38084 38167 38275 38311 38162 37785 37645 37460 37371 37285 37322 37535 38078 38109 37965 37889 37594 37615 37888 37871 37827 37689 37510 37549 37558 37694 37953 38095 38075 38177 38067 37821 37981 38121 38162 38627 38758 38901 38858 38518 38016 37844 37722 37634 37687 37799 37954 38530 38549 38274 38448 38661 38828 39273 39425 39254 39209 38938 38522 38278 38161 38311 38210 38216 38287 38706 38788 38602 38670 38692 38670 39018 39099 38903 39101 38773 38505 38388 38302 38164 38246 38117 38244 38423 38538 38557 38904 39097 39257 39345 39378 39349 39613 39326 39281 39266 39299 39430 39449 39476 39336 39651 39957 40165 40492 40829 41157 41297 40690 39826 39301 38608 38259 38117 38308 38321 38410 38259 38130 37998 38166 38746 39187 39540 39867 39922 39706 39266 38654 38180 38061 38068 38115 38115 38117 38252 38174 37885 37536 37623 37812 38126 38448 38445 38265 37810 37489 37423 37192 36917 36841 37081 37200 37655 37792 37945 38205 38622 38861 38420 38098 37870 37724 37599 37551 37558 37559 37746 37960 38070 38170 38302 38197 38083 38108 38286 38455 38491 38263 38105 37787 37444 37371 37322 37545 37583 37663 37591 37607 37396 37200 37200 37468 37806 38110 38253 38317 38262 37863 37458 37505 37392 37426 37579 37770 37920 38302 37958 37641 37462 37437 37170 37438 37886 38110 38239 38059 37887 37817 37866 37791 37830 37955 38129 38389 38610 38617 38446 38205 38084 38209 38216 38318 38256 38176 37994 37837 37618 37427 37375 37483 37707 38019 38195 38088 38078 38186 38278 38365 38488 38404 38101 37833 37724 37784 37792 37845 37891 37910 37981 38151 37855 37591 37599 37706 38014 38503 38724 38533 37988 37368 37209 37338 37507 37699 37936 38178 38240 38201 37821 37510 37545 37710 37970 38202 38261 38196 38388 38254 37770 37589 37450 37370 37462 37624 37814 38156 37987 37642 37479 37601 37918 38314 38661 38719 38808 38718 38259 37987 37742 37683 37863 38050 38134 38393 38316 38152 37958 37983 38130 38433 38646 38637 38632 38408 38032 37932 37979 37978 37865 37774 37787 38056 37871 37613 37731 38142 38373 38975 39013 38834 38546 38223 38039 37972 38058 38123 38111 38020 37733 37768 37824 37764 37770 37975 37945 38425 38653 38603 38227 37986 37563 37347 37206 37293 37455 37563 37553 37552 37500 37492 37400 37549 37721 38207 38420 38528 38448 38608 38330 37999 37905 37765 37740 37799 37891 38162 38296 38272 38290 38315 38214 38049 38271 38472 38486 38567 38217 37933 37666 37418 37375 37445 37596 37727 38021 38221 38315 38279 37968 38106 38208 38244 38350 38548 38228 37982 37857 37775 37676 37548 37471 37490 37916 38302 38359 38402 38425 38249 38120 38153 38234 38374 38103 37759 37676 37587 37589 37620 37461 37320 37685 38059 38214 38449 38535 38635 38936 39071 39020 38623 38500 38268 38238 38125 38112 38116 38100 38102 38122 38122 37947 37850 37883 37744 38079 38328 38603 38778 38316 37976 37647 37489 37423 37428 37484 37763 38391 38634 38311 38157 38085 38124 38319 38550 38798 39163 39103 38772 38447 38245 38092 37966 37880 38001 38148 38197 38259 38518 38518 38588 38575 38550 38461 38346 37982 37820 37718 37669 37635 37536 37741 38054 38034 37979 37981 38471 38941 39290 39188 38871 38682 38740 38809 39076 39195 39320 39337 39270 38931 38576 38368 38314 38401 38596 38733 39008 38917 38627 38077 37721 37460 37343 37291 37468 37727 37720 37808 37944 37667 37377 37414 37640 37875 38209 38322 38459 38384 37810 37332 37018 36718 36680 36862 37075 37553 37785 37781 37618 37436 37430 37648 37807 37850 37830 37651 37293 37159 37029 36885 37010 37248 37478 37890 37913 37859 37979 37971 38061 38114 38030 37814 37585 37497 37543 37737 37713 37613 37684 37680 37707 37889 37705 37547 37545 37608 37690 37841 38069 37961 37572 37354 37414 37515 37511 37532 37683 37937 38009 38037 37806 37654 37813 38057 38437 38755 38790 38726 38262 37814 37623 37524 37692 37909 38079 38132 38329 38368 38129 37903 37958 38251 38585 38760 38935 39077 38981 38681 38467 38154 37837 37794 37982 38179 38412 38580 38525 38522 38505 38405 38545 38803 38768 38686 38462 38482 38707 38774 38732 38670 38626 38530 38658 38690 38575 38670 38775 38847 38890 38996 38766 38351 38060 37956 38061 38300 38443 38433 38269 38126 38265 38205 37881 37876 38137 38387 38843 38935 38625 38099 37790 37636 37567 37530 37658 37997 38066 38060 38035 37579 37289 37276 37394 37580 37734 37882 38016 37609 36789 36384 36352 36422 36552 36816 37110 37432 37665 37263 36886 36877 37107 37333 37609 37745 37847 37611 37223 36997 36886 36867 37005 37072 37164 37334 37570 37601 37286 37202 37026 37015 37245 37324 37405 37925 38146 37810 37640 37394 37219 37181 37313 37439 37847 38102 38159 38280 38337 38278 38284 38170 38095 38141 38031 37526 37326 37223 37140 36985 36851 36807 37128 37327 37564 37663 37962 38141 38162 38278 38201 38104 38332 37914 37702 37708 37754 37853 37765 37551 37669 37803 38106 38315 38896 39124 39551 39792 39752 39380 39266 39215 39013 39148 39133 39202 39192 38950 38638 38398 38356 38480 38642 38679 39057 39219 39114 38895 38395 37956 37664 37530 37496 37516 37643 37947 38248 38182 38072 38036 37588 37420 37925 38007 38198 38667 38832 38629 38487 38323 38239 38162 38179 38258 38523 38945 39271 39622 39739 39495 39864 40069 40035 39964 39977 39667 39496 39252 39122 38938 38842 38677 38713 38862 38946 39050 38824 38389 38527 38614 38692 38904 38843 38500 38369 38346 38414 38305 38132 38012 38238 38609 38938 39290 39720 39931 40283 40085 39347 38707 38201 37783 37986 38163 38344 38423 38208 38096 37790 37521 37543 37771 38094 38477 38525 38436 38441 37902 37286 36945 36783 36603 36623 36780 36952 37155 37358 37319 37182 37323 37594 37856 38065 37982 38100 38060 37648 37400 37441 37398 37371 37261 37135 37539 37876 37860 37741 37832 37819 37567 37620 37707 37835 37641 37236 37129 36968 36862 36784 36710 36643 37069 37421 37518 37575 38029 38362 38420 38379 38055 37747 37541 37337 37407 37364 37428 37475 37342 37343 37636 37657 37500 37760 38114 38301 38494 38305 37829 37315 37264 37334 37483 37650 37734 37864 37885 37869 37688 37552 37589 37726 37978 38276 38401 38291 37795 37334 37198 37311 37443 37485 37545 37765 37844 38130 37718 37492 37619 37718 37837 38303 38499 38461 38301 38128 37608 37256 37071 36963 37017 37181 37507 37951 38161 38214 38313 38425 38495 38731 38757 38731 38699 38287 38040 37928 38023 37924 37742 37751 37948 38165 38228 38135 38179 38279 38026 38144 38044 37800 37582 37480 37537 37758 37802 37874 37752 37784 37881 37567 37267 37323 37619 37958 38338 38432 38037 37576 37366 37294 37187 37134 37175 37368 37431 37457 37597 37625 37486 37478 37655 37774 37958 38100 38197 38161 37507 37077 36873 36801 36836 36946 37068 37053 37629 37481 36943 36777 36893 36996 37225 37342 37436 37350 37086 36940 37094 37193 37332 37492 37643 37853 37891 37803 37675 37540 37519 37545 37620 37743 37583 37236 36925 36644 36902 36973 37434 38908 40044 41120 41172 41288 41691 41652 41799 42320 42612 42884 43089 43211 43181 43203 43374 43583 43757 43904 43678 43316 42916 42320 41833 41667 41373 41172 40820 40185 39620 39174 38769 38553 38454 38427 38354 38311 38210 37874 37570 37463 37390 37302 37349 37389 37474 37346 36618 36229 36167 36416 36627 36773 36870 37036 37315 37125 36646 36278 36117 36346 36865 37142 36974 36908 36570 36179 35948 36189 36177 36324 36433 36958 36999 36928 36924 36899 36724 36462 36573 36630 36562 36503 36240 36394 36375 36553 36559 36423 36421 36693 36625 36343 36298 36362 36461 36587 36671 36649 36533 36196 35980 35984 35977 36021 36106 36141 36217 36527 36603 36655 36690 36862 37145 37409 37628 37580 37247 36714 36481 36308 36381 36607 36691 36873 37148 37305 37235 36973 36684 36619 36777 37003 37172 37149 37018 36576 36327 36115 36166 36306 36509 36669 37085 37457 37351 37047 36686 36642 36817 37042 37234 37493 37397 37164 37034 36705 36518 36420 36489 36605 37275 37499 37395 37422 37432 37526 37506 37437 37488 37637 37395 37114 37153 37028 37103 36886 36829 36570 36323 36050 35953 35951 36162 36659 36964 37041 37123 36815 36250 36030 35973 36164 36410 36726 36701 36838 37075 37038 36929 36793 36778 36720 36985 37056 37052 36863 36578 36442 36351 36552 36991 37077 37049 37051 36904 36517 36517 36632 36485 36496 36824 37029 37087 36948 36422 36020 35871 35883 35910 35954 36072 36473 36703 36516 36308 35976 35855 36059 36449 36720 37180 37480 37257 36703 36263 36051 36011 36049 36142 36381 36783 36915 36610 36320 36142 36203 36422 36657 36771 36702 36231 36038 35849 35696 35651 35700 35910 36342 36671 36554 36256 36037 35816 35605 35772 35989 36501 36709 36438 36197 36034 36015 35878 35854 36077 36574 36837 36812 36838 36660 36443 36296 36368 36513 36621 36579 36446 36557 36688 36843 36877 36743 36651 36719 37022 36845 36561 36521 36635 36782 36904 36850 36751 36579 36437 36530 36819 36856 36955 36882 36770 36848 37077 36860 36843 37000 37147 37395 37628 37557 37381 37045 36898 36878 36694 36556 36598 36839 36916 36905 37218 37449 37506 37332 37400 37711 37878 37991 38040 37577 37156 36887 36677 36713 37088 37167 37230 37554 37540 37246 37251 37384 37544 37718 37740 37847 37763 37104 36771 36623 36778 36933 37144 37247 37384 37794 37798 37515 37247 37132 37133 37249 37531 37722 37616 37089 36967 36715 36723 36668 36832 37013 37462 37727 37675 37654 37584 37477 37519 37584 37506 37293 36822 36720 36732 36811 36803 36741 36949 37230 37524 37353 37148 37016 36904 36830 36826 36940 36997 36683 36476 36381 36504 36620 36831 36979 36892 36989 37109 36662 36515 36440 36227 36530 37014 37168 36805 36320 36295 36433 36635 36737 36863 36960 37004 37157 36926 36811 36958 37106 37357 37620 37769 37860 37619 37076 36693 36699 36780 37017 37157 37251 37398 37702 37476 37354 37184 37119 37262 37399 37689 37866 37725 37542 37249 36999 36965 36863 36892 37090 37599 37725 37631 37586 37549 37366 36921 37159 37487 37503 37568 37266 37026 36831 36749 36831 36926 37109 37675 37811 37896 37928 38104 37984 37690 37844 37845 38091 38342 38413 38252 38185 38108 38127 37977 37823 37900 38092 38145 38202 38610 39046 39239 39127 38947 38951 38726 38478 38173 38076 38043 38038 37876 37626 37847 38189 38331 38479 38562 38732 38964 39031 38891 38588 38356 38065 37741 37598 37694 38099 38133 38239 38217 38436 38631 38709 38779 38594 38171 37834 37778 37779 37845 37836 37833 38165 38134 37858 37680 37681 37814 38133 38273 38405 38281 38111 38307 38401 38333 38369 38447 38404 38281 38357 38176 37941 37892 37857 37839 37817 37752 37606 37511 37317 37171 37130 37015 36901 36728 36909 37452 37668 37859 38031 38253 38642 39109 39229 39184 39191 39133 39208 39654 40130 40704 41306 41636 41633 41664 41658 41773 41925 42089 42210 42305 42288 41872 41083 40435 40062 39779 39571 39474 39468 39454 39391 38826 38327 37902 37810 37588 37486 37865 38436 38682 38190 37843 37384 37189 37026 37030 37033 37148 37476 37546 37306 36923 36837 36877 37028 37226 37284 37218 37113 36805 36722 36594 36641 36671 36782 37138 37476 37321 37008 36710 36576 36639 36929 37078 37150 37103 36968 37040 37205 37340 37345 37249 37202 37221 37341 37209 37048 37007 37152 36858 36883 36782 36700 36543 36427 36351 36525 36820 36928 36820 36706 36841 36918 36741 36755 36916 37212 37556 37627 37303 36970 36928 37197 37431 37492 37561 37614 37610 37458 37265 36676 36359 36471 36902 37458 38094 37985 37642 36958 36491 36569 36705 36908 37117 37256 37298 37608 37441 37052 36996 37109 37278 37409 37790 37721 37564 37335 37330 37270 37376 37389 37515 37543 37787 38063 37956 37918 38136 38452 38772 38961 38902 38956 38981 38773 38532 38693 38654 38587 38404 38364 38551 38564 38361 38501 38708 38841 38473 38619 38756 39048 39244 39018 38822 38666 38603 38636 38507 38404 38590 38708 38654 38626 38683 38801 38910 38888 38749 38361 37938 37749 37769 38006 38096 38095 38130 38179 38310 38422 38721 38512 38154 38264 38824 39049 38921 38733 38385 38064 37908 38026 37985 37947 37916 38264 38344 38122 37860 37490 37410 38108 38514 38537 38496 38551 38247 38136 38060 37929 37828 37743 37829 38002 38175 38289 38414 38429 38105 38212 38435 38258 38156 37816 37655 37627 37906 37601 37568 37690 37852 37849 37684 37597 37609 37813 37872 37650 37681 37551 37407 37319 37350 37404 37520 37613 37377 37384 37483 37590 37692 37890 38117 38482 38679 38675 38445 38113 37668 37454 37355 37387 37749 37788 37920 37951 37958 37825 37983 38297 38495 38569 38844 38714 39001 38543 38090 37879 37913 38049 38108 38150 38243 38387 38382 38062 37745 37607 37638 37630 37587 37447 37338 37363 37460 37660 38032 38387 38718 39045 39375 39735 39934 39840 40036 40089 40080 40305 40523 40651 40886 41116 41186 41037 41050 41117 41125 41153 41172 41199 41090 40964 40875 40912 40679 40170 39884 39909 39882 39947 40084 40243 40385 40511 40454 40164 39844 39689 40024 40408 40141 40862 41161 41288 40968 40796 40758 40702 40606 40456 40295 40278 40132 39909 39625 39414 39233 39165 38992 38916 38927 38747 38587 38460 38477 38442 38517 38544 38654 38938 39194 39451 39651 40069 40206 40365 40529 40571 40636 40631 40844 40873 40945 40951 40952 40830 40674 40662 40548 40434 40304 40251 40188 40042 39721 39461 39243 38965 38662 38542 38402 38443 38416 38339 38165 38150 38118 37982 37953 37864 37721 38004 38159 37776 37271 36986 37112 37399 37485 37475 37734 37881 37800 37458 37138 36950 37021 36880 36941 37312 37544 37518 36993 36573 36630 36875 37155 37246 37391 37500 37567 37446 36973 36608 36588 36944 37328 37679 37761 37526 37194 36764 36853 36609 36568 36750 36957 36982 37068 37142 37090 37146 37062 37202 37559 37541 37247 37308 37215 37114 37012 36913 36964 37029 36980 37029 37366 37428 37418 37604 37658 37868 38065 37866 37669 37560 37219 37440 37472 37583 37835 37992 37845 37894 37877 37881 38081 38241 38464 38860 39069 38723 38180 37876 37789 38007 37861 37853 37972 38206 38214 38333 38399 38324 38357 38546 38495 38487 38438 38408 38071 37690 37801 37703 37536 37527 37741 37942 38182 38357 38324 38010 37758 37595 37738 38033 38233 38412 38293 38085 38032 38292 38436 38680 38898 38899 38899 38922 38720 38687 38643 38613 38932 39066 38869 38622 38263 38261 38156 38013 38008 38264 38151 38304 38594 38708 38866 39028 39287 39534 39949 39893 39399 39058 38741 38591 39040 39187 39237 39108 38892 38811 38924 38697 38581 38746 39003 39334 39309 39021 38646 38084 37804 37976 38038 38132 38318 38424 38159 38168 38009 37855 37900 37915 37985 38190 38312 38371 38291 37825 37444 37254 37116 37097 37170 37406 37631 37763 37690 37544 37570 37653 37986 38294 38235 38020 37866 37253 37007 37081 37351 37572 37645 37704 37874 37921 37855 37893 37709 37200 37588 37858 38230 38669 38436 38172 38139 38137 38106 38092 38129 38254 38305 38325 38289 38309 38464 38574 38617 38515 38269 38106 37724 37459 37399 37340 37265 37153 37120 36970 37279 37331 37336 37482 37645 37562 37417 37234 36885 36773 36758 37115 37359 37553 37662 37688 37589 37457 37263 37019 37028 37016 36842 37035 37473 37296 36997 36737 36693 36742 36659 36638 36715 36895 36972 37042 37145 37163 37307 37332 37437 37356 37641 38157 38169 37989 37763 37537 37324 37194 37174 37219 37288 37379 37359 37498 37335 37451 37779 38050 38426 38352 38021 37826 37487 37192 37063 37052 37128 37281 37560 37822 37978 37888 37761 37417 37201 37123 37501 37893 37973 38011 37799 37581 37360 37526 37587 37622 37652 38024 38132 38150 38086 37946 38040 38112 38191 38125 38044 37749 37815 37775 37720 37572 37425 37298 37243 37570 37812 37965 38209 38419 38620 38622 38343 37963 37809 37835 37899 38089 38007 37966 37889 37979 38112 38249 38161 38255 38467 38908 39203 39144 38854 38530 38145 37935 37856 37666 37712 37908 38066 38001 38032 38022 38012 37987 37968 38086 38434 38570 38151 37655 37577 37494 37605 37728 37880 37967 37966 38127 37838 37487 37251 37287 37236 37515 37792 38021 37921 37623 37249 36990 36764 36752 36819 37055 37149 37528 37470 37168 36891 36545 36695 37248 37372 37595 37812 37416 37184 37032 36913 36960 36856 36716 36876 37207 37206 37075 37183 37241 37171 37061 37070 37188 37244 37135 36987 36928 36847 36635 36503 36689 36936 37216 37276 37219 37328 37538 37744 37702 37576 37615 37392 37304 37237 37339 37411 37492 37390 37245 37521 37595 37551 37597 37622 37608 37607 37773 37695 37693 37214 36923 36838 36794 36868 37004 37124 37172 37429 37525 37543 37550 37689 37847 37818 37904 37945 37634 37272 37140 37033 37079 37290 37391 37485 37555 37754 37786 37672 37560 37578 37790 37880 38021 38172 38242 37597 37241 37104 37067 37259 37513 37627 37845 38214 38138 37972 37961 37974 37954 38097 38267 38411 38323 37868 37671 37488 37365 37403 37578 37573 37901 38176 38183 38135 37960 37777 37760 37777 37615 37765 37803 37507 37243 37300 37394 37452 37483 37596 37846 37981 37929 38090 37783 38005 38342 38433 38234 37883 37500 37492 37373 37447 37528 37551 37554 37537 37946 38021 37926 37944 37828 37991 38186 38170 38194 37961 37496 37409 37391 37598 37738 37765 37720 37856 37981 37868 37695 37663 37725 38032 38354 38227 37992 37645 37133 37136 37119 37211 37375 37475 37296 37229 37347 36983 36766 36747 36764 36934 36955 36939 37078 36756 36514 36359 36406 36499 36667 36860 36919 36982 36914 36951 36661 36586 36560 36726 37008 37233 37224 36990 36743 36689 36770 36821 36956 37033 37066 36949 37034 37040 36825 36839 37080 37169 37271 37477 37651 37505 37017 36489 36281 36235 36283 36659 36743 36851 37100 36943 36924 37152 37328 37324 37436 37544 37544 37292 36884 36792 36547 36601 36757 36910 36981 37184 37434 37366 37296 37312 37393 37666 37847 37917 38000 38077 37722 37025 36804 36769 36778 37017 37194 37284 37705 37810 37646 37696 37818 37805 37913 37958 38162 38326 38026 37668 37419 37253 37176 37220 37123 37234 37697 37778 37619 37603 37562 37547 37722 37886 37993 38292 38303 38133 37766 37663 37590 37542 37523 37598 37971 38269 38186 38000 37785 37731 37881 38008 38352 38763 38929 38606 38293 38089 37906 37840 37744 37747 38072 38528 38606 38572 38316 37749 37924 38168 38300 38497 38048 37804 37617 37439 37204 37000 36882 36939 37361 37711 37761 37976 37783 37424 37564 37657 37764 37818 37778 37707 37623 37505 37607 37453 37349 37462 37684 37778 37586 37376 37188 37105 37024 37059 37191 37119 37242 37207 37338 37393 37319 37231 37164 37217 37199 37132 37146 37270 37266 37167 37159 37155 36940 36753 36602 36526 36423 36634 36789 36661 36634 36852 36905 36817 36784 36724 36778 36897 36944 36941 36914 36587 36870 37044 36994 36954 37008 36926 36823 36903 37037 36819 36742 36704 36732 36934 36974 36897 36809 36428 36382 36483 36451 36353 36347 36296 36251 36493 36764 36757 36871 36833 36873 36970 37161 37060 36888 36563 36685 36860 36666 36634 36682 36731 36596 36510 36908 36980 37131 37302 37449 37881 38083 37731 37141 36966 36968 37096 37162 37338 37524 37537 37427 37583 37382 37183 37307 37721 38134 38530 38583 38227 37776 37537 37581 37613 37755 38111 38302 38290 38187 37772 37326 37230 37473 37832 38259 38571 38610 38297 37684 37441 37400 37387 37716 37862 37943 38018 38130 37636 37265 37343 37632 37788 38128 