38915 38582 38181 37796 37413 37622 43043 46729 46228 43505 47116 47121 47116 47107 47114 47116 47112 47121 47119 47121 47106 47093 47098 47097 47165 47126 47097 47064 47020 46978 46948 46930 46914 46915 46913 46909 46904 46897 46898 46894 46898 46911 46994 47055 47096 47102 47042 46936 44975 44964 44958 44943 44923 44906 44859 44784 44714 44634 44568 44517 44443 44406 44340 44301 44258 44205 44174 44154 44118 44091 44025 43949 43924 43889 43832 43895 43875 43847 43830 43821 43811 43826 43862 43910 43991 44053 43969 43885 43834 43804 43815 43860 43931 44084 44098 44095 44081 44106 44124 44268 44378 44401 44396 44313 44249 44228 44230 44296 44400 44447 44474 44494 44543 44574 44602 44638 44671 44709 44712 44703 44643 44622 44665 44699 44706 44775 44777 44722 44663 44592 44546 44533 44589 44679 44707 44699 44654 44643 44602 44612 44633 44661 44689 44672 44606 44596 44602 44611 44658 44751 44787 44763 44727 44670 44622 44627 44660 44716 44745 44725 44692 44638 44659 44684 44720 44774 44782 44775 44730 44669 44639 44642 44675 44718 44753 44779 44787 44732 44720 44727 44738 44797 44880 44941 44982 44957 44916 44867 44859 44873 44892 44921 44938 44894 44850 44798 44779 44786 44836 44912 44936 44955 44941 44912 44878 44855 44848 44856 44844 44888 44910 44862 44844 44872 44906 44949 45033 45090 45121 45092 45033 44995 44967 44962 44974 44966 45005 45018 44979 44952 44964 44983 44975 45038 45062 45084 45047 45019 44989 44977 44949 44995 45028 45085 45109 45080 45045 45027 45030 45062 45143 45188 45244 45227 45223 45196 45199 45238 45274 45279 45303 45281 45210 45173 45157 45148 45182 45228 45301 45290 45276 45262 45242 45250 45255 45254 45250 45261 45215 45159 45145 45170 45194 45266 45302 45312 45321 45284 45257 45232 45195 45223 45276 45301 45316 45276 45241 45244 45251 45270 45363 45372 45359 45358 45339 45291 45289 45282 45297 45332 45322 45315 45311 45292 45313 45341 45366 45376 45382 45374 45358 45349 45342 45354 45380 45399 45481 45572 45658 45703 45761 45822 45853 45872 45880 45860 45862 45904 45904 45908 45956 45987 46004 45986 45951 45924 45935 45919 45901 45913 45930 45964 45966 45989 45985 45960 45947 45886 45995 45983 46001 45981 45956 45957 45856 45767 45733 45788 45903 45855 45668 45459 45287 45284 45489 45596 45686 45848 45720 45796 45690 45581 45523 45589 45687 45769 45585 45366 45244 45181 45178 45406 45622 45743 45863 45828 45883 45790 45680 45786 45974 46174 46352 46367 46278 46178 46154 46162 46179 46239 46335 46310 46191 46141 46059 45839 45639 45585 45539 45546 45426 45295 45168 45030 44911 45047 45312 45475 45612 45584 45667 45647 45569 45510 45533 45513 45490 45502 45399 45287 45181 44985 45088 45308 45408 45513 45554 45656 45649 45567 45538 45531 45467 45602 45668 45560 45410 45274 45272 45451 45560 45629 45744 45677 45722 45672 45578 45522 45599 45579 45561 45552 45559 45536 45406 45280 45406 45543 45621 45630 45483 45551 45658 45617 45559 45581 45668 45772 45781 45749 45690 45672 45718 45813 45925 45945 45956 45955 45928 45964 45980 46003 46031 46069 46030 45915 45956 45889 45818 45770 45796 45976 46011 46101 46216 46265 46282 46207 46127 46183 46127 46035 45984 45942 45810 45774 45759 45766 45951 45937 46067 46120 46193 46100 45909 45824 45808 45739 45786 45746 45640 45590 45580 45585 45524 45688 45894 46148 46275 46354 46401 46333 46262 46234 46256 46264 46270 46241 46182 46069 45820 45674 45898 46099 46296 46529 46492 46470 46413 46306 46229 46160 46084 46107 46048 45997 45939 45949 45932 45878 45883 45954 45943 45926 45808 45700 45584 45488 45441 45356 45248 45162 45019 44960 44949 44864 44803 44747 44694 44636 44661 44571 44568 44590 44639 44647 44606 44548 44429 44358 44335 44358 44397 44434 44450 44489 44480 44333 44232 44176 44099 44059 44030 43977 44000 43899 43753 43710 43681 43644 43506 43490 43508 43553 43500 43489 43556 43669 43834 43984 44047 43954 43820 43673 43540 43455 43434 43465 43543 43646 43666 43574 43469 43384 43332 43330 43352 43393 43420 43479 43508 43553 43622 43723 43740 43731 43782 43878 43909 43784 43685 43630 43612 43617 43633 43605 43650 43678 43674 43702 43755 43833 43860 43899 43973 43964 43816 43680 43582 43512 43468 43487 43553 43617 43704 43793 43842 43849 43828 43820 43800 43842 43955 43978 43906 43880 43879 43922 43935 43992 44190 44359 44456 44559 44597 44576 44580 44603 44644 44659 44607 44456 44339 44248 44239 44270 44331 44394 44509 44574 44574 44535 44508 44497 44489 44542 44605 44645 44578 44541 44455 44410 44386 44396 44437 44573 44662 44689 44693 44677 44725 44760 44740 44775 44736 44654 44613 44560 44519 44557 44598 44668 44821 44860 44860 44817 44770 44736 44753 44794 44833 44864 44856 44856 44770 44693 44637 44659 44696 44810 44856 44868 44886 44884 44903 44899 44908 44912 44948 44978 45062 45167 45243 45344 45470 45570 45679 45750 45738 45748 45713 45687 45688 45715 45756 45770 45802 45705 45621 45521 45484 45460 45513 45576 45666 45706 45751 45756 45770 45764 45728 45724 45714 45696 45655 45563 45488 45487 45528 45564 45592 45641 45618 45614 45620 45614 45617 45603 45628 45707 45751 45669 45624 45556 45543 45528 37767 37880 38018 38157 38228 38304 38323 38316 38268 38248 38249 38255 38270 38250 38260 38189 38194 38155 38122 38123 38129 38163 38205 38240 38236 38220 38223 38219 38209 38191 38160 38065 38003 37969 37944 37942 37953 37983 38001 38041 38072 38073 38074 38063 38069 38067 38085 38142 38132 38063 38050 38010 37948 37941 37907 37919 37968 38010 38037 38101 38119 38118 38115 38084 38068 38080 38096 38037 38039 38018 37992 37991 37982 37994 37949 38003 38072 38100 38126 38151 38162 38164 38173 38170 38165 38115 38122 38103 38113 38103 38133 38153 38198 38292 38391 38407 38394 38366 38363 38358 38365 38386 38412 38409 38389 38361 38308 38258 38259 38267 38276 38301 38335 38368 38382 38404 38422 38418 38393 38385 38411 38369 38365 38361 38364 38348 38357 38377 38345 38417 38484 38488 38509 38534 38539 38533 38561 38573 38565 38547 38515 38465 38419 38416 38450 38440 38471 38579 38608 38639 38657 38651 38619 38624 38634 38629 38634 38715 38776 38789 38820 38867 38953 39042 39084 39130 39132 39140 39144 39192 39179 39208 39167 39106 39044 39001 38935 38898 38921 38928 38995 39037 39062 39095 39086 39069 39081 39071 39083 39088 39084 39014 38986 38931 38889 38874 38869 38855 38862 38924 38981 38993 39009 38993 39027 39039 39037 39001 38945 38876 38879 38899 38917 38914 38964 39071 39097 39119 39091 39094 39073 39061 39098 39112 39119 39077 39066 39068 39016 39026 39017 39037 39093 39145 39225 39236 39247 39237 39266 39258 39266 39222 39173 39159 39122 39094 39057 39079 39109 39180 39227 39253 39252 39249 39214 39214 39217 39251 39250 39238 39232 39195 39155 39133 39114 39135 39165 39214 39254 39287 39297 39298 39310 39310 39296 39295 39262 39230 39226 39196 39172 39172 39182 39183 39230 39267 39267 39261 39242 39240 39248 39263 39288 39260 39203 39187 39100 39057 39030 39014 39030 39087 39123 39160 39158 39169 39173 39166 39169 39169 39110 39086 39066 39025 39014 39024 39037 39054 39067 39097 39131 39118 39122 39127 39136 39158 39188 39177 39097 39080 39027 39009 38973 38981 38975 39030 39053 39071 39129 39113 39103 39094 39091 39085 39087 39006 38881 38795 38756 38819 38971 38987 39090 39123 39128 39135 39158 39196 39208 39208 39212 39118 39120 39090 39036 39022 39002 38992 38987 39086 39127 39130 39158 39199 39208 39189 39194 39188 39141 39091 39076 39028 39011 39030 39037 39043 39100 39130 39166 39135 39157 39193 39179 39184 39218 39189 39097 39071 39058 39017 38999 38995 38971 39033 39101 39161 39157 39141 39153 39152 39149 39145 39167 39141 39079 39048 39011 39015 39005 38992 38978 39014 39068 39093 39082 39108 39115 39127 39122 39146 39110 39034 39010 38965 38954 38928 38940 38955 38973 39049 39098 39087 39083 39092 39091 39098 39087 39117 39040 39002 38989 38957 38897 38895 38873 38874 38908 38988 39036 39063 39067 39083 39099 39104 39109 39094 39045 38979 38928 38936 38906 38897 38925 38931 38996 39015 39031 39032 39028 39040 39058 39034 39089 39084 38972 38915 38869 38840 38806 38810 38810 38847 38925 38950 38980 39011 39011 39018 39013 39029 39054 39003 38919 38905 38871 38866 38877 38886 38894 38935 38950 38979 38974 38961 38988 38994 38991 39010 38993 38937 38940 38914 38894 38898 38901 38902 38964 39023 39080 39089 39101 39109 39130 39101 39125 39137 39053 39066 39011 38997 38998 39017 39019 39097 39115 39158 39155 39145 39166 39148 39163 39210 39194 39117 39098 39036 38970 38969 38980 38979 39054 39082 39146 39142 39156 39166 39153 39128 39152 39153 39124 39126 39097 39092 39076 39098 39111 39182 39208 39221 39252 39242 39270 39273 39280 39299 39311 39278 39199 39131 39052 39033 39031 39046 39046 39095 39155 39172 39172 39158 39144 39145 39136 39175 39181 39123 39098 39038 38982 38957 38940 38906 38957 38971 38994 39014 38997 39001 38995 39018 39030 39016 38918 38885 38800 38767 38749 38755 38777 38822 38875 38911 38911 38899 38927 38931 38944 38953 38951 38905 38906 38895 38849 38797 38794 38806 38860 38884 38967 39011 39030 39029 39060 39051 39039 39012 38983 38894 38864 38831 38803 38784 38810 38860 38938 38931 38948 38979 38957 38988 39009 39004 39030 39069 39099 39062 39077 39131 39162 39208 39233 39268 39284 39286 39317 39316 39350 39361 39405 39463 39553 39651 39703 39698 39669 39651 39656 39646 39665 39695 39727 39736 39724 39746 39773 39776 39813 39873 39849 39825 39783 39795 39797 39763 39765 39773 39776 39831 39827 39809 39796 39758 39729 39707 39694 39706 39699 39658 39621 39588 39590 39561 39534 39555 39557 39559 39598 39601 39647 39652 39643 39659 39664 39699 39730 39713 39713 39750 39777 39799 39833 39877 39901 39931 39942 39959 39959 39949 39977 39987 40026 40038 40032 40007 39982 39982 39983 40011 40035 40076 40077 40098 40103 40101 40073 40050 40058 40098 40084 40088 40050 40015 39983 39946 39928 39883 39890 39868 39861 39829 39817 39800 39791 39790 39754 39734 39702 39617 39545 39455 39415 39360 39353 39341 39313 39268 39203 39171 39121 39108 39111 39081 39086 39122 39115 39072 38954 38822 38739 38724 38703 38685 38700 38688 38671 38643 38600 38553 38538 38542 38522 38557 38552 38516 38458 38410 38365 38324 38288 38313 38341 38364 38360 38362 38356 38399 38399 38382 38400 38372 38312 38279 38291 38255 38289 38325 38371 38402 38326 38259 38236 38241 38248 38267 38310 38396 38479 38455 38361 38330 38315 38321 38362 38410 38454 38498 38493 38513 38490 38452 38429 38404 38472 38499 38551 38513 38475 38470 38427 38390 38382 38402 38402 38431 38432 38440 38469 38502 38514 38494 38494 38506 38475 38423 38376 38381 38376 38399 38387 38401 38343 38303 38330 38323 38349 38358 38354 38368 38409 38392 38312 38266 38217 38194 38208 38262 38304 38365 38394 38370 38369 38357 38386 38407 38439 38505 38573 38646 38714 38784 38859 38908 38938 38924 38893 38900 38894 38832 38727 38670 38711 38699 38726 38736 38749 38787 38779 38733 38734 38682 38624 38599 38570 38586 38560 38546 38550 38542 38547 38586 38550 38516 38476 38441 38389 38383 38346 38375 38399 38384 38371 38283 38212 38174 38160 38182 38217 38241 38248 38208 38138 38110 38073 38082 38116 38129 38151 38195 38161 38141 38106 38092 38091 38089 38105 38104 38132 38153 38140 38138 38127 38109 38162 38189 38206 38258 38318 38374 38407 38445 38476 38494 38477 38507 38573 38594 38604 38605 38608 38611 38618 38622 38655 38680 38728 38735 38761 38792 38834 38852 38883 38910 38896 38906 38873 38844 38809 38788 38784 38809 38828 38870 38864 38907 38911 38931 38932 38922 38932 38982 38990 38982 38928 38869 38858 38861 38849 38875 38927 38943 38960 38945 38947 38908 38862 38839 38839 38869 38895 38909 38875 38835 38795 38770 38794 38828 38861 38869 38851 38877 38892 38876 38867 38850 38840 38878 38914 38915 38881 38870 38834 38837 38825 38869 38900 38906 38915 38929 38894 38904 38881 38916 38918 38925 38901 38875 38816 38788 38776 38785 38805 38866 38871 38847 38852 38843 38828 38797 38799 38849 38894 38889 38875 38832 38820 38814 38850 38872 38926 38967 38996 38985 38997 38997 38986 38957 38986 39025 39084 39131 39151 39163 39155 39136 39139 39162 39195 39211 39222 39237 39251 39245 39239 39244 39215 39219 39211 39206 39166 39168 39152 39177 39177 39183 39215 39175 39173 39178 39165 39156 39150 39187 39184 39188 39212 39205 39220 39228 39230 39269 39319 39388 39411 39381 39370 39360 39327 39298 39300 39289 39301 39321 39316 39249 39217 39186 39163 39174 39189 39230 39258 39253 39268 39268 39191 39155 39109 39131 39172 39184 39122 39069 39029 39008 38968 38917 38920 38963 38964 38970 38982 38966 38934 38934 38890 38848 38756 38689 38652 38682 38733 38775 38811 38813 38800 38759 38730 38705 38740 38755 38777 38853 38937 38992 39055 39026 38979 38947 38892 38857 38853 38862 38845 38854 38827 38832 38815 38826 38827 38860 38856 38875 38884 38859 38821 38791 38748 38728 38715 38721 38755 38762 38753 38771 38745 38731 38701 38688 38672 38656 38622 38579 38564 38533 38515 38454 38421 38427 38434 38432 38428 38435 38449 38464 38442 38403 38406 38372 38338 38310 38285 38285 38274 38278 38263 38249 38208 38149 38146 38152 38147 38151 38165 38165 38154 38084 38029 37944 37903 37881 37870 37851 37852 37842 37785 37712 37657 37613 37588 37572 37585 37600 37600 37561 37493 37409 37382 37375 37393 37426 37493 37556 37584 37618 37638 37624 37606 37625 37640 37693 37715 37696 37636 37596 37541 37448 37392 37367 37340 37298 37243 37194 37170 37155 37107 37047 37031 37043 37077 37086 37082 37107 37144 37198 37200 37203 37221 37246 37325 37428 37562 37689 37845 37968 38079 38159 38227 38259 38263 38227 38194 38162 38104 38086 38046 38039 38045 38078 38154 38250 38346 38456 38524 38548 38522 38495 38443 38413 38382 38354 38328 38328 38351 38351 38334 38299 38272 38240 38200 38160 38138 38143 38176 38158 38092 38012 37940 37889 37839 37814 37817 37855 37897 37884 37888 37876 37874 37850 37862 37881 37909 37951 37949 37928 37863 37798 37764 37741 37764 37813 37846 37874 37876 37888 37863 37831 37792 37781 37807 37853 37823 37797 37777 37741 37725 37721 37766 37828 37838 37880 37909 37915 37915 37916 37906 37904 37861 37829 37809 37823 37818 37811 37870 37928 37984 38021 38038 38075 38101 38138 38178 38240 38300 38416 38540 38589 38649 38715 38799 38886 38996 39097 39168 39254 39321 39377 39409 39447 39477 39461 39410 39277 39284 39347 39383 39451 39527 39559 39659 39654 39653 39649 39632 39695 39784 39869 39991 40007 40003 39997 40027 40133 40173 40187 40242 40287 40333 40351 40366 40384 40297 40175 40148 40179 40201 40164 40219 40306 40408 40436 40450 40460 40471 40498 40512 40525 40578 40601 40580 40508 40478 40455 40449 40451 40485 40461 40448 40394 40327 40261 40226 40207 40190 40176 40150 40098 40032 39941 39871 39821 39770 39763 39733 39675 39616 39552 39495 39457 39359 39313 39278 39254 39211 39192 39116 39058 39000 38965 38894 38815 38735 38613 38518 38458 38410 38369 38330 38237 38152 38067 38007 37947 37859 37795 37797 37792 37793 37707 37545 37395 37288 37214 37182 37178 37196 37242 37280 37199 37135 37030 36941 36903 36879 36890 36909 36954 36879 36719 36592 36461 36394 36352 36343 36403 36451 36523 36552 36519 36447 36447 36480 36562 36646 36681 36618 36561 36498 36393 36294 36217 36209 36252 36324 36364 36374 36373 36369 36308 36203 36136 36113 36063 36001 35946 35924 35923 35936 35925 35870 35878 35893 35885 35937 35923 35916 35913 35934 35956 35935 35912 35846 35789 35784 35808 35837 35876 35974 36074 36071 36069 36070 36049 36036 36018 36058 36107 36165 36213 36166 36093 36086 36069 36111 36180 36245 36339 36399 36411 36367 36295 36247 36205 36197 36250 36332 36379 36397 36369 36331 36277 36254 36268 36321 36428 36445 36488 36549 36591 36590 36533 36498 36501 36551 36647 36676 36688 36754 36811 36843 36855 36892 36964 36984 36995 37031 37054 37047 37036 37026 36981 36959 37006 37004 36984 37004 37036 37046 37082 37109 37100 37045 36988 36966 36932 36899 36894 36893 36923 36933 36873 36734 36675 36648 36670 36701 36806 36922 37048 37127 37152 37176 37176 37144 37168 37233 37319 37379 37520 37720 37914 38041 38140 38219 38283 38347 38410 38447 38485 38570 38555 38579 38656 38737 38824 38851 38881 39006 39148 39263 39362 39458 39502 39549 39569 39572 39561 39574 39567 39571 39630 39677 39692 39647 39650 39695 39776 39822 39934 40009 40079 40099 40119 40141 40166 40147 40113 40047 40009 40028 40067 40106 40137 40125 40085 40063 40009 39959 39906 39866 39787 39664 39541 39454 39358 39275 39180 39112 39058 38991 38893 38768 38597 38433 38303 38201 38146 38124 38120 38096 37957 37812 37698 37607 37541 37499 37477 37500 37547 37546 37414 37222 37098 36992 36964 36954 36958 37024 37053 37037 36954 36853 36730 36657 36608 36614 36639 36673 36621 36512 36337 36236 36175 36193 36265 36338 36379 36387 36406 36363 36239 36118 36032 36032 36082 36123 36052 36015 35981 35959 35873 35821 35842 35892 35925 35952 35952 35939 35938 35911 35821 35788 35794 35835 35779 35753 35775 35811 35873 35878 35850 35861 35893 35908 35971 36009 36019 36017 36051 36077 36081 36082 36023 35984 36003 36006 36047 36100 36188 36278 36285 36287 36302 36300 36305 36305 36356 36414 36528 36574 36535 36468 36427 36431 36449 36525 36607 36745 36836 36894 36859 36836 36800 36780 36784 36855 36937 37034 37048 37019 36959 36903 36887 36908 36976 37071 37130 37214 37206 37221 37176 37123 37079 37106 37185 37239 37240 37218 37249 37240 37201 37189 37215 37272 37293 37324 37359 37353 37346 37356 37366 37362 37405 37393 37381 37383 37411 37417 37446 37472 37439 37408 37388 37400 37433 37497 37531 37590 37657 37667 37637 37576 37472 37382 37383 37384 37422 37458 37453 37401 37289 37175 37101 37063 37039 37056 37087 37096 37107 37102 37029 36960 36955 36989 37044 37067 37091 37073 37098 37196 37292 37265 37205 37237 37235 37336 37335 37319 37322 37360 37391 37347 37278 37234 37173 37108 37043 36977 36988 37013 37047 37077 37069 37079 37070 37056 37088 37164 37235 37279 37337 37364 37410 37536 37667 37766 37836 37866 37910 37971 38032 38069 38087 38085 38044 38029 38028 38023 38061 38100 38126 38141 38127 38090 38020 37978 37933 37946 37975 38024 38078 38021 37966 37915 37869 37853 37854 37845 37890 37950 38022 38014 37968 37922 37878 37893 37956 38017 38018 38011 37996 37956 37951 37918 37925 37934 37955 38000 38053 38047 38064 38044 38018 38005 38025 38060 38043 38021 38012 38015 38020 38034 38047 38032 38010 38001 38027 38030 37989 37979 37982 38031 38035 38078 38070 38027 38034 38034 38054 38080 38149 38214 38196 38155 38117 38056 38027 38008 38007 38050 38099 38116 38039 37961 37911 37879 37889 37924 37977 38023 38037 38072 38071 38006 37955 37919 37944 37974 38042 38052 38034 38035 37984 37959 37956 37969 38034 38059 38068 38070 38050 38025 37971 37920 37921 37942 37935 37928 37918 37919 37930 37956 37967 37948 37959 37954 37966 37956 37912 37896 37901 37935 37936 37916 37900 37850 37837 37827 37863 37914 37927 37992 37994 37971 37961 37926 37925 37914 37902 37922 37964 38030 38028 37970 37951 37934 37930 37959 37998 38047 38118 38130 38138 38078 38018 37979 37957 37999 38043 38134 38143 38143 38129 38138 38115 38172 38192 38259 38249 38259 38310 38345 38379 38384 38407 38439 38502 38560 38639 38715 38822 38884 38964 39021 39034 39089 39100 39060 38929 38884 38965 38979 38988 38909 38855 38945 39047 39145 39220 39287 39344 39402 39451 39405 39274 39199 39090 38959 38921 38913 38983 38956 38999 39117 39134 39168 39329 39390 39383 39389 39464 39573 39618 39608 39532 39461 39402 39451 39510 39554 39572 39604 39606 39624 39575 39540 39522 39495 39466 39414 39386 39359 39302 39210 39121 39087 39047 39017 38952 38882 38802 38741 38684 38624 38504 38443 38398 38354 38295 38244 38189 38143 38062 37974 37923 37869 37792 37712 37629 37560 37513 37482 37428 37359 37292 37248 37212 37165 37132 37086 37052 37047 37001 36945 36828 36696 36599 36548 36501 36474 36490 36484 36454 36363 36330 36292 36244 36218 36223 36231 36262 36290 36222 36140 36065 36036 36040 36070 36092 36175 36208 36196 36146 36044 35985 35919 35881 35900 35939 35984 35975 35929 35816 35724 35641 35639 35648 35666 35718 35724 35730 35736 35697 35653 35579 35516 35535 35578 35622 35663 35650 35665 35636 35607 35587 35638 35707 35750 35800 35845 35901 35945 35923 35868 35871 35900 35943 35931 35940 35960 36006 36041 36061 36083 36101 36117 36144 36198 36227 36255 36249 36247 36220 36230 36234 36218 36201 36230 36222 36255 36303 36319 36334 36328 36292 36297 36323 36326 36327 36354 36388 36418 36418 36400 36375 36343 36353 36353 36408 36451 36504 36532 36520 36490 36491 36475 36490 36516 36549 36613 36687 36701 36650 36636 36613 36614 36658 36711 36775 36804 36828 36835 36822 36816 36786 36767 36779 36826 36870 36863 36830 36840 36806 36772 36774 36786 36849 36842 36862 36885 36943 36950 36881 36848 36819 36849 36892 36874 36889 36894 36903 36938 36920 36892 36875 36847 36834 36804 36796 36779 36757 36760 36763 36736 36714 36662 36646 36620 36635 36671 36702 36705 36673 36610 36558 36550 36552 36535 36551 36578 36635 36666 36585 36500 36438 36402 36416 36433 36485 36526 36545 36559 36548 36513 36478 36441 36442 36484 36550 36620 36618 36588 36575 36538 36505 36482 36502 36543 36532 36546 36561 36569 36542 36464 36433 36396 36388 36408 36419 36432 36476 36502 36503 36482 36464 36443 36392 36359 36342 36336 36347 36369 36368 36375 36425 36466 36485 36532 36576 36642 36688 36715 36659 36635 36595 36548 36549 36577 36582 36562 36582 36632 36632 36647 36621 36602 36620 36626 36648 36681 36703 36716 36678 36649 36598 36576 36592 36589 36622 36671 36726 36742 36678 36605 36563 36547 36563 36584 36628 36672 36685 36752 36794 36774 36726 36674 36695 36758 36819 36854 36838 36845 36823 36770 36744 36773 36800 36788 36783 36805 36860 36861 36792 36741 36720 36747 36796 36786 36783 36808 36810 36834 36827 36802 36780 36786 36765 36787 36783 36776 36786 36776 36768 36774 36781 36746 36741 36732 36731 36765 36801 36792 36787 36742 36716 36685 36682 36681 36686 36661 36683 36681 36647 36627 36572 36504 36473 36457 36478 36489 36507 36537 36486 36457 36453 36443 36425 36422 36457 36502 36562 36573 36527 36471 36442 36422 36474 36496 36539 36565 36577 36590 36573 36525 36479 36460 36447 36461 36527 36539 36527 36489 36429 36371 36335 36341 36340 36352 36400 36439 36483 36496 36494 36461 36441 36456 36522 36520 36529 36527 36546 36578 36561 36524 36513 36485 36496 36520 36541 36537 36528 36535 36478 36446 36464 36428 36420 36436 36446 36458 36504 36503 36475 36441 36446 36433 36432 36432 36447 36422 36450 36480 36483 36468 36445 36437 36433 36463 36496 36551 36585 36616 36584 36535 36522 36486 36469 36443 36466 36518 36585 36592 36538 36489 36434 36426 36455 36467 36491 36511 36512 36530 36492 36451 36405 36402 36428 36494 36562 36595 36627 36637 36628 36587 36587 36596 36660 36673 36667 36700 36716 36745 36704 36706 36731 36741 36768 36773 36795 36802 36820 36871 36853 36854 36837 36859 36851 36880 36889 36890 36925 36939 36946 36958 36906 36898 36904 36918 36934 36960 37011 37012 37007 36958 36913 36914 36923 36899 36906 36948 36978 37005 36960 36895 36859 36839 36847 36862 36890 36934 36931 36891 36831 36804 36788 36760 36714 36719 36770 36823 36841 36791 36741 36673 36657 36663 36688 36731 36765 36781 36800 36792 36757 36695 36676 36693 36740 36798 36827 36832 36814 36773 36720 36675 36675 36692 36700 36727 36730 36753 36721 36654 36582 36507 36531 36552 36591 36601 36615 36617 36574 36515 36473 36455 36485 36512 36536 36548 36553 36545 36497 36406 36372 36364 36392 36400 36396 36379 36383 36339 36289 36260 36201 36178 36191 36197 36229 36249 36237 36168 36088 36059 36066 36057 36043 36031 36021 36010 36016 36001 35955 35930 35905 35913 35926 35974 35998 35988 36007 36004 35980 35967 35908 35893 35877 35858 35859 35863 35864 35860 35846 35815 35808 35802 35823 35820 35825 35887 35928 35936 35883 35801 35760 35758 35772 35824 35853 35910 35967 35925 35896 35902 35901 35857 35853 35881 35970 36060 36131 36089 36042 36043 36033 36056 36120 36191 36260 36297 36329 36342 36320 36261 36217 36254 36301 36358 36391 36409 36441 36466 36445 36427 36442 36469 36501 36517 36527 36558 36582 36561 36490 36445 36471 36515 36517 36508 36507 36500 36523 36538 36553 36506 36486 36435 36413 36443 36467 36434 36421 36466 36470 36440 36366 36287 36259 36250 36242 36290 36334 36369 36371 36334 36332 36345 36342 36316 36327 36369 36431 36493 36508 36472 36449 36366 36356 36364 36396 36423 36466 36465 36503 36524 36479 36407 36374 36419 36501 36584 36520 36496 36501 36484 36431 36372 36340 36380 36430 36482 36533 36557 36589 36618 36597 36586 36566 36548 36489 36455 36439 36437 36455 36490 36488 36438 36378 36318 36311 36285 36251 36233 36264 36347 36389 36291 36188 36111 36076 36098 36144 36195 36236 36278 36291 36254 36217 36173 36122 36113 36100 36187 36223 36204 36179 36142 36083 36026 36034 36035 36079 36114 36138 36168 36185 36180 36142 36119 36098 36116 36136 36121 36072 36061 36031 36036 36006 35904 35829 35803 35785 35789 35838 35884 35908 35921 35925 35924 35896 35827 35758 35746 35722 35762 35805 35836 35837 35827 35816 35804 35807 35843 35853 35911 36006 36079 36119 36068 35971 35919 35894 35905 35938 35990 36052 36118 36118 36144 36135 36097 36087 36119 36176 36239 36265 36268 36273 36265 36218 36170 36119 36120 36142 36201 36247 36280 36356 36385 36376 36370 36347 36385 36383 36369 36386 36390 36412 36456 36491 36482 36445 36418 36412 36431 36445 36435 36470 36486 36489 36482 36410 36352 36335 36328 36330 36373 36401 36446 36441 36405 36367 36355 36328 36320 36350 36388 36437 36493 36501 36447 36412 36361 36385 36407 36434 36495 36533 36568 36576 36586 36568 36522 36520 36557 36605 36605 36585 36584 36600 36597 36558 36496 36488 36480 36483 36490 36512 36528 36529 36511 36439 36415 36402 36351 36308 36314 36323 36344 36376 36359 36291 36216 36169 36168 36198 36199 36231 36244 36298 36318 36273 36194 36129 36108 36114 36137 36186 36219 36283 36298 36264 36232 36202 36172 36151 36190 36246 36287 36311 36277 36192 36139 36079 36082 36100 36125 36171 36191 36226 36262 36248 36215 36155 36147 36160 36218 36190 36165 36166 36182 36169 36127 36098 36109 36127 36149 36191 36224 36228 36243 36228 36186 36169 36132 36096 36089 36084 36094 36111 36152 36154 36130 36068 36049 36075 36084 36095 36097 36118 36141 36138 36108 36025 35973 35967 35962 36014 36065 36097 36138 36108 36067 36039 36043 36032 36056 36116 36164 36215 36214 36147 36058 36021 35971 35995 36007 36030 36100 36133 36160 36175 36126 36082 36049 36091 36145 36210 36197 36185 36184 36148 36102 36086 36117 36132 36171 36198 36237 36255 36303 36274 36222 36225 36253 36278 36236 36227 36218 36237 36264 36286 36253 36234 36187 36175 36186 36209 36227 36250 36284 36283 36260 36212 36146 36129 36117 36126 36162 36219 36233 36190 36164 36132 36132 36150 36178 36195 36233 36300 36339 36294 36213 36143 36118 36139 36190 36241 36275 36324 36370 36370 36342 36336 36342 36339 36394 36434 36497 36538 36524 36447 36391 36356 36340 36368 36404 36479 36499 36534 36560 36534 36497 36448 36441 36480 36541 36605 36597 36611 36635 36611 36577 36585 36583 36599 36631 36626 36649 36698 36714 36695 36646 36617 36652 36668 36648 36629 36636 36648 36678 36656 36625 36579 36556 36583 36614 36622 36644 36639 36642 36643 36644 36610 36559 36559 36553 36545 36568 36572 36580 36538 36489 36448 36446 36437 36444 36452 36507 36570 36622 36575 36502 36493 36471 36488 36543 36570 36595 36626 36626 36595 36570 36536 36528 36524 36542 36595 36645 36645 36630 36575 36542 36508 36515 36547 36573 36594 36589 36615 36642 36600 36566 36509 36533 36576 36610 36618 36610 36652 36669 36652 36612 36586 36584 36590 36565 36552 36547 36559 36551 36504 36502 36486 36481 36474 36431 36412 36391 36404 36369 36351 36305 36234 36178 36153 36173 36190 36235 36271 36307 36303 36298 36276 36207 36200 36198 36250 36285 36352 36356 36347 36284 36290 36303 36301 36332 36338 36394 36480 36472 36425 36402 36410 36460 36514 36589 36699 36794 36883 36998 37068 37131 37164 37229 37316 37443 37649 37839 37938 38028 38090 38148 38228 38263 38361 38456 38553 38543 38495 38359 38336 38422 38480 38543 38638 38768 38772 38742 38743 38831 38888 38986 39082 39239 39316 39337 39344 39339 39339 39332 39282 39252 39216 39142 39109 39104 39093 39100 39113 39088 39018 38949 38904 38864 38823 38777 38749 38737 38692 38619 38518 38423 38356 38302 38259 38213 38191 38191 38158 38075 37977 37923 37856 37810 37743 37710 37690 37692 37661 37528 37402 37286 37214 37190 37195 37199 37212 37199 37164 37119 37031 36960 36916 36908 36915 36894 36875 36828 36803 36694 36618 36559 36533 36523 36524 36503 36501 36490 36434 36340 36240 36167 36128 36093 36057 36051 36019 35995 35936 35846 35790 35770 35761 35726 35724 35718 35714 35730 35665 35578 35529 35482 35447 35441 35449 35461 35499 35509 35444 35365 35338 35324 35344 35353 35353 35381 35423 35405 35332 35257 35190 35180 35164 35226 35285 35328 35410 35426 35390 35371 35372 35362 35393 35432 35496 35570 35600 35563 35514 35475 35476 35520 35574 35664 35721 35746 35778 35756 35727 35747 35765 35764 35799 35838 35911 35976 35959 35920 35883 35874 35902 35961 35992 36051 36069 36108 36124 36115 36089 36055 36068 36113 36189 36209 36228 36246 36236 36223 36195 36207 36220 36228 36257 36291 36335 36397 36388 36377 36362 36387 36437 36453 36449 36441 36479 36504 36490 36482 36467 36472 36473 36486 36553 36570 36598 36591 36564 36550 36571 36556 36536 36528 36551 36583 36631 36673 36656 36621 36584 36598 36597 36622 36641 36631 36625 36623 36607 36606 36561 36512 36541 36533 36589 36647 36686 36679 36610 36559 36551 36557 36562 36560 36561 36627 36672 36628 36530 36470 36423 36427 36461 36537 36570 36620 36627 36599 36568 36551 36513 36513 36534 36599 36671 36733 36725 36675 36618 36574 36575 36619 36673 36710 36698 36713 36725 36708 36685 36599 36565 36598 36652 36700 36665 36663 36647 36627 36576 36576 36590 36608 36609 36639 36655 36673 36706 36643 36572 36551 36569 36621 36615 36569 36565 36549 36566 36551 36540 36524 36516 36534 36539 36562 36561 36542 36605 36608 36570 36492 36415 36360 36335 36347 36363 36404 36427 36399 36365 36328 36322 36331 36346 36376 36431 36491 36544 36514 36439 36394 36359 36352 36381 36454 36497 36550 36582 36584 36547 36529 36492 36495 36512 36574 36644 36694 36677 36618 36565 36509 36497 36528 36554 36582 36583 36581 36585 36580 36538 36479 36472 36529 36579 36593 36585 36561 36557 36524 36490 36466 36442 36445 36450 36465 36479 36484 36520 36516 36508 36509 36518 36525 36516 36502 36482 36492 36510 36497 36462 36418 36398 36402 36433 36444 36452 36467 36509 36524 36523 36475 36408 36378 36390 36403 36450 36515 36548 36514 36436 36396 36363 36351 36343 36386 36432 36509 36571 36533 36445 36383 36365 36371 36409 36456 36469 36499 36498 36479 36449 36415 36367 36367 36408 36477 36523 36537 36531 36498 36428 36403 36391 36408 36428 36464 36477 36530 36562 36528 36473 36404 36407 36438 36453 36478 36485 36506 36542 36553 36529 36516 36507 36546 36537 36502 36547 36547 36581 36580 36522 36432 36414 36340 36255 36200 36177 36164 36169 36129 36018 35916 35848 35848 35896 35920 35981 36053 36109 36122 36074 36054 36030 36090 36175 36239 36326 36380 36426 36396 36350 36328 36333 36328 36346 36358 36364 36396 36420 36422 36404 36327 36313 36315 36345 36343 36366 36364 36379 36396 36367 36306 36289 36297 36352 36351 36411 36379 36367 36335 36245 36187 36166 36179 36193 36175 36129 36143 36188 36197 36144 36097 36102 36133 36155 36158 36169 36170 36195 36207 36146 36106 36055 35985 35952 35934 35971 36013 36036 36038 36010 36035 36036 36042 36028 36048 36046 36086 36137 36119 36082 36031 35997 36035 36072 36104 36169 36218 36249 36232 36194 36132 36099 36123 36160 36227 36297 36353 36381 36358 36310 36297 36266 36251 36213 36230 36264 36284 36292 36279 36197 36137 36090 36092 36118 36149 36173 36174 36203 36225 36229 36188 36136 36107 36151 36207 36262 36306 36330 36371 36342 36304 36279 36291 36324 36326 36367 36417 36443 36397 36355 36349 36346 36399 36429 36447 36462 36487 36501 36535 36471 36462 36422 36406 36419 36465 36474 36463 36458 36463 36445 36444 36387 36348 36370 36401 36420 36463 36490 36494 36438 36394 36379 36388 36378 36343 36353 36383 36410 36446 36377 36304 36274 36282 36281 36311 36329 36364 36384 36371 36330 36290 36229 36204 36229 36251 36315 36376 36368 36324 36267 36225 36221 36254 36291 36322 36323 36341 36405 36409 36350 36281 36282 36325 36360 36360 36351 36348 36368 36336 36309 36300 36297 36290 36303 36321 36349 36360 36357 36306 36237 36201 36207 36217 36191 36215 36240 36256 36293 36278 36231 36195 36186 36204 36204 36223 36238 36270 36290 36293 36215 36144 36077 36077 36103 36143 36204 36255 36298 36259 36193 36143 36129 36140 36129 36158 36204 36244 36270 36192 36090 36060 36017 36017 36056 36073 36084 36103 36100 36055 36018 35963 35956 35985 36043 36089 36146 36145 36135 36085 36022 35995 35998 36055 36079 36126 36129 36138 36171 36146 36049 36004 36029 36042 36006 35968 35950 35952 35949 35945 35887 35822 35825 35844 35899 35938 35964 35988 36001 35955 35917 35884 35878 35875 35878 35910 35947 36039 36060 36007 35936 35906 35908 35925 35959 35984 36009 36083 36098 36043 35947 35883 35851 35888 35930 35997 36021 36028 35975 35896 35900 35885 35864 35855 35845 35890 35935 35985 35905 35805 35745 35723 35763 35800 35846 35870 35876 35891 35874 35830 35796 35752 35773 35823 35887 35907 35882 35877 35809 35735 35694 35694 35709 35734 35740 35782 35811 35865 35798 35710 35666 35687 35733 35768 35810 35826 35849 35867 35824 35749 35672 35671 35667 35713 35769 35818 35851 35888 35814 35764 35711 35682 35692 35726 35796 35861 35928 35935 35870 35796 35802 35833 35860 35931 35998 36079 36168 36156 36133 36135 36111 36103 36104 36113 36115 36128 36046 35899 35781 35744 35703 35720 35775 35867 35915 35951 35985 35939 35877 35879 35886 35931 35982 36031 36014 36029 36045 36051 36020 35993 36021 36048 36069 36097 36106 36149 36194 36212 36188 36174 36180 36157 36153 36143 36163 36218 36261 36263 36204 36184 36150 36160 36151 36160 36177 36219 36252 36196 36084 36030 35981 35975 36024 36061 36063 36102 36147 36126 36080 36025 35983 35979 35986 36048 36108 36144 36173 36144 36060 36051 36034 36033 36036 36084 36137 36214 36276 36211 36134 36075 36092 36100 36154 36206 36230 36261 36281 36244 36177 36107 36056 36059 36117 36180 36229 36245 36268 36208 36139 36117 36098 36113 36102 36076 36043 36047 36036 35981 35907 35831 35842 35877 35954 36006 36012 36044 36050 36016 35947 35923 35914 35909 35915 35930 35966 35992 36017 35994 35977 35981 36018 36008 36027 36039 36064 36114 36156 36141 36089 36045 36012 36009 36031 36013 36034 36076 36147 36160 36169 36147 36119 36142 36146 36187 36239 36282 36315 36279 36223 36185 36195 36172 36182 36231 36304 36394 36457 36421 36348 36278 36251 36267 36319 36348 36377 36384 36397 36400 36359 36285 36236 36246 36291 36346 36388 36397 36366 36301 36247 36198 36191 36170 36205 36213 36209 36238 36244 36225 36139 36103 36096 36124 36162 36151 36115 36121 36140 36109 36048 36010 36001 35994 35980 36004 36045 36016 35997 35928 35895 35877 35845 35840 35834 35829 35862 35880 35839 35757 35670 35600 35602 35635 35653 35659 35684 35747 35730 35636 35563 35486 35445 35460 35513 35573 35612 35655 35608 35528 35464 35446 35444 35444 35481 35531 35585 35645 35572 35444 35366 35317 35341 35399 35431 35501 35518 35525 35495 35417 35337 35297 35312 35346 35397 35453 35449 35449 35370 35303 35262 35280 35320 35387 35399 35415 35453 35483 35449 35366 35322 35333 35392 35429 35426 35424 35462 35478 35421 35381 35341 35353 35371 35390 35408 35457 35496 35478 35372 35329 35320 35319 35323 35331 35362 35419 35483 35445 35366 35307 35276 35286 35333 35376 35398 35409 35449 35431 35410 35329 35279 35244 35251 35306 35364 35445 35493 35463 35402 35368 35376 35372 35416 35466 35529 35585 35624 35561 35472 35418 35423 35467 35516 35567 35609 35631 35653 35647 35580 35498 35441 35457 35527 35628 35670 35695 35728 35695 35622 35585 35573 35627 35677 35724 35765 35801 35834 35832 35747 35702 35693 35719 35717 35774 35800 35847 35871 35872 35786 35729 35690 35724 35733 35778 35825 35832 35826 35821 35800 35779 35760 35740 35723 35749 35776 35850 35901 35925 35869 35801 35799 35814 35827 35838 35877 35944 36008 36025 35929 35847 35824 35805 35843 35904 35958 35983 36037 36004 35934 35872 35831 35801 35800 35864 35931 36004 36015 35999 35912 35828 35822 35822 35875 35941 35975 36001 36041 36092 36077 35991 35945 35982 36027 36094 36062 36057 36081 36082 36042 36011 36018 36012 36013 36030 36063 36105 36133 36138 36082 36034 36003 36002 35992 35999 36003 36011 36066 36106 36064 36011 35952 35944 35975 35999 36012 36014 36052 36072 36043 36007 35931 35888 35855 35878 35915 36000 36038 36091 36024 35923 35879 35857 35864 35834 35882 35966 36031 36022 35892 35767 35710 35681 35742 35783 35854 35918 35924 35941 35894 35808 35721 35708 35723 35792 35845 35844 35860 35836 35773 35727 35717 35739 35793 35847 35891 35940 35964 35968 35903 35857 35839 35876 35908 35910 35895 35896 35934 35954 35896 35878 35907 35889 35917 35952 35980 36006 36003 35955 35905 35882 35881 35882 35883 35898 35898 35947 35986 35956 35929 35904 35904 35916 35930 35950 35934 35948 35967 35935 35905 35834 35788 35767 35785 35830 35868 35912 35895 35807 35760 35737 35762 35763 35770 35828 35878 35934 35867 35779 35680 35616 35608 35630 35685 35726 35757 35791 35771 35732 35691 35647 35667 35742 35806 35869 35908 35875 35810 35743 35697 35732 35788 35874 35930 35948 35978 35980 35918 35805 35768 35789 35853 35912 35904 35936 35936 35890 35833 35786 35785 35800 35810 35851 35915 35998 36044 35987 35920 35865 35908 35974 36002 36004 36048 36099 36118 36075 36024 36005 35997 36030 36068 36113 36137 36137 36111 36058 36042 36027 35995 36004 36037 36045 36065 36139 36099 36048 35983 35946 35956 35987 36033 36060 36093 36146 36142 36113 36071 36020 36045 36071 36106 36166 36228 36243 36219 36139 36099 36109 36124 36118 36144 36186 36263 36303 36219 36121 36091 36067 36081 36136 36199 36237 36285 36247 36189 36130 36115 36094 36100 36163 36235 36323 36382 36330 36249 36199 36160 36170 36219 36246 36305 36333 36346 36401 36348 36274 36248 36266 36343 36383 36372 36362 36382 36358 36296 36254 36267 36278 36285 36303 36326 36355 36353 36292 36219 36172 36195 36239 36219 36171 36156 36144 36087 35992 35882 35811 35804 35851 35908 35960 36032 36119 36169 36173 36142 36182 36182 36212 36216 36273 36325 36366 36317 36216 36136 36099 36061 36061 36064 36081 36143 36182 36145 36042 35912 35850 35859 35867 35928 35950 35984 35975 35864 35784 35766 35810 35887 35969 36026 36067 36084 36076 36015 35933 35907 35937 35962 35994 36038 36015 35996 35968 35937 35878 35793 35769 35808 35879 35915 35936 35929 35900 35824 35714 35689 35697 35728 35771 35776 35793 35844 35911 35847 35760 35724 35758 35822 35813 35798 35776 35785 35771 35693 35649 35628 35664 35665 35699 35724 35744 35778 35733 35644 35635 35634 35649 35627 35618 35640 35683 35713 35652 35579 35530 35506 35512 35573 35634 35683 35743 35763 35686 35579 35512 35484 35495 35571 35629 35696 35758 35748 35623 35504 35424 35415 35424 35447 35447 35539 35587 35548 35481 35371 35245 35207 35212 35245 35271 35295 35350 35313 35275 35306 35348 35390 35406 35483 35553 35666 35716 35602 35465 35386 35348 35384 35457 35504 35564 35600 35617 35604 35603 35587 35548 35581 35669 35736 35801 35787 35775 35697 35599 35580 35617 35683 35743 35769 35803 35828 35869 35802 35710 35674 35725 35793 35838 35844 35863 35918 35951 35928 35903 35921 35982 36040 36096 36196 36265 36380 36453 36494 36485 36577 36681 36820 36932 37050 37142 37230 37322 37316 37293 37313 37359 37388 37429 37467 37478 37502 37437 37306 37195 37125 37109 37100 37114 37113 37125 37090 36930 36745 36641 36546 36448 36403 36431 36483 36530 36484 36306 36134 36035 36003 36015 36065 36101 36125 36120 36071 35975 35893 35803 35780 35801 35865 35895 35854 35779 35731 35616 35537 35521 35545 35578 35617 35601 35614 35655 35662 35574 35463 35394 35403 35425 35425 35343 35324 35312 35322 35252 35156 35152 35139 35163 35166 35220 35281 35290 35247 35164 35101 35080 35030 34989 34970 34958 35011 35085 35000 34952 34886 34885 34948 35033 35117 35167 35262 35343 35258 35135 35013 34975 35000 35063 35148 35232 35306 35296 35173 35091 35074 35062 35068 35120 35188 35281 35341 35296 35136 35061 35031 35057 35134 35238 35294 35340 35405 35431 35381 35311 35302 35352 35434 35507 35530 35515 35559 35572 35527 35512 35506 35534 35558 35584 35633 35708 35751 35700 35607 35568 35542 35544 35536 35564 35591 35636 35706 35666 35594 35535 35513 35539 35554 35622 35685 35717 35736 35673 35587 35553 35530 35549 35595 35627 35682 35740 35743 35620 35535 35527 35547 35616 35644 35691 35758 35805 35778 35652 35541 35494 35517 35548 35608 35687 35711 35708 35635 35563 35545 35564 35604 35651 35729 35790 35854 35844 35699 35618 35557 35586 35646 35718 35785 35832 35883 35854 35805 35761 35710 35728 35797 35854 35908 35942 35944 35838 35729 35633 35632 35678 35738 35798 35841 35856 35886 35818 35742 35649 35633 35667 35746 35813 35823 35847 35866 35760 35671 35652 35667 35728 35763 35780 35796 35840 35843 35726 35591 35569 35614 35666 35660 35668 35668 35687 35629 35511 35428 35428 35436 35479 35494 35523 35598 35627 35533 35404 35351 35373 35412 35343 35288 35298 35294 35335 35263 35211 35187 35174 35229 35309 35407 35446 35485 35475 35411 35367 35317 35245 35233 35282 35327 35397 35482 35450 35364 35300 35278 35336 35397 35459 35503 35578 35620 35596 35487 35363 35320 35320 35349 35429 35508 35573 35611 35545 35468 35454 35468 35456 35512 35563 35652 35736 35762 35661 35573 35547 35554 35624 35692 35756 35810 35874 35894 35873 35808 35740 35695 35741 35832 35905 35943 35945 35944 35852 35785 35757 35821 35845 35902 35924 35943 36021 36067 36039 35934 35891 35955 36009 36031 36061 36080 36123 36152 36136 36092 36072 36059 36087 36125 36170 36225 36226 36265 36206 36175 36127 36101 36111 36140 36191 36247 36317 36341 36263 36203 36189 36190 36211 36279 36321 36353 36408 36398 36308 36212 36138 36131 36140 36192 36247 36312 36349 36333 36263 36193 36166 36202 36211 36283 36358 36434 36497 36434 36313 36244 36193 36230 36280 36374 36435 36490 36529 36523 36461 36374 36310 36284 36336 36372 36404 36358 36331 36288 36163 36090 36047 36054 36121 36157 36175 36222 36259 36266 36204 36093 36078 36099 36101 36056 36053 36068 36099 36147 36050 35957 35942 35906 35956 35996 36028 36065 36109 36141 36087 35968 35859 35758 35712 35714 35728 35813 35862 35915 35854 35755 35705 35718 35750 35783 35839 35898 35993 35977 35845 35663 35535 35463 35473 35564 35653 35744 35794 35793 35718 35669 35623 35621 35667 35748 35844 35905 35903 35852 35742 35643 35584 35630 35696 35749 35824 35852 35888 35947 35965 35907 35846 35861 35923 35959 35942 35925 35931 35953 35923 35866 35825 35824 35862 35905 35943 36004 36067 36093 36068 36029 35963 35961 35944 35927 35977 36012 36074 36157 36170 36082 36005 35962 36001 36065 36127 36154 36191 36267 36245 36156 36031 35945 35928 35957 36006 36062 36153 36210 36166 36046 35972 35958 35979 35996 36041 36086 36181 36244 36158 35969 35806 35757 35767 35850 35931 35977 36020 36042 36055 36014 35954 35900 35929 35996 36077 36105 36081 36023 35964 35839 35761 35761 35783 35845 35884 35899 35925 35969 36008 35944 35847 35809 35844 35841 35793 35737 35730 35767 35801 35779 35680 35618 35609 35611 35662 35719 35805 35856 35884 35798 35694 35621 35545 35504 35499 35538 35577 35657 35696 35593 35465 35419 35436 35513 35587 35642 35708 35798 35842 35768 35606 35459 35410 35429 35487 35578 35681 35752 35781 35723 35601 35557 35549 35568 35623 35671 35743 35834 35868 35717 35545 35441 35425 35448 35525 35627 35699 35725 35772 35770 35705 35669 35612 35634 35704 35792 35837 35810 35807 35780 35667 35554 35521 35565 35631 35670 35703 35776 35857 35904 35794 35671 35631 35667 35733 35713 35668 35657 35663 35689 35638 35562 35561 35548 35609 35667 35726 35783 35836 35885 35831 35766 35684 35609 35577 35619 35637 35727 35841 35898 35822 35684 35620 35615 35658 35718 35775 35854 35910 35925 35804 35636 35529 35517 35541 35632 35705 35776 35819 35825 35771 35670 35638 35631 35648 35727 35794 35866 35871 35835 35758 35667 35599 35639 35705 35800 35861 35883 35903 35957 35979 35874 35795 35787 35823 35881 35880 35849 35856 35885 35849 35787 35783 35773 35821 35851 35891 35929 35990 36053 36068 35982 35927 35890 35865 35852 35880 35939 35995 36109 36100 36039 36025 36019 36101 36200 36301 36430 36525 36650 36659 36636 36581 36594 36654 36760 36885 36991 37131 37249 37385 37490 37576 37655 37771 37936 38078 38203 38293 38355 38424 38461 38498 38579 38649 38691 38729 38773 38819 38854 38843 38741 38663 38766 38896 38932 39023 39152 39208 39238 39189 39110 39030 38955 38895 38852 38812 38797 38748 38691 38667 38539 38354 38211 38101 38000 37888 37847 37818 37791 37723 37511 37306 37110 36976 36906 36851 36816 36788 36797 36725 36558 36404 36228 36097 36011 35971 35982 36019 36076 36029 35858 35694 35590 35584 35592 35616 35639 35731 35803 35745 35512 35274 35169 35123 35161 35235 35313 35363 35332 35193 35063 34977 34963 34984 35035 35125 35168 35183 35137 34959 34799 34725 34720 34821 34904 35003 35014 35051 35102 35052 34965 34868 34859 34944 35050 35088 35061 35011 35018 34927 34809 34783 34790 34879 34930 34953 34991 35063 35132 35132 35017 34940 34937 34951 34980 34985 35038 35132 35213 35176 35114 35054 35044 35072 35090 35132 35171 35180 35209 35099 35051 34986 34904 34922 34974 35041 35127 35260 35346 35285 35252 35270 35364 35505 35666 35834 36057 36310 36483 36691 36890 37049 37134 37200 37331 37426 37535 37634 37759 37783 37759 37644 37608 37629 37652 37762 37906 38095 38217 38211 38140 38097 38074 38062 38072 38051 38014 37983 37953 37864 37709 37609 37549 37520 37501 37446 37353 37314 37296 37185 37070 37006 36978 36959 36917 36910 36915 36908 36889 36774 36654 36616 36557 36526 36476 36450 36464 36490 36453 36310 36234 36169 36150 36158 36146 36118 36071 36065 35964 35824 35715 35657 35607 35634 35648 35681 35765 35816 35709 35534 35439 35425 35443 35470 35502 35546 35581 35548 35337 35127 34992 34953 34998 35073 35163 35234 35289 35217 35118 35038 35022 35054 35130 35189 35257 35297 35298 35242 35111 35019 35004 35063 35113 35090 35093 35120 35202 35265 35239 35170 35128 35184 35254 35284 35267 35253 35250 35177 35027 34939 34965 35019 35071 35096 35132 35247 35242 35112 35041 35139 35425 35697 35913 36104 36329 36522 36658 36785 36864 36940 37095 37184 37206 37277 37408 37524 37646 37690 37681 37802 37951 38016 38079 38190 38286 38353 38333 38259 38321 38362 38370 38415 38538 38666 38707 38676 38570 38512 38497 38492 38592 38667 38754 38844 38894 38992 39039 39087 39116 39114 39146 39233 39290 39277 39182 39048 38977 38921 38839 38786 38752 38714 38655 38534 38282 37987 37784 37599 37476 37377 37252 37150 36968 36641 36222 35874 35682 35578 35561 35493 35457 35436 35390 35203 35062 34954 34898 34884 34962 35043 35073 34987 34696 34395 34200 34139 34197 34245 34278 34326 34353 34406 34332 34233 34128 34115 34213 34309 34298 34132 34031 33860 33640 33559 33553 33576 33583 33588 33605 33687 33795 33706 33565 33536 33612 33688 33653 33523 33503 33522 33460 33296 33184 33192 33274 33390 33525 33708 33875 33982 33865 33786 33773 33818 33721 33690 33697 33724 33816 33742 33577 33521 33491 33565 33684 33842 33949 34058 34145 34049 34003 33930 33806 33801 33858 33909 34000 34131 34151 34056 33940 33899 33926 34021 34130 34259 34422 34573 34567 34404 34155 34076 34107 34131 34234 34344 34448 34500 34427 34368 34394 34524 34660 34746 34880 35014 35093 35142 34966 34802 34690 34685 34748 34839 34924 35011 35109 35169 35173 35172 35177 35227 35341 35477 35589 35576 35541 35481 35382 35318 35337 35402 35460 35521 35586 35660 35729 35772 35713 35661 35670 35763 35810 35731 35673 35683 35704 35659 35622 35618 35636 35685 35734 35805 35875 35958 36020 36041 36005 36032 36063 36061 36055 36124 36173 36267 36341 36312 36236 36179 36196 36244 36283 36271 36323 36371 36393 36306 36232 36171 36118 36134 36176 36264 36372 36482 36451 36306 36241 36238 36242 36255 36318 36416 36555 36601 36513 36328 36203 36173 36192 36274 36354 36396 36444 36378 36258 36157 36149 36149 36163 36204 36300 36381 36416 36312 36166 36065 36001 36049 36168 36258 36338 36394 36441 36470 36451 36385 36369 36433 36513 36594 36569 36527 36495 36448 36348 36299 36342 36427 36457 36454 36478 36493 36566 36553 36491 36419 36460 36488 36465 36395 36387 36403 36460 36435 36389 36329 36344 36368 36382 36442 36479 36537 36579 36551 36502 36408 36310 36285 36315 36371 36491 36582 36591 36490 36398 36366 36388 36433 36447 36498 36599 36655 36608 36452 36338 36283 36283 36343 36432 36524 36617 36579 36458 36343 36292 36333 36376 36395 36477 36587 36651 36576 36341 36163 36147 36157 36248 36369 36421 36467 36490 36391 36303 36265 36296 36334 36424 36551 36633 36656 36529 36313 36185 36169 36242 36359 36457 36433 36410 36401 36387 36321 36272 36266 36358 36478 36553 36515 36480 36495 36414 36334 36351 36432 36497 36525 36565 36578 36653 36713 36679 36577 36560 36619 36661 36614 36556 36545 36572 36522 36472 36437 36436 36417 36431 36452 36535 36594 36625 36568 36527 36515 36550 36521 36493 36479 36504 36584 36564 36497 36446 36410 36409 36449 36514 36570 36603 36623 36559 36498 36410 36329 36328 36356 36416 36524 36604 36538 36442 36359 36378 36422 36499 36568 36643 36764 36823 36734 36596 36512 36492 36530 36624 36747 36843 36912 36871 36768 36717 36696 36687 36733 36772 36853 36932 36902 36711 36562 36490 36513 36597 36703 36816 36869 36924 36915 36856 36795 36767 36752 36839 36936 37018 37040 36971 36889 36806 36774 36834 36907 36946 36961 36963 36979 36989 36884 36808 36779 36831 36947 37007 36955 36916 36909 36843 36779 36782 36813 36880 36945 36987 37019 37049 37073 36964 36892 36864 36924 36908 36840 36835 36854 36894 36887 36855 36837 36812 36828 36878 36893 36950 36966 36973 36880 36824 36796 36760 36727 36713 36724 36781 36841 36800 36646 36548 36531 36553 36612 36664 36696 36792 36821 36734 36615 36496 36454 36485 36530 36622 36719 36734 36654 36530 36475 36481 36535 36571 36637 36711 36771 36769 36649 36476 36380 36393 36433 36519 36618 36673 36722 36689 36600 36561 36529 36529 36586 36670 36742 36815 36781 36617 36486 36419 36413 36478 36583 36651 36675 36693 36677 36598 36516 36479 36476 36562 36665 36750 36746 36726 36664 36533 36471 36464 36505 36544 36533 36533 36564 36612 36605 36513 36440 36458 36523 36589 36513 36470 36453 36375 36244 36192 36190 36204 36212 36287 36351 36467 36573 36538 36449 36432 36502 36569 36546 36517 36550 36602 36641 36626 36559 36517 36544 36562 36612 36685 36734 36778 36761 36696 36646 36611 36520 36432 36426 36457 36544 36624 36545 36389 36289 36256 36295 36370 36488 36546 36628 36621 36553 36488 36390 36353 36377 36428 36495 36615 36690 36609 36497 36418 36407 36444 36492 36538 36578 36671 36669 36555 36352 36275 36245 36269 36343 36464 36546 36572 36477 36359 36322 36335 36385 36412 36490 36568 36649 36635 36465 36337 36262 36270 36328 36432 36513 36555 36587 36560 36466 36405 36378 36402 36478 36552 36606 36606 36545 36440 36318 36236 36273 36328 36412 36457 36475 36492 36554 36496 36409 36359 36401 36479 36567 36541 36499 36511 36477 36391 36350 36355 36377 36398 36427 36434 36490 36569 36548 36461 36416 36439 36497 36471 36439 36427 36459 36476 36430 36397 36394 36398 36438 36459 36509 36553 36580 36562 36455 36405 36436 36438 36425 36428 36475 36521 36589 36549 36445 36405 36362 36398 36451 36517 36559 36611 36614 36541 36502 36445 36401 36406 36436 36498 36580 36613 36528 36402 36340 36350 36400 36477 36483 36533 36641 36605 36516 36392 36305 36288 36326 36374 36500 36607 36674 36595 36454 36364 36346 36394 36420 36464 36555 36670 36698 36570 36369 36255 36261 36320 36439 36542 36592 36611 36523 36398 36355 36317 36302 36336 36398 36494 36548 36532 36419 36323 36298 36309 36433 36572 36693 36800 36899 36888 36790 36666 36604 36571 36561 36567 36560 36511 36503 36419 36241 36169 36139 36150 36115 36130 36156 36277 36368 36353 36281 36231 36236 36177 36113 36124 36187 36287 36329 36257 36176 36123 36076 36028 36030 36130 36199 36277 36261 36178 36111 36075 36044 36100 36199 36309 36439 36441 36322 36181 36091 36019 36013 36101 36131 36268 36343 36266 36120 36008 35944 35988 36062 36185 36275 36371 36353 36209 36055 35972 36049 36142 36247 36334 36428 36400 36316 36211 36148 36186 36269 36374 36487 36539 36531 36489 36409 36411 36446 36484 36580 36738 36912 37086 37143 37118 37053 37004 36992 37033 37090 37145 37193 37186 37216 37188 37094 36975 36907 36904 36924 36936 36888 36871 36882 36781 36655 36618 36627 36642 36640 36620 36646 36682 36690 36579 36488 36457 36476 36455 36419 36407 36432 36470 36481 36406 36297 36220 36128 36084 36090 36086 36136 36190 36108 35995 35871 35756 35705 35759 35800 35835 35917 35822 35604 35413 35277 35256 35315 35403 35510 35614 35691 35590 35397 35233 35203 35249 35360 35500 35594 35638 35594 35411 35271 35227 35186 35266 35369 35418 35441 35417 35306 35113 35054 35031 35108 35223 35292 35316 35320 35362 35404 35319 35238 35252 35336 35416 35391 35315 35254 35276 35233 35123 35073 35053 35057 34981 34868 34881 34962 35020 34982 34934 34903 34896 34924 34904 34901 34959 35042 35121 35075 35003 34969 34929 34936 35010 35093 35152 35228 35265 35177 35083 34974 34907 34918 34989 35053 35170 35249 35221 35069 34929 34881 34918 34985 35043 35128 35207 35229 35058 34910 34781 34743 34789 34866 34985 35050 35166 35097 34967 34875 34914 34955 35015 35082 35197 35292 35304 35173 35026 34947 34905 34992 35161 35288 35393 35434 35479 35463 35403 35332 35326 35385 35470 35535 35568 35543 35489 35403 35325 35360 35419 35509 35565 35584 35618 35649 35655 35540 35447 35428 35506 35581 35627 35584 35581 35635 35607 35531 35485 35477 35477 35446 35475 35507 35518 35549 35531 35470 35400 35368 35366 35362 35375 35422 35511 35538 35418 35281 35182 35177 35205 35259 35315 35369 35406 35293 35198 35123 35064 35039 35076 35131 35196 35289 35340 35226 35106 35047 35072 35124 35171 35270 35390 35466 35484 35299 35064 34952 34955 35010 35098 35166 35203 35241 35206 35105 35034 34991 34995 35055 35126 35152 35149 35093 34973 34850 34745 34739 34837 34939 34984 34989 35002 35059 35065 34954 34859 34899 34988 35033 35000 34934 34927 34994 34965 34958 34975 35051 35146 35152 35141 35192 35248 35265 35210 35093 35095 35170 35272 35276 35330 35380 35438 35453 35392 35357 35357 35297 35296 35334 35382 35414 35433 35369 35284 35182 35077 34970 34964 34982 35080 35193 35254 35167 35046 34968 34967 35032 35086 35137 35205 35293 35260 35062 34793 34633 34586 34642 34708 34795 34859 34919 34820 34654 34584 34617 34687 34724 34831 34973 35072 35050 34856 34645 34545 34555 34660 34790 34901 35012 35047 34965 34830 34728 34713 34701 34746 34840 34931 34972 34912 34705 34485 34411 34432 34514 34614 34707 34740 34739 34694 34606 34487 34387 34454 34572 34665 34686 34575 34498 34369 34238 34192 34259 34349 34402 34397 34414 34451 34581 34630 34542 34472 34499 34611 34617 34514 34480 34481 34473 34387 34297 34297 34318 34330 34310 34343 34418 34562 34571 34502 34434 34484 34489 34451 34457 34498 34575 34636 34544 34446 34355 34222 34095 34086 34168 34287 34396 34379 34318 34253 34140 34100 34094 34162 34262 34384 34433 34320 34220 34181 34199 34278 34419 34551 34646 34788 34776 34675 34541 34452 34455 34474 34541 34654 34767 34775 34636 34490 34427 34456 34542 34662 34717 34827 34961 34833 34607 34401 34367 34417 34548 34696 34806 34921 34889 34702 34563 34532 34584 34676 34763 34874 34990 35045 34906 34660 34474 34403 34448 34561 34678 34782 34820 34764 34581 34508 34543 34625 34698 34798 34905 34983 35005 34866 34679 34561 34583 34671 34830 35001 35041 35049 35016 34922 34918 34964 35014 35137 35266 35340 35346 35306 35221 35082 35025 35058 35148 35213 35265 35244 35272 35269 35243 35208 35168 35211 35280 35380 35348 35364 35405 35377 35297 35266 35270 35324 35368 35418 35466 35539 35607 35525 35383 35322 35387 35438 35437 35406 35410 35444 35396 35328 35270 35266 35275 35285 35322 35400 35475 35500 35424 35363 35353 35324 35275 35241 35255 35272 35324 35205 35068 34938 34885 34923 34977 35087 35204 35254 35210 35112 35026 34988 34921 34889 34882 34935 34994 35022 34891 34782 34716 34716 34796 34915 35011 35116 35197 35179 35063 34952 34868 34838 34879 34929 35019 35108 35068 34916 34762 34733 34813 34916 34975 35047 35126 35192 35056 34886 34717 34694 34729 34863 34984 35120 35261 35280 35199 35230 35343 35529 35742 35927 36141 36434 36746 36992 37183 37334 37458 37574 37713 37822 37830 37978 38080 38082 38030 38151 38368 38509 38600 38611 38664 38653 38634 38675 38684 38701 38717 38742 38809 38787 38672 38541 38470 38524 38593 38633 38646 38661 38779 38824 38857 38862 38887 38921 38961 38982 39093 39112 39065 38990 38935 38938 38880 38910 39011 39142 39253 39299 39292 39293 39158 39033 38940 38883 38854 38807 38753 38707 38628 38454 38242 38079 38003 37960 37947 37919 37923 37959 37950 37889 37962 38005 38111 38097 38111 38079 37984 37948 37916 37951 38048 38202 38433 38482 38551 38596 38622 38571 38373 38167 38010 37841 37647 37507 37370 37261 37114 36932 36749 36610 36480 36416 36381 36390 36432 36482 36402 36221 36096 36002 35954 35920 35880 35808 35792 35671 35511 35298 35101 34983 34939 34913 34957 35020 34995 34817 34596 34467 34416 34415 34429 34460 34564 34676 34610 34484 34403 34417 34506 34622 34778 35023 35289 35513 35526 35594 35688 35836 36015 36174 36321 36543 36771 36921 37068 37140 37249 37350 37446 37520 37621 37732 37767 37789 37777 37728 37811 37843 37859 37841 37926 37977 37995 38023 38052 38131 38176 38221 38260 38369 38407 38261 38066 37848 37669 37563 37501 37439 37334 37161 36890 36590 36367 36221 36176 36132 36067 35977 35896 35817 35648 35478 35372 35344 35385 35411 35376 35263 35173 34992 34862 34818 34843 34888 34868 34817 34793 34810 34734 34508 34362 34357 34414 34445 34394 34294 34244 34174 34046 33996 34028 34103 34123 34102 34111 34155 34198 34066 33913 33845 33893 33937 33892 33810 33819 33829 33738 33642 33611 33665 33694 33691 33697 33737 33770 33670 33554 33502 33608 33689 33680 33621 33596 33630 33555 33485 33469 33538 33646 33626 33630 33681 33739 33717 33561 33498 33565 33675 33693 33597 33588 33659 33699 33648 33616 33635 33698 33693 33746 33772 33824 33849 33748 33673 33693 33765 33771 33751 33768 33816 33910 33868 33813 33841 33858 33869 33923 33987 34019 34053 34013 33963 33976 34036 34015 33979 33979 34063 34187 34250 34212 34192 34235 34267 34363 34403 34453 34510 34511 34444 34399 34372 34291 34321 34361 34455 34569 34606 34496 34399 34328 34323 34394 34510 34629 34716 34706 34662 34638 34618 34613 34637 34712 34780 34891 34969 34913 34843 34799 34844 34921 34979 35012 35100 35156 35109 35058 34983 34940 34950 35005 35104 35213 35263 35205 35097 35066 35070 35117 35136 35164 35221 35295 35277 35206 35114 35055 35076 35149 35252 35385 35472 35427 35295 35177 35188 35180 35192 35235 35343 35468 35430 35307 35151 35123 35181 35280 35401 35508 35565 35440 35282 35223 35183 35198 35240 35319 35443 35554 35525 35333 35204 35153 35207 35304 35406 35497 35553 35516 35413 35303 35247 35247 35286 35388 35514 35611 35605 35405 35270 35191 35216 35297 35394 35448 35479 35499 35422 35331 35275 35270 35361 35467 35555 35622 35566 35449 35341 35300 35319 35409 35470 35511 35489 35449 35456 35381 35323 35289 35345 35444 35546 35593 35564 35548 35456 35379 35376 35419 35477 35554 35584 35618 35657 35661 35589 35500 35487 35543 35584 35607 35539 35523 35447 35328 35261 35234 35263 35266 35278 35305 35405 35493 35473 35428 35447 35521 35589 35550 35575 35625 35686 35702 35671 35620 35626 35637 35721 35810 35880 35916 35914 35846 35806 35830 35885 35873 35870 35899 35977 36025 35977 35891 35841 35824 35845 35871 35925 35952 36011 35983 35938 35929 35845 35825 35854 35884 35931 36012 36027 35975 35882 35829 35845 35873 35917 35970 36032 36095 36072 35990 35873 35802 35786 35789 35839 35925 36003 35997 35841 35775 35790 35834 35927 36001 36097 36167 36251 36258 36222 36248 36330 36436 36519 36610 36741 36905 36962 36939 36945 36962 36999 37079 37167 37240 37370 37504 37517 37506 37524 37559 37633 37757 37877 38012 38092 38150 38101 38123 38241 38383 38435 38450 38458 38584 38708 38805 38894 38977 39088 39115 39173 39227 39182 39098 39080 39072 39028 39010 39012 39126 39224 39260 39291 39400 39458 39442 39439 39407 39385 39340 39228 39144 39136 39063 38939 38846 38838 38758 38684 38589 38536 38435 38249 38019 37870 37691 37590 37456 37343 37262 37247 37125 36949 36786 36628 36496 36387 36256 36215 36188 36050 35827 35603 35467 35414 35384 35403 35477 35550 35526 35455 35446 35472 35570 35719 35917 36113 36326 36552 36738 36864 36924 36994 37015 37068 37190 37230 37348 37333 37202 37208 37241 37318 37398 37467 37524 37568 37612 37600 37522 37501 37468 37466 37543 37631 37710 37734 37756 37742 37694 37691 37729 37733 37795 37781 37807 37776 37734 37688 37724 37799 37839 37845 37793 37784 37655 37493 37423 37399 37350 37343 37277 37223 37206 37080 37031 36944 36901 36920 36961 37006 37036 37015 36925 36812 36765 36757 36842 37018 37129 37134 37138 37216 37273 37287 37303 37351 37427 37519 37594 37690 37749 37611 37520 37429 37371 37348 37372 37382 37390 37352 37239 37105 36971 36906 36918 36917 36938 36966 36911 36706 36475 36249 36091 35978 35906 35843 35782 35711 35527 35280 35076 34974 34930 34912 34838 34706 34588 34332 33993 33761 33611 33557 33578 33564 33480 33380 33280 33076 32881 32765 32784 32858 32893 32867 32812 32651 32424 32282 32234 32277 32359 32417 32397 32382 32377 32195 32026 31931 31977 32054 32134 32215 32179 32134 31970 31829 31759 31819 31908 31980 31990 32029 32108 32061 31882 31743 31756 31844 31964 32002 31942 31930 31815 31675 31638 31682 31796 31859 31926 32020 32119 32184 31991 31791 31760 31870 31976 31946 31910 31916 31951 31831 31746 31750 31778 31814 31847 31926 31997 32012 31891 31753 31738 31820 31917 31950 31965 32001 32072 32061 31958 31863 31858 31884 31970 32069 32151 32207 32224 32125 32068 32101 32144 32124 32134 32174 32241 32357 32419 32344 32275 32266 32310 32418 32476 32538 32621 32655 32604 32584 32512 32473 32494 32531 32608 32731 32862 32904 32844 32778 32825 32928 32960 32992 33047 33185 33273 33225 33055 33000 32966 32981 33014 33105 33233 33245 33164 33170 33253 33320 33336 33393 33468 33609 33743 33755 33637 33536 33499 33497 33518 33585 33681 33758 33779 33706 33681 33708 33720 33716 33781 33874 34002 34082 34015 33874 33800 33761 33787 33866 33961 33990 33982 33966 33939 33909 33884 33872 33923 34026 34106 34162 34094 33982 33859 33788 33865 33924 34009 34097 34099 34162 34243 34194 34069 34019 34060 34176 34259 34271 34287 34283 34192 34057 34044 34087 34121 34153 34149 34200 34290 34262 34137 34057 34060 34145 34222 34197 34152 34157 34127 34037 34002 34043 34100 34163 34198 34226 34310 34384 34270 34177 34149 34223 34293 34227 34236 34300 34324 34231 34142 34113 34116 34102 34101 34129 34204 34249 34129 34005 33960 34014 34099 34119 34123 34127 34125 34084 33986 33961 33968 34004 34053 34143 34245 34265 34262 34168 34092 34101 34150 34141 34126 34142 34158 34217 34204 34093 33986 33920 33919 34010 34096 34141 34174 34154 34102 34095 34087 33966 33948 33990 34035 34098 34188 34193 34132 34038 34027 34091 34183 34263 34254 34295 34281 34245 34226 34172 34145 34161 34195 34257 34362 34406 34298 34229 34222 34265 34343 34355 34371 34453 34541 34527 34348 34259 34231 34249 34304 34407 34451 34496 34440 34309 34240 34249 34314 34353 34385 34456 34517 34590 34485 34325 34258 34208 34252 34339 34430 34481 34499 34523 34486 34481 34458 34448 34513 34598 34703 34779 34807 34716 34576 34499 34486 34555 34649 34677 34711 34738 34799 34781 34683 34602 34610 34708 34820 34891 34890 34851 34772 34637 34537 34541 34596 34669 34669 34666 34707 34801 34759 34661 34605 34646 34711 34751 34706 34718 34769 34773 34693 34630 34620 34665 34660 34659 34691 34761 34831 34783 34677 34637 34688 34724 34643 34602 34639 34705 34697 34646 34608 34625 34644 34694 34751 34801 34805 34823 34782 34711 34691 34557 34514 34515 34529 34603 34709 34738 34616 34462 34430 34463 34539 34547 34557 34563 34554 34532 34416 34275 34223 34207 34188 34181 34249 34317 34242 34062 33985 34023 34112 34156 34251 34327 34438 34485 34388 34170 34053 34016 34026 34123 34203 34242 34316 34281 34211 34191 34219 34251 34233 34311 34406 34478 34420 34240 34127 34076 34076 34152 34210 34262 34228 34253 34231 34204 34165 34158 34184 34298 34354 34409 34323 34253 34155 34088 34035 34095 34177 34210 34184 34192 34283 34366 34326 34260 34258 34332 34411 34395 34286 34292 34344 34295 34241 34253 34316 34293 34234 34213 34254 34321 34315 34240 34156 34191 34252 34180 34092 34062 34095 34088 34065 34075 34077 34097 34103 34155 34272 34349 34387 34343 34265 34280 34327 34317 34270 34277 34283 34308 34267 34213 34149 34103 34088 34124 34218 34291 34349 34330 34296 34254 34233 34167 34170 34207 34251 34315 34337 34243 34166 34093 34093 34151 34239 34265 34325 34307 34219 34121 34083 34116 34193 34299 34422 34528 34604 34516 34406 34298 34271 34300 34364 34460 34553 34562 34458 34291 34178 34148 34187 34244 34324 34394 34408 34271 34082 33892 33890 33993 34106 34193 34286 34289 34167 33978 33811 33785 33864 33989 34114 34182 34188 34110 33942 33868 33912 33964 34115 34238 34313 34391 34310 34071 33926 33976 34080 34190 34318 34448 34474 34437 34297 34194 34137 34142 34229 34351 34556 34774 34907 34965 35013 35087 35211 35294 35347 35355 35285 35193 35127 35066 34996 34932 34937 35002 35087 35116 35124 35057 34959 34878 34859 34912 34977 34955 34942 34921 34888 34847 34812 34791 34839 34924 35019 35110 35123 35107 35042 34969 34950 35021 35081 35157 35115 35122 35137 35153 35050 34985 34978 35051 35103 35089 35059 35067 35004 34925 34920 34904 34931 34902 34881 34899 34977 34992 34879 34800 34784 34812 34785 34718 34713 34744 34779 34763 34684 34634 34629 34549 34557 34573 34666 34736 34710 34635 34562 34565 34552 34504 34516 34586 34662 34692 34587 34461 34384 34359 34410 34493 34562 34632 34639 34523 34443 34402 34378 34383 34398 34444 34507 34574 34467 34339 34206 34144 34165 34256 34388 34467 34523 34381 34221 34072 33961 33927 33970 34008 34054 34121 34065 33940 33881 33869 33974 34105 34180 34248 34335 34374 34307 34189 34112 34102 34126 34212 34309 34358 34446 34358 34241 34191 34262 34349 34400 34497 34588 34680 34629 34473 34368 34341 34374 34471 34593 34656 34735 34653 34514 34430 34435 34454 34514 34600 34702 34753 34786 34655 34563 34550 34569 34644 34756 34812 34884 34880 34843 34774 34725 34705 34732 34771 34855 34944 34940 34940 34845 34725 34665 34664 34707 34747 34738 34697 34719 34761 34737 34690 34664 34699 34793 34826 34772 34736 34682 34573 34469 34444 34452 34494 34489 34482 34510 34609 34651 34602 34557 34547 34603 34665 34613 34585 34609 34619 34537 34425 34375 34375 34389 34387 34434 34494 34589 34525 34407 34368 34416 34475 34432 34394 34399 34385 34335 34230 34115 34095 34063 34080 34131 34252 34353 34443 34384 34323 34300 34306 34290 34282 34287 34300 34326 34309 34192 34049 33929 33914 33979 34063 34163 34253 34302 34209 34100 34000 33943 33914 33940 34016 34065 34095 33981 33846 33785 33809 33921 34021 34099 34172 34264 34272 34156 34014 33972 34008 34058 34128 34261 34342 34433 34304 34171 34103 34081 34100 34153 34226 34333 34395 34298 34053 33914 33863 33902 33990 34093 34177 34238 34227 34125 34065 34077 34076 34131 34240 34345 34435 34476 34401 34292 34221 34261 34347 34448 34541 34604 34629 34575 34472 34365 34285 34284 34357 34406 34488 34523 34476 34398 34323 34286 34322 34416 34495 34561 34600 34658 34718 34697 34669 34720 34814 34933 35023 35112 35216 35285 35283 35269 35312 35442 35562 35677 35754 35805 35840 35839 35685 35553 35519 35524 35530 35507 35517 35529 35424 35242 35071 35017 34981 34932 34853 34826 34810 34759 34644 34504 34457 34453 34436 34397 34346 34323 34338 34273 34166 34098 34136 34081 34076 34104 34099 34146 34095 33936 33832 33816 33807 33788 33808 33862 33960 33922 33821 33809 33874 33978 34097 34224 34328 34486 34607 34570 34583 34672 34844 35009 35170 35330 35442 35552 35527 35407 35297 35141 35088 35021 34995 34968 34941 34761 34553 34372 34185 34068 34001 33983 33996 33980 33809 33586 33402 33358 33377 33451 33562 33647 33736 33708 33531 33391 33254 33190 33237 33277 33368 33460 33496 33332 33107 33001 33031 33124 33230 33321 33398 33409 33227 33021 32876 32862 32899 32958 33100 33150 33231 33097 32901 32844 32881 32968 33069 33146 33232 33312 33284 33036 32892 32887 32952 33044 33160 33257 33258 33187 33049 32998 33004 33061 33164 33298 33362 33455 33430 33202 33006 32943 32973 33076 33204 33341 33427 33485 33477 33372 33340 33334 33415 33519 33616 33682 33734 33618 33454 33378 33393 33466 33587 33656 33743 33786 33795 33763 33732 33693 33731 33858 33938 34006 34002 33945 33845 33720 33624 33614 33657 33723 33768 33790 33856 33876 33801 33771 33815 33891 33947 33964 33961 33943 33911 33812 33769 33797 33842 33903 33923 33982 34119 34219 34198 34094 34088 34154 34206 34187 34179 34181 34176 34112 33977 33894 33902 33900 33934 34031 34138 34246 34237 34091 34046 34033 34026 34048 34102 34178 34249 34246 34148 34075 34060 34118 34251 34360 34461 34540 34581 34485 34383 34331 34307 34312 34355 34405 34509 34528 34414 34277 34211 34231 34309 34359 34429 34489 34543 34398 34228 34094 34065 34100 34162 34263 34378 34429 34430 34222 34111 34136 34184 34220 34282 34407 34521 34517 34343 34193 34190 34221 34300 34419 34535 34626 34585 34405 34270 34215 34166 34216 34279 34365 34400 34417 34210 34065 34030 34100 34224 34364 34470 34629 34792 34945 35060 35202 35385 35641 35950 36289 36536 36642 36805 36976 37069 37181 37265 37332 37329 37341 37327 37263 37140 37062 37076 37037 36998 36929 36836 36881 36988 37133 37147 37132 37114 37188 37235 37245 37268 37239 37161 37028 36968 37004 37053 37045 36965 36838 36735 36646 36485 36290 36104 35981 35884 35757 35615 35522 35445 35366 35172 35028 34965 34947 34893 34742 34611 34565 34495 34336 34196 34116 34059 33973 33959 33962 33993 34007 33860 33693 33602 33569 33455 33342 33257 33273 33251 33117 32950 32847 32749 32746 32811 32862 32928 32967 32827 32699 32618 32577 32476 32442 32453 32477 32521 32471 32318 32216 32188 32226 32313 32397 32479 32574 32494 32338 32257 32195 32074 32054 32086 32176 32265 32214 32030 31879 31803 31777 31882 32054 32169 32253 32253 32131 32059 32024 31897 31859 31899 31984 32109 32193 32113 31983 31917 31935 32057 32189 32306 32406 32482 32372 32274 32153 31973 31924 31973 32067 32189 32321 32210 32039 31978 32014 32151 32297 32401 32504 32571 32518 32421 32272 32160 32186 32275 32406 32535 32659 32688 32567 32481 32518 32606 32705 32792 32882 32954 32929 32816 32613 32532 32537 32585 32740 32905 33020 33072 32889 32792 32823 32935 32984 33028 33160 33291 33386 33282 33086 32996 32997 33055 33159 33267 33359 33402 33304 33206 33212 33285 33353 33424 33487 33536 33624 33572 33334 33147 33073 33102 33170 33248 33282 33284 33201 33048 33000 33016 33111 33233 33370 33494 33589 33586 33429 33338 33314 33374 33493 33613 33689 33756 33766 33690 33645 33629 33649 33724 33813 33884 33937 33990 33859 33706 33651 33645 33718 33814 33913 33970 33990 33964 33910 33878 33865 33923 34014 34133 34179 34210 34121 33990 33898 33898 33964 34052 34107 34159 34147 34157 34148 34072 34011 34040 34105 34172 34237 34218 34172 34022 33914 33913 33960 34051 34125 34115 34116 34148 34153 34089 34001 33988 34035 34130 34173 34082 34018 33940 33851 33845 33908 33995 34022 33966 33959 34013 34083 34025 33946 33940 33984 34031 34014 33937 33920 33932 33847 33795 33791 33855 33917 33962 34022 34103 34153 34160 34070 34030 34033 34077 34108 34132 34182 34261 34273 34252 34339 34503 34711 34869 34994 35087 35228 35396 35593 35760 35971 36253 36391 36513 36596 36658 36712 36760 36779 36823 36830 36884 36920 37038 37167 37234 37246 37121 37061 37082 37141 37264 37313 37343 37365 37394 37341 37369 37375 37346 37338 37324 37292 37236 37076 36962 36833 36705 36593 36519 36479 36457 36463 36370 36203 36050 35929 35884 35898 35901 35944 35993 35910 35716 35532 35368 35289 35259 35265 35285 35325 35222 34992 34804 34715 34697 34714 34751 34792 34845 34807 34598 34380 34149 34070 34079 34120 34205 34278 34282 34098 33859 33752 33741 33773 33803 33861 33903 33921 33769 33472 33248 33196 33216 33290 33416 33511 33583 33423 33223 33152 33135 33191 33236 33330 33451 33572 33544 33241 33017 32937 32937 32983 33099 33190 33278 33220 33067 32956 32931 32950 33019 33099 33190 33269 33239 33014 32799 32720 32721 32815 32956 33069 33141 33162 33126 33029 32984 32963 33021 33144 33204 33245 33242 33026 32832 32711 32730 32826 32910 32971 33037 33087 33124 33072 33033 33022 33099 33213 33329 33398 33427 33385 33299 33234 33222 33283 33347 33443 33466 33533 33604 33566 33509 33495 33542 33591 33696 33762 33789 33882 33895 33852 33875 33961 34087 34260 34428 34593 34769 34931 35095 35294 35493 35709 36001 36138 36275 36382 36454 36526 36587 36698 36842 36937 36990 37009 37003 36998 36977 36966 36962 36895 36871 36942 36975 36967 37032 37040 37021 36988 37046 37116 37157 37140 37142 37216 37142 36968 36827 36723 36617 36532 36487 36469 36459 36432 36423 36388 36343 36294 36281 36298 36287 36297 36294 36274 36247 36171 36061 35963 35945 35925 35835 35564 35274 35028 34907 34853 34859 34858 34882 35011 35164 34806 34802 34992 35135 35246 35436 35712 35987 36184 36351 36473 36561 36575 36621 36649 36691 36751 36809 36806 36856 36964 37040 37153 37256 37305 37359 37378 37383 37274 37124 36988 37061 37198 37310 37337 37382 37386 37343 37404 37461 37498 37558 37595 37637 37669 37765 37816 37886 37929 38047 38109 38140 38129 38109 38170 38158 38101 38048 38107 38194 38343 38389 38425 38536 38475 38372 38309 38212 38137 38107 38140 38205 38216 38155 38180 38177 38158 38193 38271 38316 38350 38329 38262 38151 38017 37937 37837 37744 37684 37666 37445 36971 36564 36230 35991 35845 35706 35603 35454 35226 34952 34670 34480 34350 34226 34097 33996 34011 33998 33931 33893 33897 34032 34240 34442 34551 34515 34536 34563 34527 34483 34435 34280 34044 33866 33821 33805 33814 33764 33679 33605 33550 33479 33380 33284 33249 33077 32899 32677 32476 32287 32183 32163 32178 32201 32147 31995 31988 32059 32252 32296 32187 32032 31892 31751 31594 31463 31336 31280 31241 31187 31106 31040 30998 30971 30952 30856 30841 30853 30868 30922 30995 31099 31260 31334 31284 31235 31204 31167 31089 31080 31098 31151 31159 31087 30991 30956 30929 30932 31016 31146 31278 31373 31310 31238 31242 31226 31130 31091 31112 31139 31176 31072 30979 30902 30853 30894 30991 31140 31275 31423 31472 31450 31412 31403 31357 31350 31360 31394 31492 31485 31382 31312 31293 31307 31382 31465 31576 31644 31623 31528 31415 31299 31214 31176 31174 31226 31258 31249 31142 31020 30993 31006 31099 31213 31309 31416 31499 31446 31322 31213 31118 31082 31090 31129 31216 31270 31166 31020 30935 30918 31024 31169 31277 31397 31494 31432 31260 31116 31019 31032 31075 31149 31235 31315 31306 31203 31118 31096 31174 31267 31427 31563 31686 31695 31550 31401 31275 31242 31226 31276 31339 31427 31458 31322 31201 31182 31240 31335 31437 31529 31616 31694 31594 31409 31254 31204 31207 31262 31347 31415 31475 31474 31322 31209 31232 31317 31402 31481 31550 31594 31500 31337 31194 31165 31210 31267 31454 31602 31762 31964 32048 32101 32196 32243 32346 32457 32529 32583 32581 32397 32211 32106 32120 32170 32262 32307 32336 32302 32187 32095 32101 32137 32222 32343 32424 32493 32493 32272 32063 31952 31961 32017 32098 32171 32229 32257 32266 32202 32188 32206 32313 32419 32483 32501 32419 32270 32031 31890 31843 31900 31976 32019 32086 32133 32168 32136 32065 32052 32099 32180 32285 32325 32271 32259 32160 32060 32017 32052 32110 32149 32188 32213 32242 32305 32255 32192 32199 32249 32314 32328 32260 32238 32198 32066 31970 31953 31996 32060 32132 32203 32296 32401 32426 32380 32359 32401 32472 32495 32411 32367 32367 32297 32201 32150 32132 32177 32207 32248 32350 32491 32547 32485 32424 32465 32527 32536 32436 32398 32441 32442 32378 32322 32307 32357 32435 32519 32599 32686 32802 32771 32712 32711 32778 32778 32732 32712 32741 32772 32690 32596 32555 32592 32651 32729 32824 32927 33008 32977 32895 32857 32864 32822 32826 32831 32853 32894 32844 32742 32676 32686 32723 32806 32921 33047 33132 33144 33068 33016 33047 32979 32937 32950 32985 33044 32990 32840 32743 32705 32742 32829 32942 33077 33209 33213 33114 33049 33039 32949 32897 32918 32973 33073 33164 33058 32980 32930 32978 33059 33166 33269 33389 33466 33422 33329 33272 33169 33091 33037 33076 33143 33207 33118 32987 32909 32893 32944 33070 33177 33295 33382 33370 33269 33173 33033 32956 32945 33015 33091 33173 33178 33073 32976 32945 33009 33101 33218 33312 33399 33419 33302 33158 32978 32917 32879 32925 32987 33093 33129 33034 32925 32885 32930 33020 33104 33209 33306 33372 33278 33104 32909 32811 32835 32881 32960 33033 33085 33065 32958 32924 32944 33020 33125 33196 33292 33351 33301 33125 32954 32868 32880 32946 33025 33093 33132 33099 32979 32906 32927 33018 33109 33220 33324 33402 33380 33209 33007 32907 32930 32977 33064 33125 33205 33209 33135 33068 33054 33092 33176 33290 33397 33500 33719 33885 33879 33889 33965 34101 34186 34317 34472 34647 34805 34947 35064 35186 35309 35362 35411 35441 35426 35532 35686 35783 35828 35876 35937 36008 36042 36164 36250 36325 36366 36395 36465 36526 36575 36552 36513 36534 36487 36456 36472 36474 36452 36441 36400 36337 36292 36249 36289 36289 36253 36246 36191 36098 36064 35917 35695 35525 35436 35389 35357 35335 35302 35198 35005 34884 34773 34737 34740 34732 34719 34669 34513 34217 33903 33659 33557 33511 33528 33513 33458 33380 33161 32995 32937 32963 33012 33069 33109 33083 32943 32589 32308 32133 32104 32131 32164 32171 32156 32022 31793 31677 31675 31733 31827 31897 31963 32050 31946 31618 31348 31181 31119 31158 31261 31305 31338 31259 31093 31014 31053 31145 31269 31408 31487 31561 31482 31120 30863 30746 30774 30861 30973 31062 31089 31011 30879 30834 30866 30985 31088 31219 31333 31420 31324 31066 30877 30800 30853 30950 31065 31129 31167 31112 30987 30949 31013 31164 31279 31440 31538 31642 31581 31343 31147 31088 31163 31263 31381 31459 31481 31437 31322 31319 31387 31492 31615 31748 31838 31908 31876 31680 31519 31510 31543 31620 31717 31767 31827 31832 31803 31814 31897 32009 32105 32213 32290 32367 32317 32145 32036 32008 32037 32101 32208 32262 32318 32301 32258 32260 32337 32445 32591 32718 32795 32833 32771 32610 32492 32487 32506 32567 32631 32665 32683 32701 32669 32682 32719 32808 32918 33021 33104 33154 33118 32996 32870 32820 32814 32877 32961 33008 33041 33063 33090 33077 33138 33192 33285 33362 33392 33405 33326 33210 33104 33098 33127 33182 33243 33246 33274 33267 33297 33305 33300 33325 33384 33471 33539 33573 33490 33388 33263 33183 33183 33232 33261 33303 33348 33403 33459 33483 33478 33485 33527 33575 33614 33580 33518 33480 33389 33328 33333 33360 33392 33422 33397 33408 33468 33507 33497 33512 33530 33575 33626 33620 33525 33493 33430 33323 33276 33292 33301 33324 33336 33353 33410 33511 33521 33541 33577 33600 33604 33534 33446 33379 33327 33226 33171 33139 33142 33152 33122 33152 33229 33318 33324 33298 33301 33351 33355 33283 33220 33184 33189 33111 33064 33086 33099 33060 33018 33033 33118 33250 33338 33367 33400 33432 33450 33432 33348 33287 33217 33133 33044 33040 33056 33068 33050 33085 33149 33248 33274 33256 33249 33282 33306 33292 33211 33185 33192 33165 33096 33074 33063 33101 33123 33157 33226 33341 33407 33414 33406 33411 33421 33379 33275 33260 33281 33256 33200 33174 33144 33148 33186 33229 33324 33420 33465 33431 33410 33397 33396 33384 33377 33410 33469 33478 33419 33362 33345 33356 33377 33424 33495 33592 33633 33607 33560 33526 33539 33516 33512 33523 33556 33563 33480 33401 33382 33380 33369 33405 33515 33641 33713 33679 33630 33612 33603 33583 33586 33576 33592 33623 33515 33408 33367 33367 33399 33477 33569 33672 33745 33679 33624 33577 33565 33520 33493 33517 33566 33559 33445 33344 33304 33272 33313 33385 33451 33525 33575 33485 33398 33360 33305 33261 33218 33227 33275 33299 33208 33106 33031 32989 32991 33067 33146 33207 33180 33073 32989 32931 32856 32845 32865 32910 32981 33007 32896 32763 32672 32673 32728 32793 32858 32884 32902 32803 32722 32647 32611 32546 32535 32578 32621 32616 32480 32325 32255 32256 32317 32411 32531 32642 32697 32591 32500 32462 32384 32320 32291 32291 32348 32431 32349 32261 32197 32202 32213 32261 32326 32433 32507 32446 32363 32317 32280 32193 32180 32182 32223 32286 32250 32153 32092 32060 32083 32160 32280 32417 32521 32501 32419 32367 32344 32317 32319 32347 32366 32416 32359 32267 32205 32222 32289 32412 32522 32648 32742 32707 32596 32529 32482 32439 32444 32444 32500 32584 32531 32423 32379 32377 32464 32562 32686 32768 32814 32799 32762 32713 32703 32644 32640 32624 32639 32675 32640 32537 32489 32465 32521 32612 32690 32781 32882 32894 32843 32796 32755 32701 32691 32718 32768 32874 32907 32815 32759 32731 32774 32835 32906 32998 33103 33178 33140 33064 33004 32934 32913 32941 32975 33035 33074 32969 32863 32804 32809 32885 32980 33054 33101 33170 33104 33047 32962 32873 32840 32851 32898 32974 33045 32996 32884 32805 32841 32894 33000 33089 33192 33326 33320 33208 33086 32938 32896 32877 32931 33016 33111 33059 32911 32801 32782 32849 32960 33084 33179 33268 33283 33116 32929 32843 32843 32881 32941 33035 33118 33188 33098 33007 32979 33022 33099 33176 33274 33352 33415 33315 33180 33039 33001 33007 33055 33109 33164 33151 33022 32860 32818 32834 32888 32949 33023 33127 33195 33180 32997 32783 32713 32709 32742 32813 32878 32938 32936 32802 32659 32653 32730 32827 32944 33072 33157 33183 32979 32717 32607 32604 32646 32720 32749 32716 32694 32570 32459 32464 32529 32636 32750 32854 32936 32978 32813 32526 32360 32342 32396 32472 32524 32574 32615 32641 32559 32559 32600 32661 32771 32832 32864 32843 32773 32638 32572 32575 32593 32667 32757 32947 33200 33518 33936 34283 34589 34871 35051 35189 35223 35235 35299 35360 35425 35445 35501 35548 35544 35518 35545 35497 35504 35487 35473 35552 35632 35642 35571 35538 35541 35523 35530 35528 35534 35552 35578 35556 35528 35511 35489 35412 35306 35235 35182 35091 34923 34740 34615 34493 34286 34101 33996 33954 34093 34217 34212 34229 34225 34076 33951 33845 33783 33672 33529 33415 33344 33320 33299 33295 33385 33490 33590 33740 33874 33986 34047 34128 34260 34331 34380 34488 34605 34660 34746 34790 34832 34853 34849 34819 34804 34801 34779 34804 35017 35193 35232 35244 35228 35325 35337 35350 35368 35371 35384 35382 35411 35504 35571 35595 35613 35683 35746 35801 35860 35845 35730 35581 35467 35378 35266 35243 35294 35303 35276 35300 35374 35438 35560 35753 35804 35818 35813 35808 35865 35898 35951 35976 35965 35966 35948 35939 35955 35960 35963 36005 36036 35998 36054 36091 36072 36033 35979 36003 36001 36030 36070 36053 35952 35669 35374 35125 34998 35004 35086 35095 35071 35038 34842 34651 34497 34292 34084 33950 33823 33738 33691 33449 33108 32810 32627 32644 32759 32800 32829 32861 32712 32623 32551 32336 32091 31898 31792 31727 31724 31550 31285 31068 30966 31026 31167 31264 31375 31509 31503 31439 31358 31133 30884 30779 30771 30813 30886 30865 30645 30458 30387 30459 30607 30760 30877 30994 30975 30897 30811 30582 30417 30380 30399 30467 30576 30543 30408 30346 30361 30537 30777 30950 31071 31218 31219 31114 31027 30907 30768 30664 30689 30722 30818 30899 30797 30739 30687 30805 30984 31144 31287 31439 31517 31414 31286 31022 30853 30811 30842 30887 30979 30961 30768 30625 30600 30651 30829 31002 31131 31287 31390 31299 31179 31041 30916 30920 31058 31199 31334 31436 31360 31115 30891 30893 31005 31225 31451 31654 31777 31725 31654 31557 31420 31332 31369 31439 31535 31626 31479 31246 31046 31141 31349 31586 31788 31952 32112 32095 31962 31846 31669 31654 31704 31781 31879 31979 31947 31728 31535 31479 31579 31739 31912 32077 32190 32113 31977 31896 31729 31681 31714 31828 31972 32094 32051 31829 31711 31746 31877 32037 32189 32341 32512 32524 32406 32296 32180 32129 32148 32228 32316 32429 32454 32295 32223 32163 32219 32298 32431 32616 32749 32805 32714 32639 32560 32498 32498 32526 32600 32696 32745 32607 32468 32376 32421 32514 32636 32767 32895 32978 32910 32831 32769 32673 32663 32710 32794 32886 32923 32819 32682 32675 32704 32776 32868 32973 33122 33187 33127 33042 33027 32999 32976 33005 33077 33162 33205 33140 32964 32872 32936 33040 33173 33321 33451 33528 33457 33367 33359 33303 33279 33323 33383 33461 33506 33392 33252 33228 33250 33341 33468 33587 33688 33691 33570 33537 33557 33568 33510 33577 33655 33760 33939 33979 33982 34075 34164 34262 34348 34448 34564 34621 34613 34557 34503 34469 34470 34470 34469 34459 34399 34156 33979 33934 33950 34007 34135 34238 34319 34309 34169 34028 33891 33797 33784 33814 33870 33939 33914 33781 33638 33579 33635 33721 33838 33953 34076 34105 33988 33819 33624 33549 33577 33606 33656 33710 33612 33468 33322 33348 33455 33603 33745 33867 33986 33970 33831 33661 33524 33432 33442 33511 33576 33616 33579 33406 33249 33208 33316 33469 33610 33787 33880 33922 33829 33623 33458 33397 33450 33502 33601 33654 33639 33445 33216 33198 33292 33460 33614 33772 33878 33882 33767 33543 33353 33280 33308 33363 33430 33467 33434 33231 33049 33051 33142 33300 33445 33564 33651 33666 33575 33395 33311 33271 33314 33400 33481 33492 33506 33393 33319 33373 33452 33538 33652 33692 33669 33617 33448 33298 33175 33185 33220 33300 33389 33438 33545 33591 33574 33572 33633 33709 33939 34252 34521 34699 34780 34844 34929 34991 35050 35114 35188 35282 35398 35469 35492 35461 35383 35313 35286 35259 35231 35211 35039 34819 34654 34599 34561 34548 34545 34559 34605 34520 34442 34424 34375 34417 34539 34627 34669 34623 34504 34297 34149 34126 34118 34146 34166 34151 34153 34062 33976 33937 34022 34151 34274 34313 34327 34243 34107 33946 33870 33826 33839 33875 33917 33983 34020 33970 33878 33854 33876 33927 33986 34022 34001 33993 33880 33723 33724 33717 33766 33842 33897 33950 33954 33806 33622 33531 33525 33589 33685 33737 33723 33622 33361 33146 33021 32984 33011 33068 33058 33148 33203 33160 33117 33069 33102 33218 33311 33363 33375 33338 33160 33004 32894 32894 32916 32953 33004 33071 33206 33316 33371 33340 33336 33402 33469 33481 33319 33278 33147 33048 32989 33024 33018 33043 33044 33062 33116 33223 33369 33493 33508 33409 33294 33136 33000 32921 32777 32662 32627 32628 32645 32672 32695 32723 32829 32936 32964 33011 33059 33104 33084 33011 32930 32917 32912 32880 32888 32928 32983 32978 32989 33022 33109 33219 33230 33237 33279 33321 33341 33286 33203 33185 33176 33122 33109 33129 33172 33192 33153 33167 33259 33350 33310 33315 33356 33408 33408 33342 33268 33275 33279 33194 33176 33170 33213 33248 33253 33271 33353 33446 33443 33435 33432 33476 33481 33429 33370 33349 33314 33238 33168 33134 33089 33077 33058 33092 33184 33294 33248 33197 33180 33201 33213 33136 33075 33068 33064 32952 32857 32845 32825 32850 32832 32855 32937 32981 32913 32803 32779 32803 32828 32755 32720 32727 32709 32580 32501 32449 32436 32424 32449 32518 32619 32705 32648 32558 32533 32548 32534 32461 32445 32464 32456 32350 32250 32195 32164 32179 32246 32328 32473 32568 32487 32400 32344 32367 32363 32292 32269 32312 32298 32210 32141 32107 32128 32146 32184 32265 32373 32496 32454 32392 32397 32435 32335 32273 32275 32346 32349 32262 32158 32101 32100 32130 32188 32282 32391 32470 32357 32270 32246 32260 32247 32262 32296 32355 32379 32294 32191 32174 32183 32208 32284 32366 32465 32568 32518 32463 32433 32449 32400 32407 32409 32471 32530 32456 32356 32328 32351 32407 32500 32617 32719 32822 32790 32723 32739 32771 32710 32661 32651 32670 32736 32650 32556 32535 32541 32561 32644 32734 32873 32972 32914 32824 32808 32812 32717 32687 32687 32727 32757 32642 32540 32531 32560 32631 32727 32847 32962 33047 32987 32882 32855 32813 32719 32708 32726 32815 32877 32809 32718 32677 32672 32716 32794 32900 32960 33004 32921 32846 32852 32840 32780 32782 32818 32880 32914 32784 32630 32543 32539 32605 32713 32829 32955 33055 32961 32865 32794 32741 32682 32701 32703 32744 32775 32677 32546 32494 32514 32623 32751 32982 33410 33667 33627 33510 33432 33310 33250 33223 33259 33315 33334 33190 33004 32917 32901 32976 33128 33260 33405 33522 33420 33259 33118 32944 32904 32918 32955 33031 33057 32971 32810 32710 32744 32850 32984 33123 33300 33425 33323 33166 33012 32901 32890 32902 32959 33005 32976 32854 32707 32699 32746 32846 32971 33113 33286 33375 33274 33070 32845 32771 32793 32888 32985 33084 33069 32903 32714 32684 32753 32896 33043 33174 33284 33316 33138 32925 32745 32677 32708 32820 32932 33019 33023 32902 32775 32749 32825 32956 33112 33239 33339 33403 33267 33004 32811 32729 32761 32844 32928 32961 32969 32789 32620 32585 32652 32785 32930 33037 33124 33163 32988 32769 32588 32543 32595 32685 32759 32807 32829 32696 32522 32467 32510 32653 32810 32982 33110 33125 32933 32656 32465 32436 32498 32561 32645 32709 32685 32527 32388 32361 32452 32594 32775 32933 33073 33123 32949 32679 32515 32464 32531 32603 32713 32765 32782 32608 32462 32428 32480 32602 32765 32915 33034 33071 32893 32643 32453 32427 32508 32611 32692 32763 32742 32517 32363 32280 32355 32508 32658 32805 32969 33046 32940 32768 32609 32524 32553 32594 32669 32712 32707 32555 32397 32375 32450 32595 32760 32908 33074 33129 33041 32914 32769 32685 32680 32715 32791 32894 32936 32779 32594 32495 32533 32654 32823 32980 33153 33235 33161 33005 32820 32717 32733 32783 32851 32956 32948 32754 32569 32518 32574 32727 32878 33050 33179 33205 33062 32873 32719 32687 32756 32844 32948 33031 33027 32840 32702 32679 32725 32854 32984 33082 33217 33270 33138 32942 32782 32746 32776 32834 32902 32976 32943 32745 32633 32614 32688 32795 32968 33099 33199 33178 33001 32832 32689 32657 32699 32759 32838 32928 32901 32700 32547 32497 32566 32731 32906 33043 33193 33219 33063 32834 32678 32661 32726 32843 32943 33024 32979 32808 32622 32572 32660 32801 32971 33090 33222 33211 33018 32832 32670 32656 32709 32776 32857 32931 32890 32714 32623 32632 32705 32855 32975 33078 33196 33234 33091 32954 32848 32832 32881 32954 33049 33154 33105 32898 32775 32775 32840 32985 33095 33227 33355 33298 33170 33025 32909 32903 32965 33032 33110 33197 33187 33051 32954 32962 33005 33115 33216 33324 33426 33454 33344 33227 33105 33117 33178 33228 33301 33344 33270 33124 33042 33036 33097 33206 33332 33437 33536 33523 33416 33333 33235 33237 33290 33363 33466 33523 33516 33380 33278 33270 33328 33453 33593 33725 33816 33802 33695 33584 33477 33471 33500 33551 33615 33673 33653 33478 33347 33326 33406 33538 33667 33774 33878 33841 33723 33575 33421 33378 33431 33485 33593 33639 33619 33486 33383 33380 33464 33604 33703 33794 33891 33896 33761 33552 33409 33364 33379 33457 33510 33572 33549 33387 33283 33254 33295 33424 33546 33656 33722 33672 33501 33288 33155 33128 33149 33232 33318 33348 33289 33077 32968 32949 33026 33146 33267 33398 33526 33530 33389 33167 33016 32987 33001 33057 33130 33170 33207 33076 32990 32977 33052 33169 33258 33354 33414 33351 33166 33035 32975 32981 33057 33104 33232 33429 33775 34086 34146 34226 34252 34199 34256 34385 34434 34414 34490 34623 34679 34746 34868 34950 34974 34956 34939 34917 34745 34580 34472 34406 34392 34426 34437 34398 34244 34097 34014 33987 34007 34057 34123 34167 34238 34193 34103 34052 34053 34122 34182 34222 34293 34317 34152 33961 33809 33696 33675 33701 33720 33737 33712 33523 33332 33207 33178 33204 33252 33330 33369 33302 32971 32667 32436 32318 32265 32269 32286 32261 32255 32056 31886 31821 31826 31875 31959 32039 32103 32143 31883 31553 31344 31274 31273 31354 31413 31429 31427 31308 31204 31195 31235 31316 31436 31511 31566 31594 31325 31016 30840 30807 30845 30946 31005 31041 31085 30982 30900 30884 30919 31026 31135 31258 31333 31346 31047 30759 30628 30612 30674 30753 30807 30870 30918 30821 30741 30769 30836 30918 31039 31110 31193 31129 30877 30686 30593 30602 30695 30774 30861 30953 31036 30972 30898 30891 30912 31000 31133 31245 31334 31347 31127 30922 30814 30816 30870 30970 31076 31209 31269 31221 31185 31206 31271 31389 31494 31552 31623 31552 31338 31201 31146 31198 31275 31346 31394 31482 31570 31541 31521 31509 31545 31623 31733 31833 31888 31787 31610 31477 31425 31460 31546 31591 31647 31682 31743 31715 31709 31672 31698 31781 31844 31866 31820 31770 31648 31594 31618 31697 31759 31815 31840 31897 31965 31983 31957 31965 32007 32091 32163 32188 32132 32078 31974 31875 31845 31870 31888 31940 32009 32080 32144 32118 32058 32046 32107 32179 32215 32203 32224 32257 32186 32105 32078 32087 32151 32185 32232 32297 32384 32400 32370 32376 32392 32441 32410 32339 32323 32334 32276 32200 32166 32194 32242 32306 32374 32447 32516 32525 32481 32475 32496 32537 32492 32447 32413 32407 32370 32310 32263 32266 32306 32341 32389 32435 32506 32523 32470 32429 32464 32453 32364 32331 32332 32351 32304 32204 32138 32126 32157 32178 32219 32302 32410 32467 32396 32354 32385 32479 32590 32635 32676 32748 32827 32880 32963 33119 33405 33640 33952 34161 34284 34371 34410 34416 34427 34556 34750 34918 35058 35198 35274 35292 35311 35346 35436 35552 35672 35818 36034 36166 36247 36287 36285 36281 36259 36232 36198 36156 36072 35843 35584 35350 35242 35182 35136 35136 35154 35071 34840 34623 34388 34227 34113 34029 33997 33993 33910 33678 33453 33321 33257 33279 33295 33303 33316 33308 33138 32945 32777 32651 32584 32536 32523 32553 32512 32291 32126 32067 32086 32153 32208 32246 32322 32279 32114 31950 31793 31698 31711 31746 31788 31880 31882 31726 31557 31515 31576 31686 31773 31904 32024 32026 31888 31726 31588 31492 31443 31461 31523 31578 31472 31301 31240 31283 31349 31462 31531 31576 31650 31557 31414 31295 31212 31191 31211 31286 31356 31466 31411 31271 31167 31241 31369 31505 31610 31667 31765 31699 31591 31509 31377 31310 31320 31400 31485 31584 31515 31355 31272 31301 31400 31503 31560 31626 31706 31601 31483 31403 31305 31252 31251 31281 31357 31425 31300 31173 31157 31242 31347 31453 31514 31597 31646 31525 31395 31309 31236 31265 31308 31387 31465 31536 31437 31354 31361 31451 31553 31644 31727 31818 31922 31835 31728 31625 31565 31557 31578 31644 31732 31739 31625 31550 31616 31726 31836 31929 32016 32128 32144 32050 31899 31773 31758 31795 31863 31943 32004 32035 31944 31889 31911 31978 32080 32188 32280 32404 32408 32301 32174 32053 32028 32069 32112 32189 32219 32178 32074 32050 32098 32160 32257 32372 32495 32616 32591 32489 32355 32226 32201 32212 32275 32317 32378 32369 32275 32238 32273 32318 32382 32437 32552 32672 32657 32503 32314 32218 32187 32229 32296 32361 32380 32363 32259 32220 32296 32357 32410 32490 32597 32712 32672 32522 32322 32228 32217 32257 32318 32379 32427 32430 32363 32370 32420 32495 32599 32729 32858 32963 32962 32782 32537 32429 32427 32464 32528 32572 32580 32495 32368 32369 32410 32490 32576 32633 32706 32741 32610 32382 32220 32188 32245 32294 32391 32440 32467 32462 32361 32337 32371 32420 32468 32547 32630 32676 32525 32242 32098 32058 32061 32136 32212 32268 32322 32251 32160 32136 32152 32195 32274 32360 32425 32498 32381 32104 31936 31896 31912 31992 32074 32148 32212 32165 32051 32005 32041 32114 32227 32324 32396 32427 32220 31972 31865 31850 31900 32003 32079 32130 32165 32054 31948 31963 32028 32120 32214 32288 32350 32401 32294 32052 31895 31855 31909 31997 32073 32160 32219 32167 32094 32083 32127 32196 32290 32345 32394 32427 32311 32112 31990 31975 32005 32050 32123 32172 32204 32084 31996 31985 32052 32140 32241 32351 32420 32470 32341 32135 31982 31927 31971 32035 32104 32198 32244 32150 32008 31965 32003 32082 32128 32169 32286 32366 32281 32106 31947 31909 31939 31987 32085 32170 32220 32082 31957 31904 31972 32064 32161 32266 32333 32382 32221 32065 31947 31919 31939 32009 32085 32177 32203 32093 31953 31902 31928 31994 32086 32202 32333 32412 32290 32103 31985 31981 31997 32060 32151 32203 32246 32106 31963 31942 32011 32099 32188 32280 32395 32437 32344 32214 32136 32116 32154 32227 32304 32383 32446 32378 32263 32267 32316 32424 32504 32630 32705 32755 32600 32427 32313 32289 32330 32409 32486 32554 32607 32516 32412 32368 32389 32436 32488 32553 32647 32709 32600 32416 32260 32190 32211 32265 32357 32426 32480 32406 32334 32322 32371 32422 32503 32605 32680 32759 32672 32470 32326 32297 32328 32404 32469 32539 32620 32587 32495 32410 32414 32480 32542 32637 32724 32759 32624 32408 32241 32201 32252 32332 32412 32478 32489 32434 32309 32240 32247 32297 32368 32463 32523 32613 32607 32379 32222 32157 32162 32202 32274 32363 32409 32393 32263 32179 32211 32275 32347 32430 32500 32552 32516 32299 32146 32061 32066 32130 32210 32263 32327 32339 32222 32151 32119 32175 32248 32303 32382 32435 32353 32102 31919 31835 31839 31893 31964 32010 32090 32042 31904 31838 31833 31913 32006 32148 32255 32348 32314 32082 31872 31812 31838 31921 32027 32081 32108 32073 31943 31865 31869 31918 31995 32113 32244 32330 32277 32052 31845 31775 31786 31880 31998 32063 32123 32110 31991 31928 31929 31991 32083 32204 32291 32347 32284 32031 31854 31775 31811 31891 31988 32067 32121 32142 32063 31994 31968 32016 32084 32212 32309 32395 32362 32169 31974 31899 31928 32008 32103 32143 32195 32244 32141 32064 32062 32126 32219 32336 32412 32459 32410 32215 32003 31937 31977 32076 32146 32206 32250 32309 32259 32160 32154 32216 32297 32407 32512 32633 32781 32850 32810 32825 32915 33022 33119 33222 33347 33537 33652 33725 33785 33884 33954 34072 34185 34282 34371 34421 34403 34346 34346 34363 34426 34530 34579 34596 34571 34435 34284 34219 34214 34218 34149 34032 33911 33649 33364 33193 33146 33189 33151 33143 33143 33186 33185 33124 33114 33147 33249 33314 33339 33282 33184 32965 32711 32543 32483 32520 32480 32439 32354 32313 32183 32045 31964 31970 32049 32091 32045 31890 31711 31386 31137 31061 31117 31212 31266 31252 31199 31088 30878 30741 30720 30795 30920 31008 31042 30989 30769 30447 30285 30295 30452 30611 30735 30785 30808 30709 30465 30351 30375 30498 30652 30769 30853 30850 30684 30421 30289 30331 30497 30668 30791 30867 30910 30848 30708 30611 30628 30744 30918 31050 31138 31193 31040 30725 30554 30587 30724 30897 31033 31108 31156 31162 31078 31057 31133 31230 31379 31478 31567 31578 31574 31401 31300 31339 31444 31586 31721 31775 31703 31654 31565 31533 31519 31572 31642 31660 31573 31534 31515 31352 31248 31191 31230 31303 31367 31330 31292 31319 31295 31245 31202 31233 31237 31186 31222 31285 31368 31338 31323 31313 31401 31485 31540 31552 31563 31641 31705 31685 31721 31811 31919 31999 32061 32115 32147 32155 32120 32096 32158 32223 32337 32345 32410 32429 32510 32450 32392 32398 32463 32486 32489 32508 32534 32580 32489 32394 32357 32371 32374 32339 32295 32307 32351 32400 32323 32272 32253 32324 32379 32405 32446 32509 32544 32479 32409 32364 32376 32440 32484 32554 32619 32707 32698 32626 32576 32599 32652 32641 32605 32592 32598 32498 32357 32246 32220 32236 32261 32326 32430 32534 32601 32511 32423 32408 32399 32351 32304 32282 32312 32346 32230 32073 32022 32057 32135 32229 32337 32438 32537 32578 32459 32361 32261 32169 32146 32170 32199 32247 32259 32099 31955 31898 31955 32051 32131 32223 32330 32389 32256 32043 31883 31816 31842 31874 31931 32016 32039 31994 31818 31703 31671 31717 31803 31914 32006 32057 32001 31786 31551 31409 31361 31434 31512 31595 31605 31628 31534 31436 31437 31543 31714 31892 32028 32155 32251 32257 32198 32198 32279 32358 32438 32536 32633 32728 32819 32924 33099 33288 33326 33530 33869 34032 34248 34458 34635 34814 34954 35056 35197 35277 35302 35324 35359 35423 35509 35632 35847 36053 36170 36268 36274 36263 36231 36223 36243 36266 36300 36305 36307 36245 36172 36080 35845 35643 35489 35375 35257 35095 34904 34769 34598 34323 34143 34040 33988 33915 33841 33763 33759 33772 33666 33532 33421 33410 33362 33286 33185 33117 33081 32881 32702 32627 32579 32554 32497 32514 32551 32604 32462 32265 32133 32118 32125 32120 32104 32141 32184 32008 31839 31713 31692 31738 31770 31805 31897 31969 31875 31674 31550 31531 31503 31439 31451 31478 31529 31397 31241 31154 31156 31218 31276 31351 31453 31568 31503 31319 31214 31196 31166 31121 31123 31217 31339 31342 31224 31139 31143 31183 31261 31383 31530 31675 31687 31525 31482 31520 31520 31482 31509 31607 31707 31780 31660 31531 31505 31557 31677 31795 31890 31998 32044 31898 31771 31731 31661 31600 31647 31729 31838 31949 31803 31655 31617 31692 31791 31919 32036 32126 32241 32204 32056 31902 31788 31819 31877 31965 32051 32129 32083 31931 31873 31899 31997 32077 32146 32258 32380 32472 32430 32352 32264 32267 32364 32442 32506 32591 32620 32533 32460 32459 32507 32578 32658 32749 32854 32922 32874 32724 32548 32469 32476 32513 32550 32616 32702 32739 32649 32630 32636 32664 32687 32744 32834 32938 32964 32816 32593 32444 32402 32407 32418 32473 32504 32588 32575 32562 32564 32575 32632 32713 32815 32893 32986 32907 32682 32512 32458 32467 32498 32560 32630 32702 32788 32742 32705 32695 32741 32817 32897 33008 33078 33041 32869 32694 32649 32683 32784 32854 32928 33003 33024 33032 32945 32875 32826 32842 32903 32977 33023 33014 32951 32824 32719 32684 32727 32781 32806 32870 32934 32980 32971 32896 32853 32905 32964 33002 32988 32920 32893 32808 32699 32656 32651 32687 32697 32740 32804 32876 32960 32941 32892 32879 32917 33009 33066 33062 32994 32978 32923 32803 32739 32748 32824 32888 32943 32979 33059 33083 33014 32970 32970 33036 33065 33021 32996 32969 32967 32870 32782 32753 32805 32880 32959 33024 33089 33166 33164 33083 33026 33050 33083 33009 32922 32896 32892 32887 32808 32737 32760 32806 32887 32956 32981 33041 33084 33036 32950 32937 32950 32897 32863 32849 32844 32847 32806 32702 32631 32664 32721 32784 32853 32919 33004 33049 32979 32892 32822 32778 32756 32788 32838 32896 32901 32805 32687 32674 32753 32842 32917 33032 33107 33184 33108 32969 32804 32680 32660 32675 32720 32741 32788 32798 32686 32642 32643 32695 32763 32862 33031 33271 33579 33956 34236 34397 34575 34730 34867 34979 35123 35245 35272 35267 35319 35379 35455 35640 35859 35992 36072 36084 36009 35915 35869 35846 35873 35943 36012 36096 36142 36110 36082 36087 36103 36204 36379 36443 36415 36341 36262 36114 36054 36029 36047 36099 36120 36110 36082 36043 36003 35900 35795 35717 35669 35568 35435 35269 35132 34980 34785 34648 34566 34509 34461 34420 34396 34354 34298 34206 34101 34024 34000 33962 33863 33747 33671 33694 33662 33559 33540 33540 33544 33546 33515 33550 33645 33672 33548 33476 33407 33417 33347 33176 33110 33050 32959 32756 32585 32478 32382 32274 32245 32308 32419 32537 32462 32390 32373 32418 32372 32312 32203 32169 32189 32020 31823 31667 31557 31567 31651 31780 31957 32128 32156 32002 31888 31782 31731 31716 31704 31794 31881 31754 31553 31415 31379 31409 31482 31607 31784 31907 31797 31667 31561 31530 31549 31579 31684 31802 31934 31890 31785 31725 31757 31861 31963 32109 32228 32346 32311 32193 32158 32182 32181 32148 32131 32160 32210 32145 32032 32010 32079 32206 32324 32453 32587 32696 32690 32606 32554 32473 32385 32260 32166 32139 32159 32109 32001 31960 32065 32193 32304 32436 32574 32681 32658 32592 32574 32637 32632 32613 32618 32637 32725 32732 32647 32582 32540 32537 32562 32602 32653 32749 32795 32728 32682 32666 32575 32541 32555 32578 32648 32706 32644 32586 32579 32623 32695 32788 32901 32966 32974 32877 32790 32687 32649 32677 32764 32865 32929 32964 32854 32691 32646 32660 32717 32799 32914 33020 33082 33027 32980 32877 32766 32744 32775 32754 32743 32678 32501 32359 32369 32438 32503 32608 32756 32911 33035 32995 32923 32696 32550 32531 32548 32561 32573 32580 32512 32394 32347 32405 32527 32658 32754 32887 32977 32927 32752 32477 32328 32287 32267 32317 32347 32365 32203 32011 32006 32132 32217 32316 32419 32522 32605 32565 32316 32091 32030 32106 32198 32319 32440 32563 32571 32518 32449 32457 32499 32556 32607 32661 32733 32640 32344 32162 32075 32070 32065 32098 32083 32151 32124 32053 32015 32004 32070 32166 32244 32327 32426 32316 32006 31821 31746 31764 31801 31845 31829 31835 31797 31713 31723 31848 31997 32136 32240 32346 32416 32239 31967 31844 31870 31948 32042 32093 32128 32168 32193 32184 32249 32309 32418 32557 32659 32756 32786 32542 32285 32174 32193 32268 32350 32374 32383 32431 32381 32346 32368 32415 32504 32577 32631 32657 32553 32367 32244 32224 32242 32298 32355 32420 32466 32530 32567 32593 32621 32691 32767 32815 32844 32817 32670 32519 32431 32446 32535 32610 32678 32696 32749 32772 32765 32749 32786 32856 32922 32980 32972 32894 32796 32714 32639 32622 32642 32655 32645 32610 32636 32660 32683 32709 32752 32820 32892 32968 32953 32833 32654 32504 32416 32384 32416 32433 32435 32470 32549 32586 32600 32614 32647 32733 32841 32907 32805 32736 32684 32592 32487 32471 32465 32502 32555 32624 32697 32766 32758 32741 32761 32814 32845 32851 32761 32720 32610 32453 32400 32407 32433 32477 32486 32512 32597 32619 32577 32547 32575 32643 32714 32679 32600 32582 32528 32460 32435 32461 32502 32591 32621 32648 32732 32710 32644 32647 32687 32752 32752 32758 32758 32753 32675 32611 32598 32621 32653 32699 32727 32808 32892 32909 32848 32835 32877 32925 32984 32943 32908 32922 32846 32762 32693 32654 32679 32739 32759 32797 32854 32837 32780 32764 32798 32862 32849 32795 32759 32747 32643 32592 32557 32592 32643 32660 32720 32785 32899 32894 32841 32823 32841 32913 32937 32890 32847 32813 32674 32582 32542 32584 32609 32633 32669 32752 32838 32835 32792 32778 32796 32869 32865 32777 32678 32572 32404 32351 32324 32338 32368 32414 32470 32564 32654 32641 32563 32549 32552 32577 32526 32456 32455 32435 32348 32275 32226 32259 32307 32334 32402 32497 32557 32491 32428 32394 32390 32366 32296 32265 32299 32265 32181 32140 32126 32164 32205 32211 32281 32371 32443 32399 32334 32322 32324 32222 32180 32168 32218 32196 32114 32066 32048 32056 32070 32102 32150 32223 32159 32057 32028 32055 32079 31973 31953 31983 32047 31997 31888 31848 31846 31863 31889 31954 32042 32167 32151 32082 32034 32040 32027 31924 31896 31931 31930 31832 31761 31735 31790 31830 31848 31932 32025 32136 32138 32074 32046 32082 32090 32004 31968 31963 31923 31815 31744 31753 31802 31816 31850 31914 31997 32012 31898 31827 31864 31937 31932 31901 31914 31960 31933 31866 31872 31901 31961 31976 31997 32052 32175 32176 32119 32065 32106 32154 32112 32001 31986 31982 31879 31760 31729 31737 31771 31799 31831 31913 31985 31924 31880 31885 31946 31990 31948 31883 31876 31779 31652 31626 31662 31718 31705 31702 31752 31852 31879 31792 31745 31802 31906 32000 31940 31838 31786 31645 31510 31478 31514 31576 31606 31636 31724 31841 31830 31773 31796 31863 31943 32004 31910 31878 31782 31611 31542 31543 31588 31673 31744 31766 31808 31885 31849 31789 31770 31835 31911 31935 31869 31849 31766 31628 31565 31581 31641 31735 31796 31826 31917 31951 31895 31828 31859 31944 32045 32022 31947 31971 31879 31768 31769 31841 31895 31956 31979 32025 32122 32178 32150 32128 32152 32165 32164 32105 32065 32086 31996 31922 31890 31920 31964 32001 32019 32136 32293 32387 32366 32355 32377 32408 32336 32285 32281 32328 32243 32150 32080 32075 32093 32132 32183 32287 32395 32381 32308 32289 32333 32348 32302 32244 32247 32240 32155 32071 32027 32085 32104 32157 32216 32277 32315 32253 32210 32237 32307 32324 32252 32202 32190 32142 32049 31990 31962 32004 32046 32097 32177 32295 32346 32273 32198 32205 32234 32135 32129 32143 32176 32211 32097 32016 31992 32033 32076 32138 32240 32294 32349 32293 32233 32171 32124 32040 32041 32067 32141 32112 31989 31881 31852 31858 31901 32014 32145 32288 32363 32249 32158 32086 31982 31970 32000 32042 32084 32016 31855 31767 31740 31776 31865 31951 32052 32143 32103 31986 31906 31848 31787 31808 31840 31884 31932 31831 31707 31652 31692 31749 31825 31934 32040 32161 32182 32062 32004 31917 31833 31796 31759 31786 31829 31728 31620 31608 31661 31724 31796 31888 31958 32043 31969 31882 31850 31809 31773 31744 31716 31701 31720 31630 31544 31550 31580 31649 31723 31776 31824 31906 31875 31785 31761 31724 31661 31644 31649 31699 31721 31568 31460 31444 31525 31600 31722 31823 31934 31965 31855 31785 31711 31669 31648 31612 31650 31719 31686 31518 31428 31427 31474 31550 31659 31757 31893 31895 31764 31674 31605 31620 31656 31700 31773 31839 31714 31583 31471 31464 31544 31685 31821 31971 32099 32069 31928 31815 31726 31632 31577 31582 31616 31677 31592 31477 31437 31447 31446 31487 31589 31662 31711 31659 31560 31534 31500 31426 31448 31486 31532 31593 31493 31389 31335 31345 31392 31483 31561 31642 31737 31672 31606 31588 31481 31433 31420 31475 31538 31532 31408 31314 31230 31267 31348 31448 31561 31657 31638 31516 31476 31465 31384 31375 31401 31453 31519 31476 31378 31330 31355 31401 31482 31553 31635 31705 31673 31595 31601 31670 31573 31510 31527 31600 31679 31634 31539 31506 31526 31531 31589 31668 31744 31785 31708 31654 31675 31708 31643 31603 31612 31623 31612 31495 31425 31491 31561 31635 31716 31789 31816 31857 31767 31750 31796 31837 31790 31748 31766 31819 31734 31629 31540 31530 31558 31647 31787 31899 32000 31986 31885 31848 31849 31796 31771 31758 31800 31805 31706 31603 31579 31642 31689 31751 31808 31830 31809 31755 31712 31762 31812 31733 31689 31679 31693 31673 31561 31518 31553 31600 31642 31722 31808 31857 31816 31729 31722 31785 31823 31785 31735 31745 31777 31694 31590 31553 31584 31623 31667 31729 31802 31886 31863 31785 31781 31835 31868 31839 31787 31769 31752 31652 31600 31618 31650 31714 31733 31788 31851 31891 31805 31785 31840 31913 31892 31834 31839 31843 31793 31680 31647 31663 31701 31720 31752 31826 31957 31989 31901 31867 31906 31983 31983 31888 31847 31883 31826 31745 31754 31787 31831 31855 31883 31963 32051 32021 31982 31990 32033 32080 32007 31926 31949 31969 31882 31820 31781 31813 31839 31853 31899 31981 32062 31996 31932 31912 31989 32038 31967 31910 31924 31905 31775 31714 31726 31753 31834 31864 31926 32014 32030 31936 31883 31913 31988 31964 31855 31851 31861 31806 31708 31675 31683 31741 31752 31775 31841 31948 31926 31843 31836 31872 31910 31819 31752 31734 31789 31739 31643 31557 31556 31663 31767 31941 32166 32545 32838 33019 33153 33275 33312 33457 33640 33850 33952 33948 33947 34034 34133 34263 34351 34511 34701 35045 35506 35774 35911 36001 36070 36108 36232 36377 36463 36440 36418 36481 36482 36464 36375 36363 36281 36040 35939 36083 36305 36302 36196 36116 36173 36176 36029 35722 35418 35203 35094 35004 34912 34831 34721 34578 34321 34157 34087 34042 33876 33678 33545 33486 33329 33149 33009 33007 33069 33101 33110 33127 33116 33024 32879 32823 32814 32763 32623 32512 32495 32486 32340 32180 32095 32163 32176 32199 32194 32230 32263 32117 31949 31916 31935 31886 31855 31892 31949 31975 31841 31704 31677 31778 31897 31977 32035 32089 32139 31993 31887 31895 31819 31649 31564 31536 31553 31516 31340 31263 31301 31357 31437 31479 31521 31579 31518 31373 31345 31364 31359 31274 31217 31184 31162 31023 30867 30841 30939 31148 31283 31291 31343 31408 31307 31232 31229 31359 31330 31107 31064 31076 31068 30949 30852 30896 31026 31174 31258 31333 31413 31432 31318 31231 31239 31276 31160 31141 31167 31220 31215 31116 31077 31118 31214 31295 31385 31445 31540 31524 31435 31394 31424 31385 31321 31322 31368 31398 31308 31210 31175 31222 31296 31374 31491 31606 31675 31570 31495 31504 31578 31537 31516 31535 31609 31622 31515 31422 31420 31482 31568 31637 31749 31863 31955 31899 31868 31916 31952 31863 31823 31827 31841 31758 31655 31638 31703 31795 31880 31975 32040 32099 32078 32010 32011 32098 32132 32105 32076 32090 32065 31960 31871 31833 31903 31972 32052 32131 32171 32195 32099 32013 32029 32121 32069 31960 31742 31461 31239 30856 30565 30687 30978 31747 32493 32864 33040 33228 33221 33115 33125 33300 33431 33544 33633 33668 33638 33595 33648 33800 33986 34139 34298 34430 34769 34850 34701 34555 34508 34427 34090 33899 33790 33705 33560 33419 33317 33218 33166 33182 33265 33368 33610 33836 33811 33783 33802 33728 33570 33465 33410 33357 33175 33020 32859 32814 32740 32712 32799 32942 33082 33103 33080 33060 33071 32997 32833 32792 32777 32728 32553 32397 32338 32322 32302 32330 32423 32590 32676 32680 32644 32668 32721 32597 32509 32522 32599 32580 32471 32364 32287 32259 32266 32350 32502 32653 32653 32582 32523 32557 32579 32485 32389 32382 32440 32385 32314 32262 32236 32300 32357 32440 32549 32706 32743 32714 32702 32754 32697 32574 32528 32555 32586 32489 32427 32373 32404 32417 32449 32542 32670 32766 32708 32644 32673 32731 32711 32637 32608 32651 32677 32595 32560 32536 32575 32610 32657 32757 32878 32971 32922 32905 32961 33012 32970 32913 32855 32834 32794 32729 32728 32731 32796 32819 32843 32930 33020 33013 32929 32941 33012 33094 33094 33029 33013 32994 32914 32901 32944 33002 33074 33113 33156 33223 33326 33357 33328 33342 33390 33432 33407 33309 33307 33284 33136 33052 33016 33034 33064 33112 33195 33282 33405 33451 33445 33496 33548 33618 33626 33542 33489 33426 33316 33264 33273 33305 33318 33335 33416 33542 33671 33655 33595 33629 33672 33663 33596 33561 33602 33608 33508 33435 33435 33429 33472 33505 33557 33672 33738 33662 33619 33658 33700 33704 33625 33623 33661 33610 33497 33475 33462 33502 33540 33592 33690 33776 33801 33708 33664 33705 33746 33686 33666 33676 33736 33703 33591 33512 33430 33376 33397 33447 33550 33678 33700 33645 33620 33639 33608 33526 33527 33551 33592 33512 33375 33301 33287 33326 33383 33437 33548 33694 33740 33689 33677 33683 33674 33569 33525 33525 33534 33453 33347 33256 33262 33300 33342 33409 33537 33665 33671 33591 33547 33548 33459 33411 33433 33470 33481 33377 33264 33207 33238 33281 33363 33456 33550 33636 33587 33526 33511 33492 33413 33336 33315 33332 33302 33172 33044 33004 33022 33096 33199 33360 33499 33579 33485 33427 33389 33348 33270 33247 33297 33354 33342 33211 33090 33076 33102 33139 33207 33301 33410 33454 33340 33282 33263 33224 33153 33137 33163 33175 33104 32969 32902 32883 32923 32996 33116 33248 33366 33334 33227 33173 33147 33103 33090 33084 33126 33171 33088 32965 32891 32913 32946 32963 33055 33197 33318 33322 33283 33252 33271 33192 33100 33084 33123 33146 33047 32916 32860 32892 32944 33025 33149 33281 33392 33354 33252 33223 33216 33177 33143 33146 33157 33189 33119 33002 32962 32990 33051 33101 33206 33298 33348 33293 33220 33223 33228 33187 33216 33262 33297 33284 33174 33040 32988 33007 33067 33179 33314 33436 33504 33386 33309 33328 33354 33249 33235 33268 33307 33278 33173 33080 33065 33100 33134 33198 33300 33396 33438 33365 33331 33356 33355 33305 33279 33312 33352 33304 33165 33056 33065 33073 33131 33199 33325 33425 33382 33311 33302 33324 33327 33233 33245 33314 33373 33301 33161 33093 33227 33571 33915 34166 34197 34197 34124 34003 33835 33660 33474 33406 33422 33496 33590 33652 33707 33741 33838 34023 34209 34434 34704 34965 35123 35214 35285 35284 35232 35236 35308 35356 35402 35292 35163 35121 35125 35204 35281 35307 35247 35146 35175 35229 35271 35314 35317 35306 35375 35472 35529 35541 35521 35483 35455 35410 35351 35308 35247 35172 34931 34696 34526 34408 34283 34167 34154 34232 34168 33953 33771 33659 33569 33555 33555 33554 33586 33479 33334 33243 33231 33198 33099 33103 33147 33230 33176 33051 32906 32872 32829 32843 32838 32848 32913 32914 32746 32631 32607 32551 32352 32224 32186 32269 32177 32018 31904 31903 31942 32004 32053 32095 32178 32079 31899 31858 31898 31950 31835 31754 31764 31803 31708 31564 31448 31507 31649 31706 31771 31831 31902 31858 31723 31701 31779 31804 31717 31633 31628 31630 31536 31446 31373 31399 31451 31498 31537 31592 31666 31570 31472 31456 31515 31459 31405 31425 31503 31539 31431 31315 31298 31383 31550 31690 31752 31844 31933 31909 31840 31819 31857 31814 31702 31628 31591 31516 31397 31301 31326 31345 31368 31460 31547 31628 31630 31535 31493 31550 31566 31513 31448 31460 31543 31546 31450 31391 31407 31449 31533 31642 31759 31863 31894 31846 31818 31839 31886 31775 31756 31806 31844 31808 31719 31657 31685 31767 31873 31946 32047 32122 32080 32032 32043 32071 32042 32026 32059 32122 32164 32087 32001 31970 32003 32075 32142 32242 32331 32428 32395 32344 32338 32349 32297 32279 32293 32317 32281 32133 31992 32017 32066 32135 32209 32266 32336 32331 32260 32215 32231 32169 32128 32110 32094 32150 32086 31927 31858 31893 31976 32068 32125 32160 32199 32219 32148 32170 32185 32171 32175 32247 32296 32378 32319 32214 32171 32244 32337 32450 32509 32584 32641 32585 32459 32424 32399 32363 32382 32416 32475 32514 32423 32324 32285 32346 32431 32519 32588 32646 32698 32592 32486 32443 32411 32401 32417 32457 32480 32475 32310 32207 32236 32311 32411 32502 32555 32647 32686 32579 32506 32470 32415 32428 32474 32510 32549 32523 32408 32382 32436 32528 32619 32708 32761 32834 32845 32722 32677 32653 32608 32622 32655 32686 32767 32684 32559 32510 32587 32667 32745 32824 32891 33018 32974 32869 32792 32744 32723 32745 32819 32858 32904 32824 32680 32613 32651 32732 32803 32895 32991 33111 33015 32885 32780 32726 32737 32781 32842 32909 32945 32790 32696 32676 32724 32802 32869 32945 33023 33117 33052 32941 32819 32740 32734 32762 32791 32825 32866 32750 32602 32580 32613 32681 32747 32832 32911 33023 32883 32721 32580 32517 32514 32558 32584 32655 32676 32553 32430 32359 32356 32422 32502 32556 32657 32799 32749 32576 32369 32286 32278 32306 32349 32411 32455 32344 32184 32155 32186 32285 32371 32509 32638 32713 32543 32302 32099 32040 32045 32090 32148 32218 32253 32170 32069 32041 32078 32147 32233 32355 32480 32582 32468 32209 32021 31968 31958 31971 31986 32024 32054 31937 31820 31783 31835 31894 31966 32094 32246 32294 32163 31912 31796 31781 31807 31876 31944 31987 32035 31943 31820 31784 31808 31876 31947 32086 32211 32303 32182 31968 31813 31755 31769 31805 31854 31925 31969 31883 31776 31711 31737 31794 31851 31974 32132 32142 31972 31731 31637 31617 31646 31710 31761 31811 31793 31616 31486 31480 31565 31651 31767 31927 32037 32061 31895 31705 31578 31534 31561 31593 31639 31706 31682 31570 31504 31524 31603 31686 31806 31904 32049 31989 31831 31674 31589 31595 31602 31657 31742 31788 31707 31581 31534 31586 31658 31738 31830 31952 32086 32000 31885 31732 31667 31678 31727 31762 31831 31904 31809 31714 31683 31723 31773 31839 31875 31950 32041 31910 31853 31780 31720 31689 31675 31677 31714 31684 31530 31387 31406 31544 31702 31805 31906 31992 32042 31919 31830 31744 31754 31792 31838 31893 31958 31934 31812 31748 31783 31875 31995 32075 32157 32254 32279 32170 32130 32054 32044 32061 32077 32106 32163 32048 31943 31935 31984 32064 32163 32236 32300 32385 32298 32195 32201 32201 32197 32198 32230 32243 32234 32114 32000 32035 32198 32424 32595 32723 32846 32896 32778 32707 32685 32590 32496 32466 32482 32434 32358 32238 32174 32174 32273 32390 32502 32589 32635 32545 32423 32387 32468 32460 32375 32339 32321 32304 32201 32086 32038 32104 32290 32403 32508 32588 32658 32617 32550 32536 32606 32586 32414 32415 32472 32501 32370 32248 32226 32264 32324 32374 32449 32528 32557 32441 32329 32332 32408 32389 32331 32322 32369 32329 32188 32110 32129 32146 32187 32238 32360 32443 32486 32372 32273 32316 32320 32202 32136 32124 32173 32100 31967 31890 31869 31869 31893 31943 32028 32147 32162 32068 32016 32028 32068 31971 31936 31974 32046 31997 31938 31875 31872 31905 31945 32011 32121 32211 32190 32114 32060 32062 32049 31971 31979 32029 32029 31918 31813 31778 31819 31875 31945 32032 32129 32270 32284 32281 32281 32302 32279 32211 32195 32226 32287 32187 32142 32159 32226 32234 32269 32373 32442 32518 32483 32462 32484 32552 32630 32709 32763 32759 32656 32489 32398 32390 32388 32373 32377 32412 32495 32754 32976 33232 33361 33552 33819 33992 34168 34347 34544 34657 34714 34727 34776 34869 34956 35181 35305 35307 35189 35001 34867 34866 34835 34944 35031 35052 34950 34708 34513 34360 34392 34514 34640 34627 34749 35159 35307 35272 35324 35327 35360 35434 35475 35479 35333 35183 35070 35003 34975 34991 35026 34907 34825 34653 