4274 4266 4266 4266 4257 4267 4268 4261 4264 4264 4260 48103 48108 48109 48106 48108 48106 48107 48103 48101 48113 48100 48102 48104 48097 48106 48100 48110 48097 48097 48103 48110 48109 48104 48105 48105 48105 48106 48115 48105 48105 48105 48103 48107 48101 48107 48107 48106 48107 46610 46696 46601 46433 46253 46101 45971 45885 45829 45743 45650 45604 45540 45519 45486 45491 45510 45492 45351 45202 45092 45021 44977 44954 44946 44928 44935 44980 45102 45426 45673 45864 45765 45511 45359 45216 45128 45084 45069 45072 45078 45056 45076 45112 45151 45216 45306 45418 45488 45513 45524 45579 45673 45776 45886 46013 46163 46329 46464 46632 46733 46892 46941 46996 47054 47113 47209 47259 47316 47291 47283 47234 47180 47121 47012 46922 46850 46856 46779 46650 46506 46405 46357 46306 46250 46202 46148 46128 46096 46045 46029 46006 45961 45798 45597 45446 45289 45186 45119 45098 45058 45024 45066 45102 45197 45335 45474 45513 45493 45422 45375 45325 45292 45268 45216 45192 45161 45166 45155 45177 45207 45234 45159 45063 44954 44897 44866 44854 44839 44815 44805 44795 44795 44838 44893 44944 44988 44950 44903 44850 44806 44821 44838 44867 44912 44931 44974 44998 45059 45095 45146 45119 45032 44991 44978 44983 45062 45088 45208 45277 45426 45594 45734 45808 45867 45879 45687 45516 45434 45418 45401 45370 45375 45372 45398 45363 45267 45204 45076 45010 45065 45096 45311 45407 45394 46176 46281 46128 46474 46677 46803 46965 47082 47093 47086 47161 47194 47254 47368 47488 47648 47865 48106 48095 48102 48102 48104 48095 48103 48101 48104 48095 48103 48096 48098 48096 48092 48091 48087 48092 48087 48086 48090 48093 48087 48090 48088 48082 41711 41621 41611 41645 41707 41759 41794 41845 41896 41938 41972 41966 41954 41959 41913 41922 41932 41945 41904 41913 41999 42087 42219 42320 42409 42466 42424 42393 42336 42249 42194 42096 41974 41888 41830 41785 41750 41825 41935 42073 42207 42349 42386 42306 42191 42090 42034 42004 42005 42018 41984 42003 42092 42157 42184 42109 42040 42094 42202 42293 42346 42337 42249 42140 42026 41931 41886 41859 41864 41877 41779 41652 41485 41271 41026 40780 40805 40732 40639 40617 40699 40826 40789 40733 40740 40748 40732 40807 40904 41040 41161 41240 41282 41355 41467 41511 41538 41603 41640 41632 41618 41610 41630 41754 41906 42015 41874 41700 41476 41490 41526 41587 41654 41757 41721 41699 41666 41631 41633 41620 41582 41560 41523 41469 41408 41376 41503 41584 41604 41534 41472 41447 41424 41401 41379 41353 41304 41262 41210 41164 41144 41082 41046 40978 40874 40810 40798 40797 40840 40865 40908 40971 41006 41024 41054 41080 41104 41095 41031 40959 40907 40888 40905 40926 40977 40996 40999 41013 41032 41029 41049 41054 40989 40949 40921 40853 40775 40723 40728 40744 40763 40785 40816 40889 40937 40958 40936 40878 40941 41027 41169 41294 41326 41396 41472 41465 41471 41516 41535 41608 41669 41665 41541 41343 41154 40925 40831 40786 40829 40870 40905 40993 41174 41438 41642 41759 41855 42048 42181 42286 42329 42361 42372 42312 42272 42305 42455 42595 42711 42828 42961 43043 43107 43161 43154 43120 42993 42922 42737 42701 42639 42657 42646 42624 42572 42496 42466 42500 42582 42638 42677 42712 42740 42734 42688 42673 42611 42558 42432 42349 42287 42279 42243 42192 42153 42156 42156 42198 42270 42335 42372 42408 42332 42324 42336 42376 42371 42434 42493 42459 42458 42452 42423 42422 42416 42330 42168 42050 41981 41972 42018 42040 42045 42067 42087 42094 42124 42164 42217 42244 42145 42161 42191 42302 42327 42407 42414 42428 42424 42381 42521 42466 42603 42633 42531 42575 42532 42514 42456 42453 42473 42516 42545 42604 42658 42742 42801 42782 42726 42703 42686 42678 42704 42706 42736 42756 42785 42805 42859 42892 42908 42844 42745 42668 42693 42694 42625 42490 42295 42115 41931 41824 41755 41718 41666 41571 41442 41327 41250 41184 41114 41061 40981 40939 40946 40958 40946 40864 40777 40671 40543 40468 40513 40575 40602 40602 40602 40612 40594 40513 40462 40341 40172 39991 39850 39793 39783 39740 39738 39760 39818 39924 40044 40172 40258 40332 40363 40367 40378 40406 40458 40482 40612 40747 40987 41218 41406 41537 41629 41633 41662 41685 41719 41731 41730 41729 41739 41721 41730 41715 41758 41769 41771 41813 41866 41956 42040 42106 42125 42109 42089 42115 42079 42067 42087 42099 42093 42104 42090 42059 42010 41962 41950 41908 41877 41876 41875 41899 41944 41924 41846 41780 41784 41748 41755 41754 41802 41842 41881 41892 41911 41876 41798 41708 41650 41591 41564 41549 41539 41550 41530 41504 41475 41438 41420 41297 41132 40980 40936 40885 40920 40910 40895 40913 40916 40940 40939 41051 41223 41354 41347 41385 41332 41189 41054 40908 40821 40782 40758 40774 40804 40871 40931 40920 40897 40933 40996 41104 41159 41278 41644 41628 41564 41460 41547 41715 41891 42075 42290 42480 42611 42696 42712 42765 42767 42615 42398 42500 42643 42726 42801 42861 42957 42894 42859 43074 43272 43399 43439 43405 43365 43281 43157 43182 43293 43354 43435 43565 43576 43552 43846 44073 44277 44359 44381 44259 44199 43905 43127 42827 42548 42695 42840 43316 43553 43614 43705 43848 43839 43933 43977 44035 44111 44178 44320 44277 44138 44009 43944 43921 43964 43982 43988 43975 44012 44094 44201 44348 44609 44635 44680 44584 44399 44251 44088 44085 44152 44215 44240 44244 44233 44163 44121 44138 44148 44112 44176 44150 44147 44149 44221 44255 44259 44266 44278 44150 44091 44107 44080 44018 44004 43982 43890 43750 43784 43844 43861 43741 43450 43116 42786 42496 42244 42316 42397 42504 42589 42676 42742 42784 42810 42857 42664 42235 41851 41346 41011 40936 41016 41266 41421 41530 41600 41593 41620 41599 41585 41480 41402 41345 41326 41329 41316 41267 41202 41149 41097 41060 41045 41021 40871 40661 40485 40331 40268 40193 40160 40104 40077 40087 40107 40132 40155 40211 40214 40105 39951 39823 39752 39711 39705 39706 39717 39727 39765 39821 39874 39885 39935 39943 39905 39960 40075 40161 40228 40216 40102 39927 39806 39692 39572 39467 39453 39317 38830 38556 38363 38415 38438 38453 38542 38764 39067 39298 39164 39495 39542 39738 39801 39990 40122 40180 40238 40201 40216 40134 39949 39831 39889 39923 39948 39981 40017 40100 40179 40401 40662 40938 41218 41428 41492 41542 41535 41630 41747 41902 41971 41993 42006 42071 42119 42192 42279 42431 42657 42771 42807 42747 42650 42474 42336 42190 42110 42056 42023 41985 41969 41984 41961 41926 41922 41894 41903 41917 41893 41821 41745 41638 41484 41363 41252 41165 41082 40978 40862 40803 40798 40770 40523 40294 40009 39919 40018 40051 40101 40153 40122 40056 40043 40037 40116 40321 40449 40411 40309 40217 40193 40214 40222 40261 40283 40285 40312 40316 40223 40134 39975 39707 39316 38957 38635 38374 38178 38072 37971 37924 37902 37832 37748 37621 37491 37216 36845 36557 36321 36158 36046 35968 35954 35959 36074 36168 36216 36262 36319 36279 36158 35982 35853 35779 35764 35743 35732 35732 35811 35891 35967 36049 36114 36006 35856 35747 35657 35595 35588 35581 35595 35614 35647 35711 35777 35809 35835 35781 35708 35642 35614 35564 35553 35527 35525 35530 35567 35601 35623 35712 35725 35654 35565 35508 35492 35532 35554 35584 35609 35639 35716 35762 35846 35910 35958 35939 35904 35892 35898 35907 35911 35923 35928 35948 35972 36002 36067 36132 36119 36054 35980 35961 35978 35983 36024 36090 36132 36191 36219 36235 36292 36356 36370 36322 36285 36251 36223 36203 36183 36234 36337 36403 36409 36451 36457 36465 36426 36365 36297 36302 36335 36377 36440 36492 36521 36531 36548 36557 36589 36634 36686 36649 36578 36517 36508 36511 36545 36544 36535 36539 36557 36547 36542 36528 36486 36418 36354 36323 36349 36368 36399 36426 36445 36524 36587 36674 36749 36799 36819 36769 36691 36633 36568 36503 36463 36426 36385 36446 36478 36529 36624 36724 36760 36684 36593 36499 36409 36351 36301 36294 36263 36329 36443 36504 36581 36651 36660 36612 36543 36457 36411 36386 36357 36274 36234 36194 36142 36158 36236 36316 36324 36297 36255 36239 36224 36219 36216 36237 36247 36240 36231 36226 36204 36214 36178 36133 36046 36004 35953 35937 35918 35934 35988 36014 36033 36043 36054 36057 35976 35859 35742 35718 35759 35835 35959 36082 36170 36210 36222 36250 36265 36289 36262 36229 36190 36195 36242 36333 36473 36589 36727 36841 36939 37061 37152 37264 37343 37441 37552 37707 37885 38021 38141 38244 38342 38394 38439 38486 38572 38628 38674 38718 38782 38804 38799 38805 38811 38856 38933 39002 39024 39029 39030 39036 39006 38988 39005 39063 39107 39122 39155 39199 39224 39253 39281 39294 39308 39231 39184 39151 39136 39136 39140 39149 39166 39158 39189 39168 39168 39175 39177 39176 39141 39105 39071 39067 39056 39077 39111 39113 39104 39111 39110 39089 39050 38983 38934 38906 38872 38876 38859 38848 38830 38830 38839 38864 38893 38836 38771 38745 38676 38620 38600 38590 38588 38548 38519 38500 38472 38453 38419 38350 38247 38163 38117 38088 38064 37980 37927 37972 38028 38087 38164 38264 38354 38396 38476 38580 38658 38749 38851 38922 39026 39074 39168 39329 39486 39590 39680 39689 39758 39864 39917 39961 40041 40149 40217 40306 40407 40503 40544 40532 40508 40405 40318 40224 40176 40067 40047 40045 40030 40034 40052 40115 40165 40223 40188 40110 40068 40007 39970 39976 39985 39982 39981 39957 39952 39949 39991 39973 39912 39881 39862 39855 39846 39838 39796 39790 39762 39720 39690 39691 39708 39662 39576 39507 39442 39419 39384 39369 39351 39384 39400 39420 39433 39476 39519 39480 39414 39335 39297 39311 39295 39270 39234 39232 39177 39121 39083 39074 39004 38894 38787 38669 38629 38590 38563 38531 38515 38526 38510 38519 38512 38489 38425 38322 38249 38180 38100 38097 38078 38057 37988 37974 37968 37973 37992 38012 37975 37904 37820 37746 37717 37727 37764 37800 37816 37834 37854 37911 37940 37989 37983 37964 37888 37846 37833 37828 37840 37858 37881 37937 37964 37988 38014 38049 38055 38028 37956 37879 37900 37884 37890 37894 37933 37974 37980 37986 38004 38053 38080 38068 38026 37998 37922 37887 37893 37896 37905 37915 37940 37980 38011 38072 38096 38089 38055 38018 38030 38015 38027 38049 38046 38034 37983 37992 38036 38063 38100 38101 38068 38038 38013 38030 38028 38052 38071 38064 38076 38095 38119 38164 38185 38163 38120 38071 38064 38056 38021 38008 37994 37988 38001 38023 38038 38088 38081 38038 37988 37991 37984 37970 37971 37995 38030 38034 38064 38081 38105 38128 38161 38182 38201 38154 38105 38093 38087 38107 38116 38140 38132 38131 38124 38088 38096 38113 38093 38030 37976 37980 38000 38003 38008 38001 38026 38036 38031 38021 37975 37963 37882 37817 37750 37686 37630 37530 37466 37465 37428 37392 37354 37408 37434 37499 37540 37512 37460 37382 37355 37336 37334 37331 37349 37368 37366 37371 37327 37305 37280 37229 37161 37087 36987 36926 36916 36893 36897 36932 36985 37034 37071 37120 37164 37170 37103 37025 36981 36950 36959 36961 37004 37048 37065 37089 37106 37144 37186 37204 37145 37062 36973 36949 36925 36883 36868 36867 36898 36946 37000 37059 37102 37141 37172 37123 37058 37029 36995 36985 37010 37034 37028 37014 37002 37013 37040 37049 37037 36973 36888 36807 36791 36799 36863 36917 36961 37006 37045 37085 37135 37134 37134 37105 37073 37027 36997 36962 36945 36921 36909 36920 36925 36914 36913 36915 36921 36857 36804 36835 36838 36887 36952 37017 37081 37112 37153 37232 37315 37382 37442 37418 37379 37337 37280 37230 37260 37259 37270 37254 37244 37257 37235 37238 37265 37278 37336 37394 37518 37729 37971 38128 38233 38364 38444 38510 38680 38827 38918 38991 39004 38957 38975 39034 39088 39134 39231 39334 39401 39463 39496 39515 39518 39445 39437 39458 39516 39466 39439 39433 39475 39549 39600 39646 39635 39630 39589 39526 39454 39391 39358 39348 39363 39332 39275 39277 39235 39250 39254 39239 39167 39051 38968 38934 38907 38880 38852 38844 38791 38778 38781 38799 38794 38767 38684 38609 38573 38541 38471 38419 38378 38319 38331 38347 38350 38367 38346 38289 38206 38134 38179 38215 38292 38371 38479 38600 38760 38863 38978 39062 39117 39181 39286 39342 39386 39449 39481 39592 39716 39817 39886 39926 39995 40069 40075 39966 39901 39906 39919 39929 39936 39936 39891 39883 39901 39876 39776 39671 39664 39702 39687 39616 39574 39490 39455 39441 39438 39443 39430 39387 39412 39446 39467 39487 39412 39334 39277 39263 39261 39234 39216 39241 39234 39219 39224 39255 39267 39294 39255 39189 39111 39001 38979 38953 38937 38963 38955 38987 38980 38971 38988 39014 38966 38891 38824 38782 38768 38757 38742 38727 38688 38670 38664 38655 38637 38639 38571 38489 38374 38302 38264 38216 38227 38252 38270 38254 38242 38222 38195 38191 38170 38069 37956 37861 37778 37758 37750 37778 37767 37773 37837 37895 37922 37927 37932 37908 37808 37730 37688 37670 37690 37726 37744 37759 37761 37778 37798 37811 37854 37852 37814 37757 37710 37727 37731 37729 37726 37732 37710 37691 37640 37634 37693 37741 37713 37702 37696 37718 37776 37779 37801 37815 37857 37834 37856 37875 37866 37882 37878 37876 37864 37821 37743 37754 37739 37738 37714 37716 37747 37795 37826 37875 37910 37907 37889 37862 37803 37803 37811 37858 37888 37915 37942 37926 37914 37909 37969 38003 37967 37900 37820 37751 37696 37702 37732 37755 37786 37813 37858 37890 37914 37916 37886 37812 37754 37729 37698 37696 37686 37649 37616 37622 37644 37663 37660 37632 37615 37516 37408 37293 37271 37280 37330 37356 37394 37415 37443 37460 37512 37546 37544 37489 37417 37357 37330 37298 37264 37229 37188 37181 37161 37137 37169 37159 37133 36995 36903 36856 36847 36855 36876 36912 36977 37022 37044 37040 37060 37100 37070 36997 36904 36838 36763 36730 36692 36661 36674 36641 36579 36586 36569 36557 36536 36466 36423 36372 36377 36410 36486 36541 36611 36625 36611 36620 36641 36652 36654 36610 36500 36432 36358 36366 36379 36372 36352 36309 36297 36275 36248 36280 36328 36333 36299 36257 36298 36343 36410 36448 36439 36435 36457 36450 36476 36460 36437 36361 36250 36194 36175 36157 36121 36133 36102 36071 36047 36044 36103 36173 36205 36157 36156 36168 36199 36260 36306 36302 36282 36264 36260 36283 36276 36260 36203 36117 36018 35958 35927 35895 35928 35902 35874 35846 35875 35921 35988 36038 36106 36167 36189 36184 36217 36250 36243 36242 36246 36246 36239 36245 36250 36261 36299 36317 36237 36126 36031 35991 35984 35930 35901 35914 35961 36023 36101 36209 36318 36404 36420 36421 36418 36433 36426 36443 36440 36455 36448 36418 36418 36425 36423 36394 36304 36230 36193 36137 36077 36056 36120 36189 36221 36286 36375 36503 36581 36583 36598 36611 36630 36656 36705 36683 36674 36664 36646 36636 36588 36491 36296 36172 36107 36042 36016 36044 36096 36152 36177 36196 36257 36331 36402 36410 36346 36296 36290 36260 36244 36215 36191 36158 36148 36160 36177 36142 36103 36040 35952 35888 35854 35870 35900 35961 35996 36050 36117 36215 36285 36350 36405 36361 36278 36181 36135 36094 36060 36012 35989 35980 36053 36120 36100 36087 36065 35981 35890 35852 35889 35931 35962 35972 35992 36073 36163 36201 36273 36335 36344 36309 36307 36330 36358 36343 36356 36316 36263 36224 36138 36148 36109 36047 35991 35960 35920 35918 35936 35963 36049 36129 36200 36162 36202 36266 36320 36429 36588 36750 36946 37120 37289 37477 37634 37768 37929 38140 38282 38406 38505 38536 38580 38621 38657 38705 38766 38812 38827 38819 38838 38908 38956 38984 38998 38994 39009 38990 39012 39033 39030 39055 39050 39085 39098 39117 39106 39059 38992 38967 38946 38960 38986 39011 39034 39048 39036 39031 39002 38937 38881 38825 38781 38726 38672 38641 38624 38601 38574 38575 38594 38601 38556 38459 38349 38257 38242 38292 38425 38586 38710 38815 38923 38960 39057 39174 39296 39351 39373 39398 39426 39423 39467 39530 39613 39677 39692 39698 39680 39584 39514 39453 39434 39404 39395 39430 39480 39519 39515 39541 39577 39565 39442 39362 39312 39259 39227 39205 39172 39161 39165 39184 39206 39228 39245 39251 39203 39116 39031 38981 38932 38870 38809 38778 38770 38771 38794 38810 38843 38796 38695 38626 38582 38606 38691 38742 38719 38718 38729 38776 38816 38864 38896 38843 38773 38710 38647 38632 38622 38599 38589 38573 38588 38580 38594 38598 38538 38432 38343 38273 38236 38261 38293 38316 38289 38300 38284 38288 38298 38282 38242 38130 38040 37977 37928 37903 37868 37855 37853 37864 37880 37901 37953 37996 37958 37866 37815 37771 37778 37767 37779 37773 37757 37741 37744 37762 37780 37789 37743 37645 37587 37574 37564 37533 37503 37476 37465 37472 37478 37495 37551 37600 37597 37569 37544 37532 37537 37542 37508 37514 37512 37520 37554 37587 37623 37651 37630 37536 37458 37414 37398 37368 37307 37313 37359 37399 37464 37544 37618 37669 37647 37584 37500 37455 37453 37455 37462 37466 37441 37436 37433 37438 37445 37488 37437 37365 37284 37265 37274 37279 37257 37236 37258 37305 37340 37372 37393 37395 37330 37248 37183 37142 37114 37124 37169 37162 37167 37142 37139 37163 37188 37195 37085 36952 36904 36865 36828 36782 36746 36766 36772 36839 36880 36932 37013 37009 36952 36893 36853 36824 36829 36805 36815 36821 36817 36803 36790 36801 36837 36808 36708 36609 36549 36545 36536 36494 36437 36405 36440 36479 36529 36616 36683 36713 36711 36717 36713 36694 36685 36708 36715 36701 36703 36698 36688 36692 36682 36636 36578 36514 36486 36461 36439 36408 36350 36316 36320 36335 36400 36463 36477 36475 36464 36466 36466 36526 36560 36592 36581 36548 36554 36574 36595 36562 36486 36404 36362 36312 36282 36269 36320 36302 36270 36232 36195 36204 36243 36294 36293 36260 36286 36295 36311 36357 36376 36432 36489 36487 36510 36518 36496 36460 36417 36364 36348 36327 36308 36299 36306 36291 36258 36185 36169 36157 36211 36270 36319 36389 36465 36522 36606 36699 36792 36886 36981 37039 37076 37129 37144 37164 37111 37043 36992 36990 36974 36971 36958 36943 36947 36922 36884 36885 36908 36923 36895 36899 36895 36928 37042 37154 37280 37420 37636 37849 38062 38283 38422 38536 38597 38639 38685 38751 38815 38883 38890 38930 38997 39026 39066 39140 39185 39243 39267 39289 39345 39393 39472 39516 39534 39531 39511 39487 39483 39504 39533 39518 39475 39435 39402 39399 39403 39435 39432 39444 39460 39444 39470 39511 39582 39578 39579 39651 39758 39884 40023 40239 40445 40617 40767 40832 40846 40936 41019 41103 41067 41055 41014 40982 41038 41115 41202 41297 41389 41514 41640 41875 42124 42330 42493 42608 42748 42858 42905 42912 42859 42878 42898 42911 42955 42979 43005 43048 43077 43131 43166 43231 43254 43254 43270 43225 43215 43295 43348 43462 43559 43654 43729 43815 43878 43925 43956 43981 43962 43910 43826 43772 43730 43679 43578 43328 43049 42752 42444 42158 41961 41797 41661 41533 41368 41191 41030 40915 40848 40696 40410 40097 39785 39541 39364 39211 39078 38979 38887 38777 38638 38546 38448 38303 38051 37765 37516 37364 37233 37157 37079 36976 36901 36822 36754 36732 36686 36547 36260 36035 35918 35849 35812 35803 35782 35780 35782 35770 35774 35797 35855 35810 35658 35516 35434 35406 35400 35433 35490 35494 35502 35492 35512 35566 35559 35536 35433 35303 35229 35244 35254 35313 35372 35412 35434 35433 35461 35546 35631 35637 35549 35424 35316 35270 35324 35374 35416 35412 35408 35419 35464 35487 35516 35528 35457 35352 35307 35354 35436 35539 35628 35663 35654 35663 35724 35782 35822 35860 35853 35806 35763 35757 35789 35828 35827 35832 35847 35859 35857 35843 35877 35905 35882 35840 35817 35837 35864 35905 35968 35985 36016 36071 36120 36170 36187 36168 36123 36058 36033 36058 36091 36103 36098 36132 36146 36146 36138 36122 36149 36182 36152 36135 36172 36276 36331 36396 36404 36409 36461 36493 36512 36539 36571 36580 36547 36514 36487 36475 36487 36479 36475 36485 36493 36460 36453 36446 36480 36484 36470 36446 36465 36488 36536 36583 36595 36600 36633 36670 36680 36674 36670 36654 36596 36558 36527 36513 36514 36513 36502 36503 36494 36485 36469 36480 36491 36487 36486 36457 36469 36512 36538 36569 36586 36594 36627 36679 36684 36681 36680 36674 36644 36586 36539 36512 36517 36537 36550 36575 36569 36538 36502 36482 36500 36489 36478 36565 36813 37177 37603 37882 38215 38684 38819 38741 38793 38874 38988 39076 39192 39258 39379 39479 39573 39665 39727 39837 39866 39985 40030 40085 40219 40226 40218 40246 40254 40283 40333 40417 40461 40493 40552 40578 40638 40731 40835 40873 40876 40888 40895 40877 40913 40926 40971 40994 41029 41098 41141 41245 41311 41350 41366 41392 41430 41467 41547 41602 41649 41698 41733 41745 41718 41689 41623 41537 41473 41400 41372 41349 41341 41408 41481 41579 41770 41934 42062 42134 42167 42226 42273 42337 42446 42520 42566 42553 42554 42570 42555 42551 42555 42595 42637 42651 42720 42765 42803 42858 42867 42882 42909 42958 42977 43010 43045 43082 43129 43151 43159 43181 43143 43150 43138 43141 43149 43143 43177 43186 43197 43179 43198 43234 43291 43309 43333 43384 43417 43434 43468 43501 43522 43594 43623 43673 43716 43741 43797 43819 43840 43893 43867 43842 43805 43871 43853 43822 43821 43612 43558 43486 43422 43428 43402 43374 43351 43314 43303 43267 43211 43113 42973 42839 42743 42632 42585 42580 42542 42529 42492 42465 42442 42425 42331 42170 41998 41880 41793 41788 41794 41810 41853 41910 41972 42040 42108 42157 42129 42035 41868 41575 41206 40954 40797 40684 40630 40708 40756 40803 40808 40738 40688 40679 40736 40741 40772 40776 40800 40815 40893 40978 41073 41139 41168 41194 41096 40984 40918 40836 40651 40518 40454 40365 40285 40177 40154 40106 40018 39896 39699 39550 39456 39378 39298 39234 39167 39095 39040 39000 38985 38967 38955 38920 38850 38796 38789 38826 38880 38922 38961 39004 39045 39087 39143 39175 39162 39126 39091 39089 39098 39117 39147 39158 39144 39144 39170 39188 39201 39154 39092 39056 39037 39048 39048 39084 39102 39122 39177 39193 39215 39232 39225 39183 39123 39102 39091 39107 39132 39121 39129 39131 39139 39162 39187 39177 39144 39094 39069 39054 39065 39085 39094 39133 39153 39178 39206 39245 39302 39308 39256 39215 39216 39266 39286 39329 39336 39378 39382 39421 39416 39444 39446 39413 39385 39319 39298 39296 39325 39323 39329 39340 39339 39355 39377 39403 39365 39327 39329 39293 39282 39305 39304 39316 39322 39321 39336 39328 39364 39353 39317 39267 39229 39212 39185 39177 39188 39179 39195 39209 39207 39238 39250 39257 39197 39164 39126 39103 39086 39103 39086 39093 39111 39108 39113 39116 39118 39081 39011 38964 38889 38842 38837 38811 38782 38766 38768 38781 38785 38780 38789 38759 38701 38656 38620 38581 38555 38557 38552 38550 38524 38518 38524 38520 38517 38458 38380 38332 38299 38259 38242 38242 38217 38220 38194 38218 38195 38183 38164 38107 38061 38011 37974 37932 37910 37884 37870 37852 37839 37841 37858 37907 37917 37889 37895 37968 38088 38248 38387 38508 38629 38739 38891 39030 39155 39265 39310 39366 39449 39505 39544 39598 39637 39654 39644 39664 39758 39819 39944 40037 40103 40256 40390 40553 40834 41062 41167 41161 41163 41113 41100 41129 41127 41162 41143 41200 41270 41325 41378 41406 41427 41488 41563 41640 41778 41847 41914 41923 41996 42059 42121 42222 42359 42450 42489 42490 42412 42447 42479 42624 42696 42757 42814 42839 42893 42909 42925 42964 42982 43015 43079 43104 43178 43274 43388 43518 43634 43723 43789 43552 43347 43267 43277 43245 43188 43128 43148 43152 43166 43127 43040 43001 42964 42938 42865 42810 42779 42770 42770 42736 42670 42582 42494 42361 42191 42022 41918 41899 41762 41652 41409 41207 41061 40931 40813 40690 40571 40451 40261 40063 39961 39942 39995 40028 40081 40121 40050 40136 40161 40177 40163 40123 40002 39884 39799 39716 39679 39602 39455 39442 39411 39386 39307 39203 39102 38933 38691 38483 38416 38426 38477 38848 39169 39386 39538 39609 39725 39816 39847 39784 39592 39371 39214 39178 39235 39257 39232 39341 39512 39442 39453 39422 39681 40198 40702 41016 41115 41132 41099 41168 41138 41104 41067 41000 41093 41104 41218 41210 41113 41145 41140 41186 41226 41258 41245 41262 41246 41236 41224 41209 41180 41066 40981 40907 40851 40820 40798 40820 40822 40843 40845 40871 40902 40919 40910 40854 40827 40819 40805 40828 40834 40826 40820 40830 40840 40857 40890 40901 40900 40856 40864 40883 40935 40973 40988 41064 41091 41084 41077 41077 41089 41055 41013 40995 40957 40895 40827 40894 40951 40969 40957 40943 40921 40888 40850 40778 40677 40625 40568 40523 40527 40515 40502 40501 40528 40571 40617 40662 40650 40570 40492 40462 40538 40603 40694 40739 40732 40723 40781 40842 40893 40932 40897 40864 40851 40851 40866 40864 40857 40860 40856 40890 40925 40931 40956 40983 40946 40909 40870 40861 40859 40876 40889 40902 40896 40910 40923 40925 40919 40869 40776 40700 40645 40615 40596 40587 40596 40602 40587 40599 40598 40615 40612 40535 40490 40450 40434 40442 40418 40415 40422 40417 40438 40455 40569 40679 40773 40874 41032 41206 41380 41545 41591 41617 41682 41787 41991 42043 42070 41726 41583 41542 41447 41500 41568 41517 41495 41383 41254 41186 41162 41155 41133 41113 41059 40978 40904 40857 40791 40780 40829 40956 41033 41010 40904 40943 41020 41101 41106 41136 41149 41196 41205 41215 41203 41146 41052 40937 40812 40704 40553 40371 40190 40058 39961 39914 39853 39756 39604 39498 39400 39322 39254 39180 39059 38865 38701 38576 38501 38481 38469 38441 38442 38437 38450 38440 38449 38451 38381 38218 38084 37991 37920 37879 37861 37827 37795 37767 37764 37738 37744 37727 37674 37538 37427 37354 37306 37289 37273 37249 37247 37206 37198 37214 37218 37266 37239 37130 37078 37062 37066 37080 37097 37102 37138 37215 37310 37371 37453 37578 37600 37687 37762 37901 38083 38267 38431 38528 38598 38604 38596 38630 38652 38706 38769 38776 38844 38902 38973 39050 39154 39217 39275 39387 39466 39550 39639 39693 39714 39730 39773 39791 39865 39914 39963 40027 40111 40211 40274 40364 40419 40376 40235 40177 40207 40382 40588 40756 40897 41047 41217 41378 41561 41769 41909 42046 42204 42258 42308 42341 42393 42488 42581 42707 42850 42895 42936 42919 42843 42714 42596 42610 42653 42715 42793 42901 43407 43344 43050 42846 42839 42787 42711 42618 42487 42510 42512 42532 42431 42290 42218 42249 42530 42742 42734 42815 42894 42892 42919 42959 43019 43083 43128 43180 43203 43215 43202 43213 43224 43237 43262 43239 43244 43243 43321 43429 43488 43219 42944 42740 42609 42465 42289 42145 42012 41773 41531 41363 41226 41108 40964 40793 40611 40430 40301 40164 40048 39941 39805 39562 39309 39082 38907 38767 38632 38515 38378 38276 38148 38091 38015 37946 37838 37622 37392 37242 37126 37046 36995 36904 36843 36784 36751 36719 36717 36690 36585 36380 36210 36123 36087 36074 36083 36097 36100 36124 36172 36179 36214 36270 36227 36143 36066 36063 36069 36084 36119 36143 36187 36225 36278 36363 36429 36500 36528 36496 36452 36447 36489 36517 36563 36571 36594 36636 36676 36706 36771 36824 36855 36843 36823 36828 36860 36928 36980 37050 37085 37146 37179 37239 37313 37408 37481 37513 37488 37481 37491 37519 37583 37618 37633 37673 37694 37728 37761 37785 37818 37832 37819 37797 37792 37811 37815 37847 37840 37869 37914 37971 38036 38103 38158 38205 38225 38207 38203 38206 38199 38183 38199 38202 38177 38171 38173 38183 38169 38193 38196 38178 38121 38088 38056 38048 38040 38042 38036 38047 38060 38108 38132 38158 38164 38137 38071 37998 37954 37922 37940 37918 37905 37888 37883 37867 37856 37832 37816 37810 37731 37627 37555 37530 37515 37509 37513 37500 37502 37510 37521 37506 37538 37575 37535 37434 37363 37320 37303 37275 37276 37294 37286 37286 37254 37260 37264 37255 37220 37133 37063 36986 36931 36894 36868 36845 36838 36827 36827 36839 36872 36916 36964 36957 36909 36858 36835 36849 36876 36925 36943 36974 37011 37047 37093 37154 37209 37249 37220 37208 37153 37158 37156 37177 37175 37177 37158 37168 37202 37232 37233 37286 37305 37269 37209 37189 37177 37204 37242 37262 37303 37328 37351 37375 37409 37456 37490 37473 37447 37423 37418 37443 37456 37482 37518 37510 37497 37531 37537 37566 37591 37598 37580 37547 37538 37545 37542 37559 37568 37582 37572 37597 37653 37685 37743 37792 37827 37834 37807 37788 37759 37756 37781 37784 37789 37789 37808 37839 37871 37893 37937 37956 37926 37913 37887 37911 37911 37945 37990 38024 38059 38134 38331 38687 39039 39390 39775 40016 40228 40336 40315 40226 40044 39901 39817 39799 39820 39881 39877 39843 39784 39700 39654 39624 39570 39541 39490 39449 39417 39367 39340 39318 39261 39228 39198 39184 39067 38956 38864 38778 38730 38657 38618 38573 38528 38474 38427 38413 38370 38351 38284 38161 38052 37950 37894 37846 37800 37760 37694 37655 37620 37608 37578 37573 37536 37435 37329 37237 37186 37143 37104 37079 37055 37020 37003 36994 37008 37011 37011 36967 36884 36813 36772 36756 36763 36757 36772 36778 36769 36790 36805 36825 36859 36875 36825 36769 36735 36714 36742 36750 36767 36776 36811 36812 36843 36879 36906 36952 36957 36924 36896 36889 36905 36925 36945 36967 36986 37015 37042 37078 37110 37141 37185 37193 37152 37145 37150 37177 37205 37226 37251 37266 37298 37323 37354 37364 37416 37443 37421 37404 37393 37407 37435 37464 37473 37489 37501 37520 37554 37580 37629 37652 37645 37621 37614 37621 37644 37673 37699 37754 37805 37892 37988 38130 38336 38512 38679 38732 38788 38819 38864 38961 39010 39093 39175 39256 39317 39393 39471 39539 39595 39641 39709 39796 39873 39908 39940 39950 39948 39958 39964 40004 40009 40038 40041 40007 39940 39883 39864 39833 39836 39932 40129 40308 40574 40860 41121 41286 41424 41337 41072 41073 41154 41186 41236 41282 41183 41101 40975 40821 40683 40544 40428 40322 40010 39683 39413 39170 38966 38782 38613 38466 38333 38198 38119 38118 38230 38234 38132 37815 37482 37225 36982 36794 36654 36774 36931 36881 36884 36766 36735 36449 36192 35955 35732 35551 35419 35313 35222 35129 35019 34956 34901 34875 34842 34855 34820 34771 34638 34557 34519 34504 34492 34482 34451 34448 34433 34437 34403 34392 34392 34335 34267 34175 34146 34139 34148 34140 34138 34145 34142 34146 34134 34130 34130 34090 34033 33970 33913 33870 33859 33844 33840 33851 33888 33965 34014 34060 34086 34097 34104 34097 34115 34130 34163 34193 34234 34283 34336 34356 34374 34373 34349 34289 34229 34164 34100 34043 34010 33947 33899 33866 33829 33815 33842 33890 33909 33932 33904 33875 33840 33829 33814 33796 33795 33793 33802 33813 33827 33830 33834 33812 33819 33801 33800 33815 33844 33877 33944 33979 34022 34010 33992 33992 33984 33990 33983 33980 33980 33996 34020 34008 34011 33982 33955 33944 33945 33943 33949 33983 33960 33949 33859 33803 33770 33744 33751 33784 33810 33875 33899 33939 33962 33969 33969 33930 33897 33872 33847 33850 33827 33832 33838 33843 33835 33857 33863 33861 33890 33896 33885 33865 33870 33868 33869 33836 33822 33813 33797 33779 33762 33747 33726 33681 33640 33630 33599 33589 33555 33546 33532 33510 33516 33714 35035 36424 36766 37353 38055 38559 38866 39106 39356 39431 39687 39733 39777 39749 39647 39560 39450 39412 39311 39200 39074 38955 38920 38957 39085 39261 39426 39542 39539 39485 39492 39464 39557 39726 40115 40474 40714 40863 40990 41087 41212 41238 41239 41280 41382 41478 41547 41571 41563 41566 41551 41553 41566 41562 41503 41501 41473 41477 41477 41515 41502 41500 41494 41479 41459 41454 41388 41294 41234 41170 41170 41194 41180 41170 41119 41078 41028 40985 40946 40823 40722 40623 40526 40460 40393 40345 40270 40208 40162 40118 40089 40032 39923 39822 39760 39731 39764 39779 39787 39743 39687 39783 39818 39772 39666 39564 39563 39546 39581 39647 39681 39678 39673 39681 39703 39767 39819 39893 39877 39801 39738 39602 39467 39356 39292 39216 39180 39161 39138 39135 39118 39133 39151 39156 39156 39132 39094 39069 39042 39052 39051 39061 39072 39078 39112 39139 39160 39192 39242 39246 39222 39227 39232 39233 39263 39285 39320 39344 39362 39397 39419 39468 39477 39518 39506 39488 39461 39451 39440 39448 39448 39460 39476 39479 39487 39516 39521 39573 39557 39550 39528 39492 39489 39504 39504 39505 39538 39545 39563 39575 39598 39622 39627 39616 39610 39682 39857 40087 40322 40536 40687 40753 40710 40705 40798 40921 41068 41168 41223 41310 41410 41475 41585 41702 41861 42005 42156 42372 42560 42762 42922 43084 43242 43379 43401 43364 43320 43239 43031 42794 42636 42540 42497 42442 42398 42283 42156 42038 41931 41844 41798 41715 41643 41579 41515 41493 41531 41527 41504 41425 41290 41184 41096 41023 40995 40966 40944 40889 40845 40819 40793 40769 40704 40612 40476 40390 40289 40216 40155 40093 40057 40007 39961 39941 39935 39960 39942 39846 39723 39650 39598 39548 39495 39448 39399 39364 39337 39316 39305 39302 39222 39048 38882 38790 38713 38645 38606 38544 38483 38442 38431 38411 38413 38427 38364 38207 38068 37948 37918 37878 37858 37860 37854 37872 37904 37955 38001 38053 38041 37950 37875 37839 37848 37880 37906 37945 37973 38014 38055 38130 38203 38274 38361 38351 38323 38298 38314 38347 38467 38587 38646 38670 38762 38817 38915 39025 39177 39274 39316 39335 39347 39362 39384 39456 39501 39579 39728 39818 39885 39940 40061 40148 40298 40393 40417 40250 39991 39925 39884 39932 39969 39992 40110 40260 40427 40535 40355 40200 40139 39943 39684 39505 39328 39349 39574 39717 39851 39912 39994 40126 40175 40304 40489 40562 40619 40690 40705 40729 40821 40921 41092 41183 41253 41335 41384 41343 41329 41442 41484 41560 41570 41630 41664 41693 41700 41710 41702 41708 41702 41665 41629 41610 41664 41766 41935 42010 41761 41530 41702 41890 42078 42417 42829 43155 43346 43088 42737 42603 42735 42735 42356 42332 42684 42936 42886 42784 42759 42741 42725 42675 42641 42762 42913 43015 43058 43080 43157 43206 43268 43286 43020 42805 42686 42739 42750 42762 42751 42681 42370 41953 41722 41609 41521 41398 41338 41224 41081 40843 40633 40448 40401 40475 40511 40500 40561 40567 40572 40627 40669 40694 40793 40853 40955 41057 41140 41147 41098 41116 41110 41111 41109 41056 40952 40809 40799 40783 40757 40697 40397 40083 39880 39729 39636 39579 39571 39530 39310 39044 38909 38806 38717 38701 38662 38697 38630 38655 38700 38815 38974 39113 39069 39275 39339 39576 39834 40036 40207 40355 40420 40479 40505 40501 40496 40541 40442 40310 40253 40192 40174 40119 40082 40037 40042 39984 39967 39977 39954 39924 39848 39786 39726 39717 39770 39834 39814 39775 39765 39762 39823 39835 39880 39923 39951 40002 40079 40172 40215 40237 40077 39979 40046 40167 40252 40294 40280 40327 40413 40536 40589 40562 40586 40522 40521 40650 40827 40971 41062 41055 40876 40633 40441 40277 40139 40062 40030 40136 40309 40373 40504 40583 40643 40684 40681 40689 40711 40725 40745 40762 40775 40778 40794 40801 40853 40887 40976 41044 41108 41145 41262 41438 41603 41712 41788 41874 41920 41956 41967 41978 42019 41959 41965 41871 41933 42198 42413 42534 42706 42862 43005 43146 43220 43261 43253 43288 43290 43209 43319 43345 43468 43547 43636 43677 43762 43890 43904 43965 44081 44166 44163 44180 44159 44163 44166 44187 44132 44149 44150 44115 44059 44011 43913 43822 43737 43646 43506 43403 43254 43067 42922 42856 42805 42799 42771 42670 42528 42419 42320 42197 42089 41939 41861 41716 41588 41558 41543 41552 41471 41291 41130 40999 40841 40650 40496 40357 40298 40191 40079 39978 39919 39788 39620 39422 39256 39208 39205 39181 39165 39086 39022 38997 39024 39047 39118 39094 38998 38906 38863 38827 38789 38714 38613 38552 38483 38315 38499 38708 38780 38802 38769 38753 38703 38672 38670 38642 38628 38613 38611 38624 38687 38679 38504 38342 38253 38251 38294 38357 38384 38431 38474 38500 38561 38614 38611 38565 38510 38438 38416 38422 38467 38488 38517 38517 38496 38528 38581 38614 38606 38624 38675 38761 38890 38951 39060 39147 39057 39070 39127 39215 39294 39282 39247 39204 39152 39092 39097 39146 39199 39219 39278 39316 39374 39399 39424 39406 39321 39267 39266 39364 39551 39634 39687 39756 39869 39961 39992 40027 40030 40032 39989 39897 39926 39977 40039 40079 40144 40177 40179 40275 40415 40612 40758 40844 40946 41053 41170 41264 41353 41381 41351 41282 41171 41128 41072 41097 41222 41253 41218 41188 41205 41044 40857 40980 41084 41090 41024 40979 40935 40864 40714 40693 40647 40584 40472 40408 40340 40278 40214 40151 40109 40056 40010 39929 39821 39710 39619 39577 39542 39529 39546 39687 39710 39733 39845 39942 39954 39843 39741 39738 39568 39542 39552 39575 39828 39905 39949 39847 39766 39779 39942 40023 40154 40271 40380 40483 40548 40510 40395 40271 40184 40086 40034 40004 39974 39923 39883 39847 39823 39793 39752 39717 39695 39654 39627 39598 39606 39566 39485 39405 39338 39276 39261 39239 39204 39175 39152 39127 39132 39124 39118 39074 39013 38976 38909 38907 38845 38807 38793 38786 38805 38821 38834 38826 38858 38810 38746 38733 38720 38710 38719 38704 38719 38699 38698 38721 38719 38737 38714 38689 38651 38640 38633 38625 38615 38609 38603 38595 38580 38569 38592 38579 38546 38507 38479 38463 38460 38456 38456 38453 38449 38453 38461 38473 38461 38424 38402 38357 38319 38306 38295 38283 38283 38248 38254 38249 38261 38256 38245 38205 38178 38140 38142 38131 38130 38127 38138 38118 38114 38110 38108 38076 38044 37981 37950 37934 37945 37913 37903 37892 37904 37903 37895 37923 37908 37877 37865 37863 37860 37866 37876 37881 37890 37903 37908 37941 37961 37973 37960 37916 37906 37920 37901 37918 37925 37937 37935 37953 37968 37983 37995 37995 37970 37955 37944 37952 37945 37958 37959 37969 37978 37990 38018 38051 38015 38009 37997 37987 37987 37970 37997 38009 38016 38017 38038 38063 38070 38100 38078 38054 38051 38045 38049 38057 38064 38062 38070 38087 38096 38117 38135 38133 38113 38107 38094 38075 38097 38093 38093 38096 38093 38097 38130 38129 38159 38144 38144 38097 38109 38112 38125 38113 38133 38118 38134 38135 38149 38143 38156 38152 38129 38123 38109 38109 38113 38101 38120 38118 38117 38120 38125 38146 38160 38164 38158 38167 38159 38168 38176 38193 38183 38176 38166 38157 38164 38163 38150 38119 38107 38098 38093 38092 38086 38074 38065 38072 38062 38071 38059 38062 38078 38043 38017 37996 37981 37954 37956 37952 37932 37926 37919 37909 37910 37901 37892 37855 37827 37813 37800 37786 37768 37774 37766 37765 37776 37788 37827 37902 37891 37871 37826 37802 37772 37770 37766 37755 37774 37775 37788 37816 37838 37863 37841 37827 37826 37802 37805 37805 37790 37804 37834 37846 37826 37850 37865 38056 38169 38267 38350 38460 38605 38677 38672 38716 38847 38964 39182 39649 40076 40383 40706 40960 41161 41326 41528 41632 41757 41870 41927 41969 42024 42104 42216 42293 42333 42383 42433 42482 42529 42588 42587 42592 42610 42587 42517 42431 42380 42309 42265 42169 42085 42094 42216 42251 42338 42438 42478 42569 42579 42569 42598 42626 42615 42598 42537 42518 42521 42531 42538 42593 42660 42685 42702 42742 42826 42925 43066 43284 43464 43581 43672 43733 43769 43784 43748 43759 43707 43626 43543 43437 43402 43290 43250 43365 43527 43664 43751 43796 43752 43754 43765 43785 43784 43774 43763 43749 43752 43753 43710 43698 43580 43505 43388 43275 43171 43065 42964 42855 42731 42588 42468 42367 42320 42240 42217 42162 42105 41929 41740 41524 41326 41190 41154 41141 41104 40997 40870 40714 40527 40416 40261 40050 39804 39633 39472 39346 39232 39083 38961 38843 38759 38680 38617 38556 38487 38350 38193 38040 37920 37845 37779 37737 37663 37576 37526 37474 37482 37487 37543 37579 37518 37495 37483 37479 37487 37515 37522 37531 37576 37678 37790 37813 37879 37902 37890 37883 37874 37826 37823 37806 37788 37680 37551 37470 37484 37547 37643 37757 37725 37719 37754 37781 37845 37888 37874 37876 37905 37953 37985 37955 37946 37977 37991 37980 38005 38026 38070 38125 38138 38221 38280 38342 38447 38471 38518 38523 38540 38542 38505 38498 38486 38565 38665 38764 38840 38989 39085 39103 39109 39113 39123 39100 39101 39091 39108 39113 39157 39171 39237 39291 39412 39557 39682 39809 39931 40003 40045 40040 40067 40135 40244 40369 40455 40620 40722 40804 40881 40950 40971 41015 41011 40966 40957 40896 40759 40656 40581 40505 40470 40414 40398 40369 40331 40338 40305 40271 40331 40477 40560 40650 40730 40830 40973 41086 41222 41370 41489 41626 41733 41846 41812 41759 41772 41719 41655 41521 41441 41530 41679 41762 41819 41843 41789 41655 41526 41399 41283 41234 41165 41130 41089 41051 41022 40997 40981 40964 40954 40949 40954 40872 40804 40757 40704 40687 40659 40633 40593 40583 40551 40555 40545 40556 40530 40529 40468 40420 40345 40317 40269 40251 40222 40204 40184 40147 40150 40150 40146 40129 40124 40068 40029 39961 39948 39917 39898 39898 39863 39874 39850 39843 39858 39857 39857 39836 39778 39730 39687 39668 39650 39640 39629 39618 39614 39619 39622 39648 39645 39676 39639 39605 39589 39553 39538 39538 39523 39524 39535 39522 39532 39538 39576 39609 39621 39606 39572 39549 39516 39524 39507 39527 39524 39539 39528 39521 39555 39568 39569 39581 39570 39545 39512 39477 39499 39517 39515 39529 39511 39513 39515 39510 39519 39550 39572 39580 39552 39530 39495 39509 39504 39517 39514 39534 39546 39563 39565 39589 39594 39628 39630 39640 39643 39609 39589 39582 39578 39596 39595 39611 39590 39603 39615 39620 39632 39647 39653 39622 39602 39574 39571 39558 39572 39564 39556 39572 39573 39568 39600 39636 39643 39678 39663 39639 39619 39613 39608 39604 39603 39600 39605 39612 39624 39615 39622 39646 39659 39649 39622 39613 39584 39567 39570 39576 39597 39586 39596 39593 39592 39629 39639 39659 39682 39659 39621 39580 39567 39561 39550 39548 39557 39554 39549 39561 39571 39600 39610 39640 39658 39611 39581 39549 39508 39487 39489 39483 39475 39463 39467 39601 39948 40341 40748 41078 41392 41501 41653 41751 41844 41908 41930 42010 42000 41889 41846 41845 41741 41673 41617 41591 41554 41521 41518 41543 41614 41690 41746 41802 41876 41906 41837 41655 41449 41302 41232 41206 41153 41057 40930 40837 40775 40731 40663 40594 40523 40460 40580 40697 40701 40622 40508 40350 40080 39875 39763 39693 39627 39568 39488 39426 39363 39298 39250 39224 39169 39135 39047 38868 38683 38560 38456 38381 38325 38243 38168 38097 38039 38004 37976 37944 37939 37825 37661 37481 37387 37310 37248 37190 37143 37083 37026 37012 37006 36980 36989 36987 36890 36734 36596 36509 36432 36391 36361 36330 36322 36291 36305 36317 36352 36375 36394 36362 36282 36181 36124 36120 36111 36113 36144 36152 36169 36194 36240 36261 36268 36300 36358 36378 36334 36271 36268 36266 36296 36330 36356 36362 36400 36435 36470 36519 36566 36611 36640 36642 36603 36563 36592 36597 36629 36663 36658 36699 36716 36756 36776 36824 36859 36902 36941 36923 36887 36875 36862 36879 36903 36906 36931 36911 36883 36913 36955 37028 37099 37181 37280 37377 37447 37470 37493 37534 37587 37670 37736 37812 37893 37966 38074 38182 38233 38277 38314 38370 38420 38448 38436 38426 38450 38480 38502 38530 38536 38574 38598 38624 38700 38724 38779 38814 38866 38902 38936 38943 38944 38936 38974 38989 39025 39059 39080 39106 39147 39220 39292 39350 39440 39496 39521 39553 39552 39543 39540 39555 39585 39611 39645 39658 39674 39714 39730 39759 39800 39839 39882 39924 39904 39881 39908 40014 40288 40741 41054 41271 41248 41190 41022 40886 40810 40737 40699 40724 40746 40706 40729 40793 40851 40910 41028 41150 41203 41309 41424 41571 41653 41720 41773 41791 41824 41829 41814 41818 41823 41842 41877 41900 41924 41938 41962 41983 42019 42053 42077 42113 42154 42147 42125 42097 42073 42069 42083 42050 42045 42052 42050 42068 42057 42067 42046 42072 42058 42018 41990 41990 42018 42040 42056 42100 42118 42135 42162 42178 42180 42213 42233 42221 42213 42191 42192 42162 42180 42195 42180 42182 42202 42205 42231 42276 42301 42315 42300 42281 42244 42211 42195 42185 42213 42201 42173 42170 42173 42216 42280 42390 42428 42466 42502 42546 42596 42620 42620 42631 42637 42640 42632 42646 42612 42557 42541 42518 42510 42503 42504 42524 42523 42521 42568 42612 42611 42693 42796 42916 43005 43043 43080 43121 43144 43166 43223 43268 43308 43360 43398 43441 43429 43460 43508 43508 43547 43577 43592 43659 43813 44048 44146 44275 44359 44364 44163 43913 43648 43500 43402 43316 43267 43240 43192 43173 43126 43058 42987 42998 43003 43019 43060 43119 43202 43299 43419 43508 43543 43436 43302 43146 43006 42879 42812 42746 42595 42486 42415 42361 42218 42032 41857 41728 41622 41512 41387 41284 41150 40982 40802 40553 40416 40361 40391 40608 40769 40677 40756 40843 40850 40788 40928 40769 40728 40898 40835 40886 40797 40724 40743 40757 40884 41113 41373 41583 41745 41627 41489 41445 41378 41322 41268 41241 41251 41325 41422 41499 41526 41602 41659 41634 41693 41768 41832 41843 41817 41827 41789 41762 41758 41690 41715 41764 41819 41801 41813 41841 41882 42039 42234 42341 42454 42570 42630 42525 42350 42230 42162 42115 42056 41977 41948 41936 41919 41917 41893 41929 41947 41950 41956 41926 41890 41829 41808 41796 41747 41732 41706 41684 41683 41697 41730 41808 41855 41829 41798 41782 41834 42093 42333 42665 42984 43413 43713 43829 43670 43657 43411 43010 42584 42403 42313 42132 42153 42088 42147 42041 42128 42126 42037 41929 41839 41651 41526 41417 41366 41354 41298 41296 41360 41401 41373 41289 41061 40851 40727 40923 40989 41095 41141 41167 41290 41488 41763 42082 42162 42213 42231 42292 42294 42112 41907 41655 41232 40918 40642 40426 40207 39947 39929 40163 40132 40188 40412 40638 40869 40669 40972 40855 40874 40793 40735 40666 40546 40464 40325 40148 39886 39792 39604 39483 39625 39551 39656 39583 39628 39830 39769 39827 39890 39822 39786 39713 39665 39597 39535 39500 39448 39416 39397 39407 39583 39714 39681 39789 39977 40105 40207 40319 40293 40089 39922 39788 39686 39605 39627 39552 39462 39352 39267 39233 39197 39301 39342 39341 39404 39480 39588 39724 39840 39896 39884 39856 39879 39943 40110 40228 40380 40460 40485 40500 40543 40734 40889 41099 41161 41052 40985 40917 40865 40790 40750 40643 40580 40558 40548 40504 40474 40437 40331 40207 40110 39992 39909 39834 39743 39645 39606 39548 39525 39490 39448 39452 39373 39241 39100 39018 38943 38865 38812 38757 38722 38683 38639 38637 38597 38611 38577 38482 38373 38265 38226 38179 38152 38126 38099 38082 38061 38086 38094 38104 38103 38100 38044 37937 37931 37886 37891 37904 37885 37931 37933 37980 38017 38027 38077 38077 38055 37987 37942 37933 37915 37895 37904 37878 37906 37899 37918 37931 37940 37929 37911 37867 37820 37785 37760 37766 37787 37789 37809 37834 37835 37875 37897 37927 37898 37850 37823 37803 37804 37778 37803 37824 37831 37865 37886 37926 37944 37993 38024 38006 37982 37928 37929 37928 37942 37946 37981 38016 38076 38091 38128 38148 38215 38223 38196 38152 38196 38209 38218 38254 38255 38269 38288 38359 38374 38414 38438 38478 38466 38448 38439 38423 38346 38227 38325 38442 38546 38659 38757 38797 38889 39029 39086 39171 39192 39215 39220 39244 39290 39313 39326 39380 39359 39440 39473 39521 39509 39480 39407 39436 39426 39446 39453 39445 39438 39404 39425 39422 39417 39435 39433 39372 39307 39270 39252 39256 39264 39264 39269 39288 39303 39311 39345 39359 39378 39369 39325 39299 39286 39283 39271 39264 39260 39259 39275 39282 39292 39320 39317 39326 39322 39270 39238 39227 39207 39183 39187 39182 39178 39212 39200 39215 39240 39244 39198 39160 39113 39085 39055 39035 39023 39022 39004 39006 39008 39040 39048 39075 39056 39038 39003 39021 39203 39444 39624 39631 39698 39726 39800 39730 39804 39941 40099 40383 40635 41039 41499 41559 41605 41590 41672 41624 41577 41515 41487 41613 41805 41782 41813 41920 41976 41991 41602 41459 41291 41175 41120 41160 41113 41047 40966 40852 40719 40571 40374 40218 40006 39839 39894 40093 40195 40433 40624 40834 40987 41236 41202 41066 41118 41156 41329 41227 41254 41326 41359 41524 41733 41965 42016 42092 42334 42462 42510 42549 42550 42609 42725 42724 42716 42655 42602 42527 42482 42415 42331 42377 42495 42513 42408 42248 42210 42210 42211 42225 42335 42311 42333 42315 42114 41857 41491 41275 41145 41037 40974 40873 40856 40922 41009 41023 41051 41017 40949 40931 40906 40834 40710 40473 40254 40121 40060 40000 40102 40097 40165 40263 40260 40275 40312 40375 40381 40377 40200 39989 39804 39653 39557 39491 39453 39370 39332 39369 39497 39634 39773 39881 39856 39742 39649 39622 39622 39644 39666 39608 39633 39633 39573 39360 39096 38847 38641 38487 38347 38200 38074 37998 37900 37857 37797 37778 37708 37561 37356 37179 37040 36910 36804 36745 36678 36614 36558 36532 36531 36637 36718 36867 36921 36936 37008 37112 37233 37439 37677 37967 38300 38654 38873 39027 39144 39230 39292 39366 39336 39263 39225 39206 39318 39387 39447 39517 39513 39477 39440 39384 39371 39367 39338 39263 39164 39089 39048 39040 39043 39006 38985 39003 39048 39083 39113 39149 39186 39170 39128 39073 39039 39049 39012 38995 38995 38949 38983 38968 39008 39012 39069 39134 39354 39459 39541 39589 39660 39712 39766 39761 39800 39894 39968 40067 40059 39907 39790 39683 39548 39430 39329 39284 39223 39239 39325 39333 39291 39213 39186 39209 39229 39229 39258 39255 39316 39352 39359 39334 39280 39276 39264 39229 39231 39286 39291 39332 39383 39483 39603 39659 39661 39641 39555 39436 39349 39337 39317 39228 39207 39332 39300 39185 39176 39065 38976 38925 38965 39125 39165 39150 39167 39147 39152 39148 39203 39234 39329 39318 39368 39519 39541 39582 39655 39721 39788 39832 39884 39915 39991 40034 40016 40183 40283 40389 40466 40586 40631 40703 40737 40735 40688 40723 40753 40803 40840 40833 40788 40685 40539 40427 40287 40155 40031 39970 39917 39858 39822 39776 39742 39720 39701 39678 39579 39472 39365 39276 39219 39159 39107 39071 39015 38946 38898 38857 38815 38764 38623 38461 38321 38204 38080 37957 37857 37754 37664 37577 37499 37497 37495 37500 37500 37436 37360 37275 37219 37170 37133 37133 37125 37118 37138 37170 37235 37247 37263 37178 37072 36974 36896 36860 36835 36807 36754 36713 36697 36683 36667 36726 36796 36876 36928 36902 36881 36868 36847 36856 36890 36921 36958 36993 37004 37061 37082 37129 37184 37224 37228 37227 37245 37299 37330 37405 37486 37549 37564 37645 37717 37796 37854 37899 37884 37875 37872 37886 37900 37909 37953 37994 38068 38150 38203 38250 38302 38297 38305 38320 38316 38351 38345 38376 38393 38393 38440 38434 38463 38466 38497 38542 38544 38533 38549 38575 38587 38625 38658 38678 38693 38699 38743 38795 38795 38845 38833 38787 38772 38756 38742 38774 38815 38806 38789 38808 38765 38766 38825 38802 38775 38784 38750 38724 38704 38709 38740 38736 38774 38782 38808 38775 38777 38775 38802 38794 38734 38657 38567 38542 38513 38471 38428 38413 38421 38397 38387 38389 38394 38406 38351 38309 38256 38211 38205 38184 38186 38153 38141 38121 38126 38099 38082 38057 38019 37964 37931 37894 37843 37797 37801 37803 37775 37777 37778 37772 37789 37816 37826 37781 37735 37715 37701 37682 37678 37691 37648 37631 37634 37613 37600 37604 37594 37538 37498 37461 37441 37412 37399 37426 37448 37474 37503 37520 37577 37607 37641 37631 37595 37581 37604 37643 37660 37690 37707 37737 37770 37782 37809 37840 37843 37831 37808 37801 37786 37788 37789 37796 37835 37846 37873 37903 37932 37966 38024 38023 38042 38087 38121 38155 38191 38218 38227 38249 38262 38272 38307 38316 38324 38301 38297 38281 38260 38266 38274 38274 38288 38265 38274 38280 38275 38316 38339 38330 38315 38267 38262 38281 38278 38290 38327 38320 38333 38333 38326 38339 38365 38349 38305 38268 38250 38216 38188 38205 38188 38188 38188 38185 38183 38189 38155 38109 38068 38062 38141 38241 38330 38363 38429 38493 38544 38639 38740 38843 38918 38971 38980 38904 38809 38735 38682 38628 38618 38580 38551 38504 38478 38454 38444 38454 38434 38389 38315 38243 38220 38186 38173 38178 38176 38168 38172 38175 38180 38188 38201 38182 38114 38047 37990 37972 37953 37955 37933 37925 37919 37902 37924 37930 37933 37902 37833 37754 37695 37651 37628 37619 37598 37582 37563 37558 37569 37562 37553 37512 37448 37383 37351 37308 37300 37310 37324 37358 37367 37415 37501 37511 37583 37565 37563 37618 37989 38211 38756 39023 39276 39550 39719 39824 39907 39888 39824 39649 39467 39370 39315 39220 39150 39022 38917 38888 38841 38762 38719 38675 38706 38784 38709 38516 38306 38231 38192 38140 38203 38742 39465 40084 40789 41435 42204 42530 42717 42854 42732 43011 43163 42826 42526 42168 42107 42083 42056 41966 41837 41719 41678 41615 41534 41486 41454 41576 41693 42146 42292 42447 42422 42074 41774 41703 41604 41423 41213 41110 41036 40907 40845 40792 40777 40706 40603 40277 40492 40467 40306 40172 40068 40022 39954 39820 39690 39567 39431 39265 39082 38861 38736 38598 38505 38430 38392 38401 38399 38397 38422 38411 38342 38178 37994 37842 37690 37591 37520 37490 37418 37374 37343 37339 37371 37346 37234 37102 37039 36985 36942 36911 36883 36877 36886 36896 36905 36916 36932 36864 36770 36659 36613 36615 36611 36634 36670 36684 36707 36762 36810 36860 36835 36765 36689 36654 36630 36629 36700 36771 36858 36919 36980 37069 37124 37149 37088 37014 37056 37049 37008 37021 37127 37303 37465 37561 37656 37715 37725 37699 37643 37642 37656 37709 37815 37897 37943 37985 38009 38029 38069 38108 38090 38079 38113 38135 38138 38154 38141 38109 38060 38024 37997 37968 37943 37873 37769 37700 37560 37464 37390 37340 37287 37236 37184 37174 37098 37075 37007 36893 36811 36758 36797 36829 36795 36737 36699 36664 36647 36630 36597 36527 36401 36241 36144 36056 35985 35922 35862 35829 35822 35842 35871 35873 35839 35737 35843 36595 37175 37632 37979 38402 38603 38451 38239 38496 38672 38628 38589 38678 38795 38907 39027 39199 39340 39515 39635 39789 39942 40040 40077 39964 39765 39775 39950 40096 40172 40138 40113 40070 39961 39801 39643 39445 39234 39088 38943 38844 38822 38777 38745 38744 38690 38674 38667 38615 38530 38398 38274 38183 38089 38005 37938 37872 37868 37820 37798 37742 37714 37621 37513 37382 37277 37171 37115 37052 37010 36977 36957 36937 36936 36924 36891 36828 36755 36659 36582 36532 36490 36466 36407 36362 36320 36240 36190 36142 36087 36018 35929 35853 35817 35772 35771 35769 35746 35780 35780 35782 35774 35735 35682 35563 35481 35437 35408 35380 35364 35365 35370 35367 35357 35378 35413 35464 35444 35386 35390 35352 35331 35301 35277 35226 35236 35220 35226 35257 35268 35243 35235 35200 35194 35190 35193 35170 35140 35123 35105 35140 35173 35193 35211 35197 35152 35113 35097 35067 35119 35148 35206 35276 35319 35347 35388 35399 35399 35412 35400 35372 35412 35419 35419 35425 35421 35421 35438 35427 35424 35432 35429 35389 35358 35369 35352 35396 35408 35411 35468 35497 35520 35524 35567 35643 35661 35639 35632 35615 35576 35621 35661 35665 35694 35711 35716 35727 35815 36066 36855 37539 37898 38522 38989 39291 39319 39268 39266 39463 39642 39890 40207 40399 40571 40616 40644 40662 40758 40938 40971 41008 41118 41163 41283 41355 41384 41458 41397 41012 41064 41057 41118 41157 41312 41413 41548 41677 41772 41772 41800 41770 41696 41641 41543 41441 41330 41210 41053 40938 40858 40760 40688 40829 41264 41444 41544 41607 41720 41651 41769 40967 41537 41363 41297 41409 41438 41163 41453 41346 41590 41475 41417 41491 41669 41565 41527 41734 41552 41570 41603 41551 41531 41537 41432 41150 40826 40506 40274 40043 39880 39736 39550 39433 39321 39190 39051 38986 38852 38627 38416 38192 37960 37917 37751 37819 37734 37514 37533 37543 37385 37380 37268 36979 36826 36617 36479 36406 36315 36270 36257 36196 36171 36154 36161 36196 36135 36073 35960 35890 35837 35851 35844 35878 36016 36094 36284 36372 36481 36677 36917 37435 37653 37977 38194 38386 38635 38873 38938 39019 39191 39245 39317 39370 39490 39298 39325 39219 39245 39201 39231 39293 39310 39298 39244 39250 39251 39251 39246 39205 39154 39120 39123 39095 39148 39160 39197 39172 39214 39277 39294 39265 39229 39147 39096 39082 39064 39050 39033 39028 38994 38993 38991 38996 38993 39012 39010 38935 38849 38754 38681 38605 38584 38514 38501 38475 38464 38457 38429 38379 38295 38253 38251 38269 38316 38294 38291 38278 38241 38240 38231 38264 38278 38287 38271 38221 38166 38139 38139 38092 38074 38041 37981 37990 38002 37986 37998 38046 38170 38398 38693 38945 39102 39221 39265 39290 39360 39594 39909 40370 40696 40845 40918 41025 41098 41130 41179 41320 41444 41529 41702 41753 41781 41793 41873 41979 42040 42092 42120 42211 42285 42344 42413 42403 42447 42515 42640 42813 42965 43164 43260 43331 43400 43481 43565 43691 43791 43898 43947 44076 44177 44141 43997 43924 43794 43527 43444 43375 43343 43385 43410 43427 43451 43498 43566 43612 43640 43662 43630 43529 43441 43381 43342 43332 43354 43438 43597 43765 43871 43996 44025 43941 43770 43704 43697 43776 43913 43883 43849 43868 43848 43842 43826 43792 43718 43588 43423 43265 43143 43021 42901 42837 42766 42758 42856 43038 43316 43385 43422 43421 43424 43384 43246 43133 43032 42938 42873 42840 42857 42879 42908 42908 42870 42857 42974 42918 42900 42812 42757 42647 42502 42103 41867 41725 41848 42085 42368 42601 42823 42892 42828 42664 42476 42384 42366 42403 42565 42456 42243 41964 41550 41253 41223 41287 41380 41359 41454 41351 41197 41166 41184 41223 41274 41342 41310 41306 41315 41358 41384 41409 41442 41473 41436 41436 41420 41398 41357 41270 41137 41004 40939 40881 40874 40855 40816 40766 40708 40675 40674 40660 40666 40579 40484 40373 40315 40322 40361 40408 40464 40496 40549 40596 40635 40679 40669 40586 40490 40351 40222 40094 39982 39985 40246 40187 40108 40035 40033 40107 40149 40271 40473 40670 40846 41007 41140 41227 41230 41278 41249 41210 41219 41241 41201 41121 41079 41064 41123 41201 41286 41284 41279 41242 41239 41261 41303 41348 41303 41283 41181 40973 40904 40957 41039 41165 41400 41486 41584 41634 41731 41814 41924 41945 41938 41979 42034 42148 42198 42411 42793 43078 43218 43244 43232 43206 43035 43038 43040 43018 43025 43007 42972 42957 42917 42885 42867 42873 42830 42775 42734 42685 42654 42645 42656 42642 42616 42584 42561 42527 42496 42443 42353 42229 42094 41993 41898 41862 41798 41748 41672 41612 41581 41545 41513 41429 41268 41108 40976 40881 40804 40741 40697 40629 40571 40543 40487 40468 40439 40338 40212 40079 39999 39942 39931 39933 39921 39891 39867 39863 39850 39865 39835 39739 39615 39532 39501 39513 39531 39582 39627 39702 39762 39874 39984 40091 40137 40160 40200 40254 40329 40429 40523 40619 40681 40768 40868 40969 41068 41165 41219 41205 41288 41492 41549 41508 41490 41418 41372 41337 41424 41492 41591 41589 41553 41482 41439 41371 41337 41371 41489 41593 41684 41730 41793 41864 41902 41964 41991 41999 41972 41945 41879 41880 41959 42096 42165 42210 42181 42181 42115 42041 41968 41931 41925 41952 41933 41952 41959 41994 41951 41968 42010 42023 42028 42002 41963 42036 42166 42294 42441 42388 42492 42196 41945 41709 41528 41324 41112 40917 40898 40889 40920 40864 40817 40788 40759 40610 40373 40271 40086 39861 39867 39837 39860 39910 39904 39825 39734 39623 39538 39466 39418 39396 39353 39295 39241 39198 39198 39257 39378 39494 39674 39888 40191 40461 40670 40867 41038 41151 41254 41295 41264 41208 41123 41115 41126 41232 41370 41531 41615 41688 41746 41762 41761 41774 41793 41802 41839 41831 41907 41935 41919 41888 41862 41819 41872 41922 41945 41926 41913 41897 41885 41956 42080 42241 42233 42276 42332 42431 42558 42695 42868 42964 43016 43029 43058 43002 42969 42868 42789 42758 42776 42708 42725 42861 42906 43027 43133 43252 43315 43356 43284 43171 43032 42946 43009 43055 43086 43216 43264 43371 43490 43618 43646 43536 43407 43293 43226 43114 42961 42918 43005 43259 43425 43510 43595 43672 43775 43871 43943 43762 43442 43139 42962 43010 43116 43256 43445 43587 43626 43694 43754 43775 43686 43556 43228 42954 42773 42624 42516 42441 42382 42335 42285 42257 42347 42512 42658 42807 42945 42920 42572 42285 42013 41752 41566 41416 41263 41169 41161 41140 41055 40854 40639 40472 40315 40187 40054 39932 39814 39712 39630 39560 39511 39422 39306 39074 38812 38649 38534 38432 38387 38305 38251 38173 38104 38045 37994 37941 37835 37655 37464 37322 37215 37178 37183 37172 37146 37098 37078 37093 37091 37094 37019 36833 36646 36488 36343 36216 36089 35932 35808 35672 35584 35513 35475 35426 35325 35167 35039 34985 34984 35024 35057 35079 35091 35115 35183 35219 35269 35285 35198 35078 34995 34940 34928 34912 34910 34899 34872 34874 34887 34931 34942 34964 34931 34850 34782 34736 34735 34750 34794 34824 34861 34896 34956 34989 35005 35023 34981 34984 35126 35322 35561 35773 35917 36015 36070 36137 36211 36260 36328 36409 36535 36752 36875 36968 37034 37198 37199 37166 37248 37432 37676 37889 38014 38021 38002 38089 38201 38322 38527 38757 38917 39055 39180 39204 39188 39197 39178 39146 39117 39069 39067 39196 39513 39721 40049 40432 40857 41142 41425 41622 41680 41776 41842 41950 42089 42238 42422 42593 42710 42755 42783 42711 42631 42457 42273 42036 41895 41911 41860 41836 42168 42666 42973 42998 42753 42536 42362 42351 42397 42436 42496 42660 42797 42864 42872 42822 42761 42740 42725 42781 42787 42812 42989 43247 43484 43614 43663 43613 43516 43405 43350 43310 43274 43161 43006 42860 42721 42630 42547 42507 42443 42412 42353 42292 42264 42220 42159 42010 41847 41701 41599 41498 41421 41332 41299 41227 41185 41205 41288 41415 41490 41528 41582 41659 41795 41857 41935 42100 42360 42544 42471 42328 42410 42610 42719 42755 42810 42757 42617 42362 41831 41666 41621 41628 41790 41803 41798 41757 41784 41815 41911 41736 41833 41751 41743 41893 42071 42255 42315 42526 42596 42315 42137 42222 42559 43033 43280 43486 43613 43604 43370 43254 43156 43001 42876 42745 42594 42486 42619 42850 42882 42955 43038 43046 43029 43134 43243 43026 42750 42705 42726 42751 42778 42836 42858 42890 42923 42919 42899 42796 42502 42010 41559 41251 40997 40815 40666 40517 40424 40370 40347 40261 40080 39782 39398 38936 38512 38167 37828 37586 37347 37103 36863 36660 36512 36407 36311 36189 35983 35713 35457 35270 35115 35004 34890 34822 34818 34812 34828 34846 34852 34865 34807 34659 34516 34429 34380 34363 34378 34388 34402 34397 34414 34442 34501 34529 34556 34478 34296 34203 34169 34173 34214 34226 34235 34240 34271 34305 34339 34359 34380 34324 34207 34174 34183 34229 34283 34379 34447 34535 34624 34695 34799 34892 34974 35034 35033 35009 35010 35053 35085 35144 35227 35274 35347 35402 35460 35521 35579 35641 35676 35680 35663 35669 35700 35746 35812 35883 35949 36015 36091 36157 36203 36239 36323 36383 36431 36508 36552 36622 36664 36720 36799 36870 36965 37048 37133 37235 37328 37403 37411 37426 37433 37449 37478 37501 37540 37562 37588 37629 37666 37706 37730 37771 37789 37758 37729 37724 37710 37717 37719 37710 37718 37716 37709 37725 37734 37739 37752 37730 37684 37644 37614 37581 37570 37542 37537 37542 37528 37521 37537 37528 37545 37555 37505 37437 37367 37330 37297 37278 37242 37219 37195 37206 37178 37184 37188 37195 37197 37153 37074 36984 36936 36882 36866 36844 36807 36807 36813 36835 36847 36886 36917 36928 36873 36747 36659 36581 36536 36501 36488 36497 36484 36476 36486 36498 36506 36551 36566 36518 36448 36377 36321 36312 36319 36313 36308 36311 36332 36327 36359 36381 36397 36442 36429 36361 36271 36233 36222 36240 36283 36317 36338 36384 36412 36439 36478 36489 36504 36502 36468 36405 36310 36272 36224 36226 36242 36252 36283 36328 36371 36412 36476 36576 36661 36688 36642 36554 36476 36375 36317 36245 36201 36158 36132 36093 36090 36068 36045 36045 36025 35984 35906 35822 35780 35774 35770 35769 35798 35847 35888 35916 35949 36005 36065 36119 36160 36179 36159 36131 36150 36200 36256 36288 36314 36333 36350 36356 36404 36431 36478 36502 36499 36482 36455 36433 36461 36455 36455 36469 36466 36479 36484 36492 36515 36542 36552 36549 36490 36464 36422 36395 36375 36315 36253 36503 36759 37030 37268 37430 37624 37879 38172 38405 38623 38821 39091 39224 39289 39352 39411 39460 39475 39515 39560 39609 39641 39633 39600 39560 39555 39572 39631 39685 39692 39743 39797 39795 39811 39813 39846 39836 39775 39666 39567 39418 39316 39307 39286 39247 39215 39150 39062 38996 38984 38997 38999 38883 38720 38590 38517 38411 38300 38185 38110 38016 37982 37932 37959 38077 38395 38427 38748 38963 39074 39068 38987 38837 38649 38481 38373 38287 38247 38208 38169 38125 38068 37965 37846 37729 37646 37570 37409 37361 37351 37299 37292 37265 37236 37187 37129 37039 36939 36928 36938 36960 37027 37106 37386 37714 38216 38749 39158 39580 39871 40122 39693 39441 39267 39270 39278 39536 39685 39761 39791 39885 39853 39862 39851 39864 40013 40185 40288 40412 40435 40392 40329 40405 40406 40408 40321 40262 40181 40192 40131 40050 40024 39995 39953 39877 39820 39759 39708 39681 39651 39653 39624 39651 39569 39534 39423 39320 39225 39171 39035 38978 38863 38783 38712 38669 38608 38544 38537 38451 38343 38259 38150 37969 37989 37887 37845 37779 37709 37683 37673 37696 37684 37646 37598 37571 37479 37382 37324 37291 37223 37218 37197 37156 37146 37098 37128 37146 37176 37169 37145 37023 37024 36982 36992 36973 36997 37002 37016 36985 36991 37001 37015 37028 37032 37005 36984 36949 36916 36899 36916 36936 36951 36937 36947 36971 36989 37018 37069 37081 37038 37002 36956 36968 36953 36946 36955 36988 37018 37009 37015 37090 37093 37102 37113 37094 37050 37018 37014 37019 37033 37056 37064 37087 37124 37135 37177 37195 37239 37220 37219 37205 37189 37190 37219 37238 37250 37279 37299 37313 37363 37380 37398 37413 37396 37367 37353 37340 37336 37365 37381 37398 37401 37443 37478 37500 37516 37555 37540 37531 37497 37519 37491 37495 37556 37578 37647 38081 38224 38258 38379 38647 38820 38788 38779 38731 38699 38696 38676 38705 38766 38763 38833 38822 38805 38852 38909 39214 39556 39951 40364 40449 40224 40071 39955 40012 39994 40133 40212 40172 40282 40181 40056 40024 40000 39988 40027 40039 40004 40040 40139 40230 40115 40464 40621 40790 40899 40885 40849 40811 40880 40939 40883 41004 40882 40938 40899 40934 40879 40913 40973 40890 40732 40570 40343 40136 39868 39791 39680 39594 39478 39344 39248 39144 39058 38953 38817 38593 38315 38112 37868 37636 37490 37324 37256 37100 36971 36862 36748 36691 36631 36501 36290 36090 35934 35830 35756 35678 35621 35542 35490 35473 35436 35484 35482 35489 35365 35222 35142 35042 34995 35004 35024 34997 34959 34928 34924 34957 35036 35049 35110 35031 34996 35069 35185 35272 35297 35278 35248 35315 35461 35545 35671 35729 35859 35965 35987 36027 36108 36079 36088 36083 36159 36241 36259 36348 36382 36411 36623 36820 36966 36963 37053 37248 37300 37575 37710 37728 37709 37704 37610 37537 37480 37377 37290 37272 37213 37155 37115 37208 37242 37360 37503 37517 37573 37628 37650 37749 37844 37868 37883 37813 37786 37821 37791 37838 37854 37928 37972 38022 38058 38078 38183 38221 38251 38267 38260 38238 38250 38242 38243 38204 38179 38178 38156 38115 38134 38107 38111 38110 38122 38099 38041 38004 37959 37942 37936 37897 37886 37850 37808 37826 37837 37861 37842 37869 37919 38070 38174 38341 38255 38278 38302 38237 38308 38222 38278 38314 38327 38272 38352 38268 38321 38233 38157 38057 37989 37948 37910 37887 37835 37822 37794 37748 37728 37741 37715 37674 37602 37500 37429 37385 37331 37308 37247 37192 37113 37072 37077 37057 37026 36980 36917 36807 36708 36631 36563 36539 36471 36411 36374 36332 36312 36314 36293 36287 36303 36288 36229 36183 36134 36102 36071 36137 36115 36136 36165 36169 36278 36324 36381 36399 36402 36332 36298 36252 36205 36177 36060 35956 36067 36051 36210 36301 36367 36407 36511 36645 36704 36670 36680 36646 36668 36701 36654 36683 36601 36561 36581 36539 36566 36554 36542 36475 36443 36416 36408 36351 36362 36318 36269 36180 36138 36127 36084 36075 36134 36103 36038 36004 35947 35926 35961 36013 36059 36098 36147 36230 36356 36331 36363 36620 36574 36633 36709 36736 36772 36852 36817 37223 37315 37351 37407 37335 37368 37314 37325 37348 37272 37255 37283 37325 37646 37802 37834 38173 38139 38286 38557 38656 38631 38803 38624 38522 38465 38396 38353 38333 38296 38250 38339 38355 38464 38535 38472 38497 38488 38403 38328 38169 38102 38023 37907 37838 37818 37772 37741 37692 37669 37628 37625 37608 37515 37464 37571 37545 37611 37666 37700 37748 37892 37936 38061 38115 38097 38016 37935 37818 37730 37667 37587 37524 37463 37417 37361 37353 37329 37345 37369 37476 37595 37587 37652 37591 37616 37632 37790 37929 38053 38022 38030 38083 38160 38122 38125 38099 37913 37775 37732 37637 37641 37581 37557 37541 37564 37548 37532 37512 37536 37484 37394 37357 37291 37255 37217 37144 37138 37106 37095 37113 37139 37167 37152 37077 36967 36881 36826 36746 36742 36725 36740 36758 36708 36716 36735 36753 36800 36777 36749 36722 36712 36700 36695 36661 36583 36556 36511 36438 36446 36431 36422 36426 36378 36322 36269 36296 36250 36227 36317 36265 36256 36465 36585 36735 36913 37076 37135 37411 37588 37630 37574 37711 37685 37701 37838 37910 37945 38037 38083 38196 38239 38379 38508 38610 38583 38517 38580 38495 38843 38820 38814 38953 38930 39163 39246 39248 39277 39287 39336 39352 39435 39393 39431 39559 39514 39572 39594 39634 39638 39595 39538 39446 39348 39261 39208 39158 39116 39077 39075 39021 39017 39010 38968 38925 38855 38828 38889 39063 39279 39387 39452 39505 39550 39535 39580 39636 39590 39562 39477 39501 39469 39499 39525 39513 39507 39482 39379 39400 39389 39316 39268 39200 39091 38979 38903 38848 38801 38764 38739 38706 38667 38638 38592 38554 38510 38459 38384 38285 38223 38164 38102 38050 38030 37995 37961 37925 37912 37885 37838 37840 37760 37667 37608 37564 37514 37479 37437 37409 37371 37354 37330 37312 37281 37267 37222 37182 37126 37090 37062 37038 37021 36977 36978 36939 36942 36931 36936 36964 36954 36907 36887 36821 36794 36801 36778 36786 36776 36750 36743 36757 36728 36753 36741 36701 36670 36624 36567 36580 36541 36538 36504 36493 36480 36486 36481 36522 36509 36487 36437 36372 36320 36288 36322 36307 36317 36377 36414 36416 36440 36611 36687 36716 36802 36913 36951 37034 37159 37253 37370 37455 37616 37764 37864 37986 38143 38236 38292 38402 38386 38426 38470 38522 38523 38560 38569 38605 38616 38669 38672 38671 38680 38648 38613 38597 38573 38597 38641 38674 38740 38809 38908 39029 39252 39340 39395 39406 39507 39515 39562 39760 39866 39980 40046 40114 40093 40151 40159 40163 40099 40079 40073 40021 40008 40029 39982 39997 40061 40061 40091 40106 40065 40053 39988 39959 39917 39899 39890 39836 39863 39864 39884 39971 40066 40083 40062 40057 40036 39926 39892 39941 39927 39940 39890 39963 39938 39911 39931 39922 39943 39862 39737 39708 39693 39632 39742 39764 39704 39759 39659 39706 39719 39708 39622 39544 39400 39301 39290 39202 39166 39127 39086 39040 38975 38903 38884 38843 38769 38584 38443 38281 38225 38066 37978 37931 37812 37701 37663 37535 37467 37401 37314 37180 37020 36865 36755 36702 36676 36600 36603 36540 36505 36448 36419 36361 36366 36257 36199 36172 36200 36200 36228 36195 36186 36186 36344 36326 36413 36522 36507 36410 36361 36273 36311 36342 36345 36379 36364 36359 36385 36377 36380 36383 36319 36195 36063 35972 35890 35852 35878 35880 35864 35829 35856 35869 35898 35937 35947 35904 35794 35719 35717 35707 35726 35731 35735 35704 35695 35709 35716 35764 35788 35751 35688 35599 35585 35571 35605 35603 35620 35594 35607 35599 35555 35574 35563 35531 35482 35396 35386 35393 35375 35472 35522 35559 35657 35759 35848 35961 36048 36078 36096 36081 36074 36076 36083 36079 36064 36061 36009 35985 35983 35963 35951 35925 35891 35826 35985 36240 36459 36539 36805 36984 37121 36957 36807 36634 36587 36438 36281 36148 36075 35958 35894 35866 35806 35710 35674 35658 35622 35598 35572 35492 35426 35308 35243 35190 35167 35124 35056 35011 34972 34920 34903 34830 34806 34771 34698 34596 34528 34614 34696 34819 34849 34833 34829 34852 34808 34823 34836 34842 34803 34744 34629 34608 34595 34559 34542 34506 34493 34470 34463 34454 34438 34387 34354 34288 34253 34236 34263 34256 34298 34299 34427 34420 34414 34445 34475 34452 34436 34402 34429 34397 34429 34374 34388 34413 34452 34444 34602 34702 34850 34927 35068 35169 35159 35227 35352 35379 35483 35527 35610 35622 35628 35619 35620 35615 35596 35584 35592 35618 35680 35700 35720 35747 35780 35820 35856 35869 35900 35851 35845 35795 35746 35698 35690 35690 35670 35693 35699 35739 35784 35819 35819 35831 35810 35790 35779 35790 35779 35790 35811 35793 35837 35836 35830 35924 35903 35868 35819 35769 35712 35684 35655 35659 35647 35657 35665 35685 35703 35690 35712 35750 35707 35668 35627 35600 35586 35563 35570 35544 35530 35518 35500 35554 35562 35563 35560 35541 35534 35519 35535 35563 35519 35498 35490 35485 35505 35508 35612 35618 35662 35651 35596 35566 35511 35514 35502 35457 35464 35566 35597 35650 35649 35656 35659 35619 35583 35562 35546 35535 35510 35477 35448 35410 35405 35393 35416 35363 35353 35347 35323 35323 35383 35433 35567 35617 35632 35610 35595 35590 35549 35586 35598 35548 35474 35401 35354 35371 35343 35346 35364 35412 35389 35365 35340 35343 35361 35361 35311 35278 35238 35276 35325 35590 35705 35872 35817 36042 36179 36392 36360 36406 36578 36612 36669 36741 36804 36865 36924 36964 36997 37050 37062 37078 37106 37116 37104 37087 37045 36996 36994 36984 36971 36970 36964 36936 36905 36915 36888 36935 36932 36860 36839 36823 36792 36784 36763 36755 36761 36739 36729 36724 36741 36751 36773 36769 36728 36710 36710 36696 36707 36711 36726 36722 36738 36758 36761 36772 36802 36816 36795 36753 36748 36760 36743 36741 36765 36754 36771 36781 36807 36826 36862 36861 36829 36784 36751 36704 36681 36665 36657 36650 36636 36639 36682 36685 36697 36688 36684 36658 36600 36591 36577 36531 36508 36531 36520 36524 36495 36509 36497 36468 36496 36513 36482 36440 36419 36475 36467 36473 36483 36470 36486 36488 36503 36516 36536 36598 36628 36624 36656 36675 36919 37340 37982 38690 38798 39202 39030 38956 38967 38908 38920 38871 38812 38815 38753 38766 38732 38746 38677 38669 38643 38589 38579 38577 38551 38514 38470 38485 38426 38428 38426 38375 38405 38350 38404 38346 38400 38432 38451 38414 38381 38298 38262 38237 38196 38196 38183 38188 38209 38163 38127 38133 38119 38116 38066 38006 37949 37844 37766 37733 37688 37619 37624 37511 37485 37441 37396 37399 37342 37304 37224 37143 37026 37029 37006 36953 36933 36895 36894 36887 36876 36873 36853 36867 36736 36696 36627 36653 36654 36640 36603 36623 36650 36630 36631 36609 36622 36600 36606 36550 36489 36458 36453 36410 36398 36387 36391 36397 36409 36402 36409 36414 36432 36464 36416 36388 36349 36328 36311 36268 36307 36286 36266 36315 36313 36329 36386 36411 36383 36319 36285 36238 36207 36167 36126 36119 36078 36046 36022 35973 35976 35952 35908 35839 35779 35717 35686 35659 35643 35643 35593 35585 35613 35711 35733 35735 35747 35699 35653 35641 35599 35739 35771 35784 35859 35856 35939 35974 36007 36018 36021 36038 35978 35976 35892 35954 35964 35984 35987 36116 36154 36253 36366 36418 36439 36477 36486 36400 36314 36275 36237 36203 36121 36116 36138 36156 36220 36209 36279 36277 36256 36221 36168 36121 36089 36101 36071 36065 36044 36033 36054 36058 36030 36039 35984 35968 35926 35841 35789 35824 35852 35893 35959 36010 36058 36081 36067 36058 36061 36050 36035 35969 35886 35807 35728 35692 35677 35662 35692 35723 35781 35788 35853 35849 35905 35922 35973 35954 35936 35942 35978 35993 36072 36214 36275 36360 36388 36395 36366 36324 36329 36293 36261 36201 36170 36208 36224 36207 36215 36201 36216 36182 36155 36105 36035 35938 35843 35840 35858 35923 35928 35956 36163 36197 36359 36414 36397 36397 36375 36323 36333 36340 36481 36732 37410 37935 38020 38742 39231 39619 39923 40005 40050 39845 39754 39644 39530 39421 39319 39352 39338 39271 39196 39133 39052 39044 38973 38916 38863 38759 38649 38548 38466 38369 38305 38245 38146 38104 38067 37978 37977 37963 37884 37746 37638 37527 37449 37378 37321 37259 37206 37163 37114 37059 37027 37043 37011 36936 36820 36696 36639 36587 36525 36459 36473 36388 36379 36359 36348 36316 36286 36261 36134 35946 35984 35996 35961 35945 35952 35962 35924 35882 35844 35953 35958 35993 35982 36080 36070 36017 36008 36100 36166 36222 36274 36313 36335 36384 36389 36439 36463 36395 36305 36284 36305 36293 36341 36390 36396 36410 36399 36403 36396 36423 36418 36405 36350 36273 36252 36291 36272 36277 36283 36268 36268 36281 36310 36343 36402 36425 36409 36382 36368 36372 36403 36434 36481 36525 36500 36507 36545 36559 36522 36531 36559 36516 36523 36463 36486 36508 36490 36489 36499 36504 36528 36587 36831 37215 37464 37527 37520 37645 37698 37765 37749 37708 37664 37586 37545 37539 37509 37461 37433 37385 37318 37266 37203 37142 37150 37182 37246 37456 37849 38377 38892 39101 39324 39473 39712 40129 40163 40329 40546 40667 40798 40994 40946 40896 40763 40699 40672 40701 40720 40704 40702 40698 40654 40624 40589 40587 40623 40708 40679 40663 40674 40661 40659 40637 40667 40771 40829 40825 40812 40826 40833 40831 40850 40820 40743 40644 40616 40677 40569 40558 40406 40294 40147 39996 39832 39683 39578 39507 39498 39521 39434 39366 39213 38964 38718 38527 38356 38206 38027 37905 37819 37712 37652 37567 37505 37484 37443 37363 37192 37074 37004 37052 37228 37577 37804 38158 38644 39142 39536 39937 40166 40072 39486 39112 39004 38793 38639 38604 38594 38584 38515 38432 38331 38284 38271 38225 38317 38196 38102 38137 38134 38298 38440 38567 38661 38691 38887 39001 39168 39177 39163 39010 38910 38877 38949 38898 38935 38787 38676 38706 38594 38760 38643 38702 38811 38948 39106 39346 39277 39175 39150 38990 39026 38968 38968 39115 39110 39054 38917 38820 38701 38609 38441 38272 38093 37923 37858 37939 37892 38020 38068 38061 38063 38044 37933 37804 37649 37481 37376 37244 37203 37116 37029 36971 36884 36801 36728 36654 36598 36544 36475 36384 36249 36135 36046 35961 35922 35896 35842 35800 35766 35730 35711 35695 35702 35655 35573 35563 35420 35426 35403 35361 35328 35289 35299 35284 35306 35396 35477 35507 35534 35467 35447 35467 35472 35445 35438 35431 35446 35406 35456 35529 35519 35509 35485 35433 35399 35362 35442 35510 35684 35760 35821 35935 35978 36098 36203 36224 36261 36220 36201 36203 36225 36259 36252 36288 36297 36315 36313 36320 36320 36314 36282 36222 36165 36124 36065 36034 36038 36009 36017 35986 35977 35962 35987 35970 35950 35916 35857 35833 35809 35797 35916 35942 35965 35995 36016 36038 36083 36115 36149 36153 36107 36106 36076 36107 36105 36129 36111 36115 36107 36062 36066 36055 36026 35978 35909 35847 35781 35749 35684 35715 35798 35841 35876 35908 35926 35919 35913 35917 35882 35854 35802 35748 35703 35822 35782 36012 36121 36222 36266 36332 36384 36429 36450 36426 36396 36358 36337 36335 36384 36445 36471 36515 36482 36500 36545 36527 36523 36502 36487 36389 36320 36250 36206 36181 36150 36116 36075 36052 36031 36037 36042 36094 36088 36046 35993 35914 35885 35842 35789 35734 35761 35789 35797 35797 35800 35790 35778 35778 35726 35660 35608 35573 35524 35519 35509 35475 35468 35470 35456 35494 35485 35491 35468 35430 35366 35272 35205 35150 35083 35057 35024 34986 34958 34935 34985 35061 35183 35259 35346 35402 35496 35701 35886 36168 36561 36894 37047 37097 37020 36949 36914 36865 36834 36782 36657 36550 36389 36333 36293 36202 36104 36069 36063 36033 36010 35938 35889 35872 35814 35809 35734 35684 35678 35637 35628 35576 35573 35574 35525 35469 35419 35423 35405 35401 35412 35372 35392 35417 35349 35284 35221 35171 35123 35089 35057 35030 34982 34989 34972 34957 34914 34845 34834 34804 34800 34825 34859 34899 35010 35078 35118 35141 35122 35076 35079 35017 34956 34902 34861 34926 34941 34987 34999 34973 34947 34888 34873 34835 34862 34843 34821 34755 34713 34664 34644 34648 34668 34679 34656 34643 34621 34638 34623 34598 34661 34744 35154 35569 35795 35820 35818 35729 35645 35603 35687 35796 35852 35842 35819 35780 35745 35694 35643 35581 35499 35445 35393 35370 35333 35329 35355 35365 35425 35437 35477 35501 35533 35544 35541 35460 35398 35341 35244 35232 35290 35376 35509 35684 35871 35926 35914 35855 35779 35702 35689 35794 36003 36219 36709 37106 37245 37415 37499 37476 37540 37763 38434 39218 39884 40350 40606 40571 40753 40782 40955 41064 41250 41393 41449 41462 41498 41430 41433 41554 41479 41504 41472 41653 41873 42074 42080 42160 42334 42491 42653 42714 42829 42721 42595 42669 42518 42597 42465 42465 42610 42902 42827 43002 43048 43065 43094 43135 43166 43147 43172 43144 43072 42983 42972 42827 42932 42848 42885 42951 42912 42975 42848 42889 42826 42727 42599 42551 42571 42643 42505 42430 42361 42243 42104 42103 41942 41770 41425 41099 40764 40502 40159 39849 39600 39408 39175 38971 38771 38527 38368 38088 37772 37426 37131 36873 36708 36521 36316 36167 36020 35883 35758 35654 35596 35492 35272 35061 34908 34764 34649 34599 34496 34366 34295 34411 34361 34353 34444 34547 34550 34586 34619 34509 34676 34804 34973 35068 35058 35071 35016 35009 35088 35093 35139 35068 34997 35208 35500 35860 36502 37318 38115 39079 39658 40115 40468 40523 40558 40210 39893 39874 39953 40047 40102 40142 40449 40466 40653 40862 40996 41116 41299 41328 41420 41383 41527 41525 41450 41173 41206 41107 41063 41257 41221 41189 41139 41299 41558 41750 41797 41808 42129 41898 41774 41872 41968 41869 41823 41966 42026 41900 42187 42070 42136 42003 42068 42114 42136 42108 42322 42223 42298 42196 42341 42352 42333 42300 42339 42334 42350 42403 42411 42327 42290 42208 42076 41944 41869 41898 41728 41689 41508 41377 41280 41189 41071 40985 40884 40701 40502 40434 40391 40232 39969 39680 39463 39232 39041 38909 38767 38619 38479 38327 38223 38136 37989 37609 37378 37213 37014 36929 36844 36757 36699 36662 36532 36405 36265 36236 36178 36044 35765 35494 35256 35168 35048 34945 34907 34849 34816 34789 34784 34835 34861 34891 34834 34726 34721 34675 34593 34432 34370 34361 34354 34321 34371 34406 34508 34577 34623 34640 34575 34445 34523 34545 34653 34616 34776 34819 34859 34843 34974 35065 35140 35164 35220 35171 35087 35043 35113 35165 35168 35202 35295 35341 35383 35405 35458 35524 35592 35603 35608 35612 35613 35604 35649 35707 35785 35846 35891 35944 35972 36010 36033 36042 36036 35995 35995 36041 36113 36138 36157 36167 36175 36202 36210 36236 36261 36264 36275 36273 36269 36261 36269 36254 36259 36271 36292 36309 36305 36327 36306 36333 36337 36395 36409 36421 36466 36494 36504 36496 36512 36555 36552 36601 36611 36632 36668 36772 36753 36927 37142 37679 37794 37919 38119 38509 38400 38405 38581 38720 38786 38933 39002 39232 39540 39664 39768 39831 40071 40211 40344 40582 40710 40725 40921 40880 40699 40444 40254 40065 39935 39836 39795 39689 39614 39528 39448 39372 39286 39259 39160 39155 39267 39489 39785 40015 40214 40344 40505 40728 40851 40793 40746 40740 40865 40968 41153 41284 41347 41330 41306 41259 41252 41309 41281 41238 41196 41190 41068 41052 40970 40983 40923 40877 40820 40709 40586 40444 40289 40137 40015 39916 39781 39651 39579 39464 39366 39246 39081 38883 38647 38468 38305 38172 38054 37916 37748 37458 37181 36925 36672 36470 36281 36130 35968 35841 35722 35593 35513 35425 35320 35139 34944 34773 34633 34560 34530 34573 34574 34491 34433 34350 34282 34246 34231 34150 34021 33935 33887 33848 33854 33843 33835 33812 33788 33793 33775 33757 33773 33749 33665 33570 33496 33430 33463 33429 33446 33435 33445 33448 33430 33391 33405 33376 33362 33310 33217 33158 33170 33169 33144 33138 33148 33145 33151 33126 33146 33168 33196 33194 33220 33253 33266 33246 33268 33291 33279 33375 33409 33472 33488 33547 33603 33647 33605 33609 33597 33586 33586 33615 33675 33682 33664 33664 33682 33698 33725 33753 33784 33788 33761 33756 33777 33721 33733 33756 33781 33778 33791 33822 33798 33799 33775 33805 33786 33785 33787 33793 33802 33859 33905 33910 33956 33979 33986 34029 34050 34056 34089 34067 34079 34059 34073 34080 34103 34099 34096 34087 34073 34071 34058 34054 34044 34030 33978 33923 33867 33842 33821 33801 33771 33756 33775 33785 33777 33817 33858 33852 33857 33857 33892 33979 34096 34169 34159 34149 34125 34064 34061 34175 34578 35613 36724 37525 38146 38450 38601 38726 38764 38775 38788 38947 39049 39074 39105 39092 39104 39057 38981 38860 38692 38504 38323 38185 38034 37923 37832 37815 37746 37660 37605 37501 37431 37333 37206 37049 36934 36803 36677 36563 36445 36339 36230 36122 36025 35950 35858 35797 35708 35580 35435 35289 35175 35094 35010 34915 34828 34720 34627 34561 34473 34429 34439 34430 34587 34741 34793 34825 34861 34872 34889 34885 34880 34935 34896 34863 34864 34942 35399 36983 37882 38570 39132 39687 39905 39873 39859 39721 39582 39467 39419 39481 39443 39442 39407 39347 39229 39156 39089 39115 39136 39090 39039 38911 38869 38836 38807 38786 38779 38897 39051 39141 39223 39436 39532 39638 39794 39862 39945 40001 40031 40000 40011 39936 39908 40037 40068 40038 40053 40042 40030 40011 39978 39964 39969 39988 40033 40165 40256 40338 40385 40453 40501 40404 40344 40341 40398 40471 40600 40632 40723 40821 40866 40911 40929 40975 40988 40988 40959 40905 40864 40851 40800 40659 40364 40192 40060 39986 39877 39800 39723 39662 39613 39534 39423 39286 39152 39040 38928 38825 38716 38658 38538 38396 38299 38234 38162 38080 37925 37731 37558 37419 37260 37121 36991 36879 36792 36682 36563 36431 36341 36272 36198 36084 35983 35876 35722 35598 35544 35480 35387 35330 35262 35172 35106 35053 34998 34929 34860 34769 34686 34624 34582 34563 34535 34573 34597 34646 34675 34803 34840 34914 34962 34946 34917 34863 34867 34845 34834 34844 34839 34894 34906 34965 35001 35102 35178 35178 35143 35169 35144 35144 35127 35143 35149 35132 35140 35142 35196 35241 35227 35204 35178 35148 35123 35145 35129 35146 35236 35180 35201 35365 35407 35501 35577 35666 35672 35665 35685 35864 35946 35959 35997 36058 36049 36049 36058 36078 36165 36174 36217 36210 36219 36180 36202 36163 36202 36187 36172 36169 36172 36209 36228 36228 36225 36329 36350 36380 36361 36353 36369 36365 36362 36335 36318 36292 36280 36335 36299 36298 36280 36272 36263 36263 36270 36267 36277 36303 36315 36363 36401 36405 36451 36418 36419 36404 36371 36325 36283 36277 36249 36225 36237 36233 36222 36243 36263 36238 36201 36151 36198 36212 36166 36179 36293 36319 36356 36381 36375 36397 36420 36400 36355 36327 36304 36291 36261 36237 36249 36250 36227 36204 36148 36162 36157 36319 36368 36373 36399 36301 36263 36328 36374 36373 36407 36471 36567 36601 36623 36632 36628 36565 36478 36463 36427 36434 36426 36420 36424 36419 36426 36435 36396 36382 36308 36231 36136 36120 36063 36009 36052 36022 36038 36051 36096 36082 36072 36149 36205 36187 36148 36111 36079 36055 36094 36109 36149 36200 36286 36346 36357 36385 36389 36379 36367 36382 36410 36473 36534 36564 36638 36647 36675 36708 36703 36828 36841 36819 36822 36878 36878 36900 36925 36944 36957 36999 37037 37062 37172 37176 37186 37196 37201 37153 37138 37121 37107 37120 37123 37088 37141 37148 37142 37168 37194 37134 37109 37116 37113 37165 37194 37191 37179 37185 37180 37166 37179 37179 37142 37151 37109 37061 37027 37000 36979 36952 36966 36966 36946 36932 36942 36958 36974 36942 36917 36895 36904 36921 36938 36975 37002 37026 37015 36996 36974 36958 36966 36961 36896 36870 36829 36802 36778 36781 36747 36749 36770 36752 36872 36869 37057 37166 37213 37451 37453 37700 37740 37815 37855 37846 37846 37849 37847 37864 37879 37886 37912 37889 37835 37820 37727 37690 37680 37633 37616 37583 37588 37562 37505 37503 37469 37428 37335 37245 37177 37148 37111 37025 36983 36945 36900 36878 36834 36808 36794 36768 36699 36617 36562 36514 36479 36453 36441 36384 36404 36378 36340 36316 36293 36258 36228 36169 36126 36105 36096 36079 36050 36042 36051 36009 36029 36018 36004 35996 36004 36025 36037 35985 36078 36083 36150 36156 36133 36129 36125 36129 36105 36088 36091 36104 36068 36090 36084 36116 36127 36121 36141 36151 36145 36166 36151 36146 36102 36066 36010 35964 35922 35922 35888 35901 35882 35881 35880 35889 35871 35863 35854 35849 35791 35767 35725 35685 35646 35628 35605 35594 35587 35571 35553 35562 35565 35540 35528 35487 35448 35416 35461 35469 35461 35443 35486 35486 35509 35542 35526 35585 35568 35548 35519 35504 35487 35541 35538 35513 35515 35477 35475 35463 35438 35436 35409 35415 35386 35342 35329 35314 35302 35277 35265 35265 35262 35254 35306 35312 35416 35418 35487 35508 35546 35550 35584 35743 35911 36007 36082 36093 36131 36143 36173 36260 36236 36206 36192 36128 36119 36065 36015 35986 35940 35888 35884 35866 35812 35798 35801 35764 35726 35662 35643 35726 35690 35686 35640 35592 35554 35517 35471 35517 35468 35406 35401 35412 35413 35388 35392 35404 35401 35392 35393 35388 35399 35367 35327 35300 35337 35364 35508 35513 35579 35669 35717 35731 35744 35876 35886 35932 35928 35867 35822 35779 35725 35679 35617 35589 35568 35559 35563 35596 35620 35649 35653 35622 35604 35615 35678 35694 35734 35789 35816 35832 35868 35887 35899 35848 35837 35783 35766 35745 35715 35692 35675 35693 35769 35788 35801 35809 35863 35901 35917 35919 35913 35915 35902 35902 35901 35908 35950 36051 36106 36168 36177 36220 36222 36192 36143 36106 36157 36116 36138 36164 36175 36235 36235 36248 36360 36399 36445 36460 36455 36392 36387 36391 36358 36371 36354 36268 36290 36350 36354 36328 36386 36371 36384 36355 36400 36401 36403 36426 36404 36436 36467 36465 36485 36504 36536 36547 36556 36536 36522 36531 36520 36531 36536 36539 36525 36560 36567 36540 36541 36575 36556 36595 36659 36684 36661 36690 36717 36698 36714 36676 36669 36764 36818 36774 36758 36788 36755 36693 36758 36747 36741 36755 36776 36756 36771 36787 36786 36757 36762 36709 36640 36600 36587 36546 36562 36534 36504 36461 36466 36433 36428 36393 36362 36313 36253 36187 36135 36093 36067 36007 36004 35951 35964 35935 35929 35899 35850 35853 35876 35888 35903 35912 35883 35859 35809 35786 35718 35605 35682 35839 35993 35993 35971 35950 35885 35877 35903 35922 35899 35949 35968 35974 35963 35971 35922 35891 35881 35884 35859 35867 35895 35969 36016 36022 36026 36044 36023 36042 36070 36015 35998 35985 35936 35943 35950 36009 36073 36072 36114 36114 36113 36134 36153 36172 36126 36084 36103 36127 36112 36108 36105 36068 36068 36056 36073 36126 36197 36244 36258 36241 36233 36236 36227 36197 36160 36140 36102 36084 36040 36027 35985 35935 35888 35841 35816 35779 35765 35769 35757 35716 35714 35659 35721 35737 35756 35730 35695 35636 35604 35573 35572 35567 35531 35517 35511 35517 35515 35539 35542 35519 35504 35498 35451 35454 35403 35476 35465 35466 35431 35434 35468 35495 35469 35463 35422 35356 35290 35300 35282 35279 35288 35273 35284 35249 35257 35248 35270 35257 35265 35209 35182 35140 35188 35197 35217 35188 35191 35175 35141 35134 35136 35148 35173 35120 35117 35184 35170 35151 35199 35210 35192 35156 35195 35219 35222 35200 35243 35225 35210 35206 35270 35273 35230 35206 35285 35286 35282 35286 35373 35397 35358 35383 35473 35462 35420 35417 35340 35318 35317 35277 35251 35236 35222 35182 35174 35170 35150 35093 35089 35045 34992 34947 34935 35013 35051 35117 35156 35177 35289 35351 35387 35371 35388 35430 35398 35422 35577 35795 36242 37198 37786 38320 38673 38920 39042 39318 39498 39835 40142 40235 40339 40404 40579 40737 40745 40881 40963 41053 41210 41288 41230 41147 41089 41065 41023 40951 40896 40906 40889 40853 40679 40606 40632 40685 40813 40909 40868 40844 40952 41023 41032 41064 41100 41139 41255 41254 41382 41514 41491 41517 41587 41492 41530 41501 41493 41530 41647 41674 41783 41890 41735 41421 41069 40795 40557 40274 39994 39724 39574 39360 39192 38974 38789 38581 38499 38440 38343 38176 38002 37723 37485 37239 37209 37488 37500 37509 37849 38208 38257 38563 38694 38582 38822 39072 39240 39560 39876 40163 40477 40700 40828 40894 40783 40837 40874 40959 41202 41311 41491 41575 41595 41595 41579 41604 41588 41596 41648 41530 41363 41226 41070 40959 40807 40597 40387 40183 40014 39860 39710 39559 39441 39344 39235 39156 39049 38943 38829 38648 38415 38203 38015 37847 37711 37626 37523 37430 37349 37279 37260 37217 37196 37149 37032 36872 36735 36672 36592 36529 36471 36414 36411 36397 36366 36294 36247 36214 36138 35986 35850 35731 35690 35675 35650 35587 35514 35482 35515 35515 35514 35543 35576 35501 35343 35229 35140 35120 35138 35168 35186 35169 35137 35142 35153 35189 35221 35293 35253 35185 35082 35080 35084 35105 35131 35146 35252 35297 35342 35412 35463 35525 35490 35403 35297 35297 35299 35325 35389 35405 35424 35466 35466 35501 35542 35596 35608 35582 35502 35465 35468 35455 35501 35550 35588 35597 35675 35738 35748 35762 35816 35829 35784 35835 36406 36823 36791 36945 36980 36816 36709 36709 36715 36659 36542 36436 36291 36127 36075 36091 36079 36056 35984 35942 35900 35829 35780 35760 35737 35767 35689 35640 35615 35690 35754 35875 35966 35993 35996 35937 35827 35782 35726 35705 35640 35480 35357 35223 35158 35134 35097 35050 34994 34943 34867 34854 34830 34817 34782 34717 34708 34757 34779 34789 34920 35007 34947 34955 34917 34858 34775 34748 34689 34598 34509 34519 34518 34553 34564 34555 34557 34538 34508 34444 34421 34388 34406 34446 34436 34344 34304 34295 34305 34328 34317 34420 34421 34426 34453 34433 34372 34315 34382 34393 34574 34752 34720 34821 35011 35088 35097 35126 35080 35039 34949 34923 34826 34735 34651 34651 34560 34487 34538 34588 34605 34576 34591 34598 34657 34676 34646 34607 34533 34482 34413 34345 34268 34235 34210 34185 34178 34216 34242 34212 34229 34235 34235 34233 34228 34237 34249 34269 34295 34276 34312 34385 34416 34438 34428 34353 34325 34329 34332 34368 34433 34533 34642 34673 34724 34759 34788 34781 34796 34809 34798 34808 34769 34767 34767 34807 34830 34827 34808 34759 34721 34681 34666 34615 34564 34532 34508 34495 34488 34466 34446 34426 34408 34394 34377 34387 34392 34371 34338 34351 34329 34337 34361 34365 34343 34328 34270 34269 34284 34266 34270 34252 34232 34236 34289 34333 34339 34399 34479 34488 34491 34480 34463 34528 34534 34522 34511 34508 34518 34529 34590 34622 34647 34698 34757 34773 34740 34762 34713 34722 34705 34664 34665 34641 34669 34693 34711 34746 34743 34726 34753 34705 34692 34679 34660 34631 34581 34557 34667 34867 35234 36116 37004 37829 38448 38927 39132 39326 39486 39561 39573 39531 39510 39474 39387 39310 39360 39414 39554 39613 39496 39300 39154 39015 38976 38942 38877 38728 38591 38434 38286 38368 38911 39768 40248 40590 40821 40940 41012 41021 41028 40986 40910 40812 40751 40677 40640 40614 40615 40626 40659 40589 40553 40478 40266 39983 39690 39447 39249 39079 38925 38744 38581 38439 38300 38150 38014 37893 37796 37697 37524 37292 37020 36793 36617 36463 36298 36216 36076 35937 35793 35663 35569 35447 35320 35153 34916 34714 34522 34391 34311 34273 34222 34162 34084 34017 33945 33892 33856 33838 33747 33624 33508 33429 33387 33364 33360 33360 33352 33346 33324 33309 33298 33278 33209 33120 33022 32957 32920 32901 32881 32837 32749 32659 32602 32537 32506 32457 32413 32367 32289 32203 32141 32060 32024 32016 32002 32017 32051 32057 32085 32078 32063 32014 31961 31852 31766 31695 31638 31622 31585 31588 31581 31549 31560 31602 31662 31665 31625 31645 31678 31656 31681 31760 31793 31876 31959 32024 32117 32199 32224 32252 32309 32350 32426 32449 32677 32883 32930 32944 32986 33045 33181 33329 33557 33713 33891 33952 33981 34063 34054 34048 34027 33990 33950 33918 33894 33884 33889 33888 33855 33790 33755 33714 33674 33646 33628 33643 33615 33616 33628 33618 33632 33670 33693 33711 33714 33687 33660 33625 33610 33598 33576 33571 33536 33554 33552 33598 33582 33597 33623 33648 33697 33709 33713 33707 33666 33638 33606 33583 33577 33542 33501 33469 33425 33398 33383 33390 33405 33437 33453 33495 33505 33543 33558 33553 33522 33491 33484 33465 33442 33400 33358 33335 33294 33273 33233 33195 33173 33168 33133 33102 33069 33037 33016 33014 33016 33007 33040 33050 33037 32998 32986 32962 32936 32881 32827 32800 32762 32733 32740 32735 32702 32693 32669 32641 32625 32609 32600 32584 32558 32552 32578 32596 32599 32573 32538 32526 32502 32492 32521 32535 32610 32608 32648 32648 32614 32617 32562 32539 32498 32487 32455 32415 32388 32381 32370 32399 32446 32482 32500 32524 32563 32550 32565 32592 32651 32707 32729 32743 32757 32741 32747 32741 32760 32755 32775 32749 32747 32770 32756 32760 32740 32723 32693 32679 32667 32665 32626 32594 32585 32561 32563 32546 32564 32619 32688 32730 32778 32802 32925 32925 32955 32921 32899 32889 32891 32894 32933 32930 32921 32912 32918 32898 32882 32857 32835 32861 32852 32830 32841 32932 33020 33068 33164 33197 33250 33362 33420 33422 33453 33472 33481 33519 33524 33506 33535 33536 33545 33537 33523 33506 33489 33466 33440 33408 33405 33392 33394 33372 33366 33349 33342 33337 33351 33365 33390 33379 33381 33396 33396 33397 33460 33470 33479 33485 33511 33517 33523 33519 33503 33465 33422 33402 33363 33342 33310 33302 33279 33268 33241 33242 33239 33227 33240 33235 33224 33189 33147 33111 33081 33067 33067 33061 33085 33112 33082 33061 33041 32991 32961 32914 32869 32859 32871 32835 32801 32764 32743 32710 32694 32691 32678 32680 32668 32617 32605 32569 32535 32528 32548 32567 32585 32653 32701 32752 32745 32727 32684 32643 32625 32628 32612 32636 32643 32632 32625 32629 32581 32539 32507 32450 32439 32390 32384 32400 32409 32404 32405 32378 32407 32420 32389 32359 32347 32391 32447 32542 32592 32606 32634 32652 32672 32679 32671 32742 32764 32918 33178 33404 33608 33743 33804 33728 33694 33759 33836 33926 34005 34068 34057 34061 34054 34122 34115 34100 34102 34178 34230 34255 34332 34376 34417 34535 34968 35730 37085 38071 38912 39363 39683 39949 39942 39933 39917 40247 40385 40509 40615 40665 40677 40684 40820 40925 41053 41243 41387 41494 41502 41517 41542 41570 41596 41501 41355 41058 40854 40738 40650 40585 40506 40435 40385 40324 40271 40202 40148 40058 39982 39924 39849 39786 39690 39553 39405 39265 39133 38991 38867 38748 38616 38495 38374 38261 38208 38239 38341 38275 38165 37967 37844 37669 37511 37316 37161 37035 36887 36758 36654 36517 36428 36271 36071 35869 35716 35585 35508 35428 35353 35267 35204 35123 35056 34999 34959 34885 34773 34637 34529 34437 34389 34311 34272 34215 34158 34103 34053 34015 33966 33938 33864 33757 33670 33600 33549 33518 33473 33411 33385 33338 33313 33304 33284 33250 33232 33152 33058 33002 32981 32959 32998 32975 32990 32952 32938 32922 32938 32920 32911 32909 32882 32837 32784 32781 32755 32756 32821 32915 32971 33023 33015 33018 33006 32981 32954 32912 32956 33002 33064 33109 33115 33102 33090 33077 33102 33122 33203 33246 33257 33245 33271 33238 33378 33381 33442 33452 33427 33419 33437 33444 33443 33473 33444 33390 33410 33395 33393 33394 33371 33354 33329 33285 33279 33257 33249 33237 33198 33255 33304 33289 33306 33287 33281 33243 33229 33199 33190 33161 33127 33127 33086 33059 33028 33010 33007 32991 33000 32976 32980 32996 33006 33053 33068 33115 33131 33121 33125 33094 33073 33117 33150 33197 33241 33266 33275 33289 33366 33427 33471 33545 33611 33675 33758 33821 33870 33937 33986 34032 34098 34121 34147 34064 34039 34002 33974 33943 33942 33953 33980 33975 33999 33986 33974 33982 33978 33952 33925 33875 33886 33825 33809 33777 33742 33726 33722 33688 33682 33700 33719 33668 33692 33697 33724 33728 33726 33732 33731 33704 33674 33627 33612 33584 33574 33541 33510 33461 33413 33371 33340 33322 33316 33288 33289 33290 33304 33332 33354 33426 33471 33532 33527 33535 33571 33630 33686 33753 33758 33756 33765 33758 33755 33773 33787 33810 33818 33786 33742 33732 33734 33695 33643 33604 33570 33539 33542 33576 33582 33612 33621 33587 33556 33537 33507 33472 33419 33465 33506 33579 33662 33722 33829 33926 33972 34103 34183 34250 34307 34331 34344 34379 34405 34405 34437 34459 34487 34519 34578 34602 34631 34666 34649 34673 34750 34846 34858 34877 34858 34845 34825 34818 34807 34808 34788 34784 34760 34712 34681 34660 34636 34651 34659 34675 34667 34664 34634 34631 34631 34625 34621 34625 34626 34612 34644 34673 34662 34782 34852 34967 35070 35117 35154 35131 35103 35123 35226 35447 35754 35887 35989 36072 36183 36223 36153 36080 36064 36050 36007 36025 36319 37254 38256 38421 37894 37411 37230 37052 36962 36880 36827 36773 36734 36688 36659 36644 36591 36530 36448 36370 36324 36292 36225 36184 36119 36095 36040 35984 35933 35903 35851 35824 35799 35744 35681 35628 35574 35533 35482 35435 35402 35355 35294 35260 35209 35154 35113 35046 34986 34901 34829 34758 34724 34660 34615 34574 34551 34499 34471 34443 34407 34382 34367 34362 34311 34279 34247 34194 34146 34087 34065 34018 33981 33973 33955 33944 33949 33970 33951 33973 34022 33994 33952 33893 33848 33799 33763 33734 33711 33684 33656 33637 33610 33595 33588 33573 33588 33576 33570 33555 33534 33547 33535 33575 33620 33656 33714 33740 33770 33775 33785 33756 33743 33725 33688 33656 33610 33559 33514 33493 33526 33549 33536 33495 33478 33430 33368 33367 33334 33322 33285 33263 33244 33234 33218 33171 33141 33124 33119 33115 33117 33101 33113 33111 33135 33166 33171 33163 33185 33250 33310 33336 33384 33482 33545 33630 33662 33848 34080 34303 34598 35098 35340 35589 35829 35858 35939 35945 35954 35911 35842 35740 35677 35574 35457 35371 35284 35202 35127 35070 34990 34910 34831 34771 34733 34677 34632 34582 34549 34512 34475 34418 34353 34311 34283 34251 34200 34177 34127 34077 34058 34037 34029 34047 34019 34004 33989 33966 33929 33890 33852 33844 33844 33887 33898 33907 33916 33980 34031 34126 34176 34158 34118 34103 34129 34104 34128 34150 34168 34212 34197 34193 34139 34080 34056 34039 34024 33981 33956 33952 33941 33929 33949 33955 34017 33948 33881 33879 33931 34004 34057 34059 34105 34148 34265 34374 34499 34622 34687 34767 34821 34851 34856 34815 34759 34762 34757 34773 34840 35019 35159 35312 35424 35621 35789 35957 36089 36226 36275 36337 36472 36592 36699 36812 36899 36965 37021 37039 36964 37002 36880 36850 36774 36792 36750 36735 36801 36779 36839 36845 36862 36927 36919 36923 36924 36898 36868 36841 36755 36722 36725 36896 37230 37489 37445 37339 37232 37143 37058 36979 36927 36887 36943 36923 36889 36869 36835 36818 36791 36780 36789 36802 36786 36784 36758 36751 36731 36732 36737 36693 36637 36588 36541 36469 36437 36385 36366 36315 36291 36213 36176 36135 36085 36055 36024 35980 35956 35929 35870 35849 35840 35815 35810 35871 35928 35988 36008 36004 36036 36018 36031 36043 36095 36199 36422 36998 38142 38923 39146 39258 39256 39398 39716 39833 40023 40108 40440 40622 40611 40584 40689 40885 41226 41483 41696 41778 41802 41868 41895 41900 41910 41932 42045 42142 42262 42433 42518 42564 42572 42519 42514 42561 42608 42662 42692 42703 42704 42686 42704 42725 42696 42709 42721 42721 42726 42734 42782 42802 42775 42753 42724 42692 42627 42607 42639 42721 42781 42797 42718 42654 42640 42649 42691 42675 42679 42668 42704 42761 42798 42817 42837 42846 42820 42794 42797 42779 42760 42814 42834 42832 42875 42981 43008 43068 43223 43400 43579 43764 43822 43744 43589 43513 43374 43326 43258 43190 43102 43106 43074 42863 42680 42476 42329 42270 42204 42107 42020 41924 41812 41762 41712 41650 41552 41358 41078 40767 40400 40014 39649 39351 39152 39006 38907 38790 38646 38515 38400 38237 37999 37779 37582 37409 37227 37090 37022 36933 36846 36756 36742 36789 36857 37085 37172 37188 37251 37242 37268 37285 37345 37320 37336 37358 37416 37465 37543 37607 37689 37560 37494 37450 37518 37570 37668 37710 37792 37886 37982 38045 38121 38194 38264 38303 38192 38074 38051 38089 38067 38062 38118 38175 38220 38152 38094 38237 38276 38149 37977 37840 37767 37754 37735 37745 37742 37729 37721 37753 37827 37856 37760 37682 37576 37473 37381 37377 37387 37545 37780 38106 38228 38193 38128 37997 37915 37858 37759 37667 37798 38481 39099 39330 39415 39558 39683 39881 40120 40259 40426 40503 40585 40609 40598 40635 40756 40959 41223 41473 41635 41721 41673 41604 41554 41477 41451 41456 41368 41273 41186 41110 41048 40958 40892 40852 40737 40607 40516 40476 40417 40388 40366 40318 40193 40090 39970 39903 39814 39735 39669 39566 39496 39412 39346 39293 39286 39261 39249 39194 39099 38951 38609 38342 38013 37704 37419 37180 36973 36791 36603 36386 36203 36012 35779 35537 35255 34982 34754 34568 34400 34261 34173 34102 34079 34039 33972 33885 33683 33473 33243 33207 33252 33240 33293 33305 33359 33395 33301 33194 33101 33114 33214 33320 33466 33526 33605 33718 33824 33970 34067 34444 35292 35540 36043 36541 36749 36753 36782 36752 36618 36435 36229 36112 35987 35851 35860 35796 35774 35755 35765 35832 35679 35680 35698 35669 35612 35508 35319 35286 35293 35225 35140 35056 35036 35015 34979 34917 34879 34829 34701 34545 34420 34364 34525 34572 34802 34989 35254 35676 36249 36841 37733 38163 38455 38675 38971 39273 39382 39506 39652 39699 39807 39756 39639 39489 39508 39573 39559 39499 39479 39292 39158 39058 38939 38883 38810 38733 38664 38577 38487 38383 38286 38201 38096 37991 37941 37885 38119 38334 38838 39204 39546 39693 39723 39728 39876 40037 40157 40226 40315 40401 40420 40341 40581 40530 40476 40386 40235 40039 40158 40060 40042 39915 39899 39824 39741 39559 39422 39314 39222 39114 39053 38946 38872 38762 38634 38462 38303 38145 38005 37958 37918 38190 38487 38717 38901 39100 39058 38936 38856 38887 38844 38702 38529 38244 37919 37675 37493 37343 37157 36945 36683 36436 36212 36028 35860 35690 35567 35640 36383 37103 37417 37577 37657 37667 37634 37629 37613 37555 37493 37346 37124 36937 36783 36517 36422 36365 36203 35948 35725 35508 35363 35220 35076 34937 34863 34812 34685 34619 34518 34566 34480 34385 34272 34203 34124 34103 34090 34045 34111 34089 34058 34031 34126 34167 34105 34096 34039 33978 33987 33986 33959 34017 34065 34065 34050 34096 34136 34208 34196 34109 34060 34035 34007 33996 33996 33986 33986 33996 33957 33986 33980 33972 33953 33915 33803 33692 33599 33511 33473 33397 33366 33353 33336 33360 33372 33431 33446 33469 33369 33385 33332 33252 33256 33267 33312 33255 33249 33312 33344 33383 33388 33404 33399 33329 33278 33295 33261 33273 33230 33233 33148 33180 33181 33184 33228 33201 33193 33137 33109 33109 33101 33115 33153 33179 33234 33253 33284 33263 33299 33296 33317 33269 33244 33204 33200 33189 33182 33144 33114 33129 33086 33074 33052 33111 33189 33209 33249 33242 33251 33228 33199 33191 33188 33176 33205 33265 33308 33306 33302 33258 33178 33119 33078 33021 32988 32909 32897 32859 32822 32819 32814 32788 32765 32763 32710 32645 32592 32570 32522 32524 32522 32563 32526 32500 32435 32353 32315 32330 32329 32322 32309 32321 32332 32386 32426 32505 32543 32623 32687 32780 32835 32939 32954 32985 32958 32982 32977 32982 32985 33037 33068 33101 33141 33212 33255 33282 33297 33279 33241 33208 33189 33179 33217 33255 33253 33275 33274 33304 33306 33336 33353 33373 33369 33344 33326 33311 33281 33313 33308 33284 33268 33270 33309 33331 33293 33274 33259 33273 33250 33181 33126 33109 33074 33117 33095 33113 33089 33085 33111 33120 33127 33171 33152 33185 33163 33161 33165 33172 33233 33281 33296 33337 33401 33442 33513 33554 33616 33659 33681 33664 33712 33731 33745 33733 33711 33711 33691 33659 33639 33622 33623 33583 33601 33599 33563 33586 33587 33556 33543 33492 33467 33446 33471 33502 33595 33672 33764 33850 33942 34009 34039 33995 33920 33859 33809 33753 33721 33648 33610 33625 33635 33650 33657 33655 33635 33634 33619 33615 33634 33710 33744 33829 33827 33897 33949 33929 33945 33950 33924 33908 33869 33868 33844 33878 33888 33866 33927 33900 33961 33944 33981 33977 34042 34094 34061 34100 34094 34102 34083 34041 34043 34024 33985 34071 34077 34100 34081 34088 34054 34024 34034 34058 34054 34089 34054 34010 33996 33979 33978 34008 34044 34077 34098 34118 34164 34110 34187 34183 34217 34189 34205 34211 34182 34207 34236 34256 34239 34191 34160 34104 34266 34367 34366 34412 34385 34366 34350 34369 34361 34387 34416 34411 34364 34376 34336 34313 34274 34253 34262 34281 34302 34329 34338 34311 34386 34443 34452 34491 34642 34896 35108 35117 35090 35048 34964 34887 34849 34788 34724 34690 34718 34676 34974 35025 35245 35374 35433 35734 36112 36509 36743 36703 36639 36519 36419 36286 36163 36044 35956 35840 35757 35721 35619 35566 35489 35424 35373 35297 35276 35174 35049 34929 34831 34753 34690 34650 34604 34558 34498 34484 34556 34581 34600 34657 34634 34524 34489 34521 34516 34493 34481 34437 34401 34323 34270 34259 34241 34152 34124 34082 34143 34135 34103 34062 34017 34120 34115 34256 34284 34315 34282 34285 34304 34242 34139 34073 34045 34130 34102 34087 34022 34001 33945 33919 34014 34071 34171 34168 34160 34130 34081 34006 33933 33982 33951 33974 33914 33846 33801 33775 33867 33853 33865 33816 33806 33895 33962 34020 33982 33981 33952 33946 33940 33993 34026 34028 34051 33992 34026 34009 34031 34219 34250 34272 34300 34293 34371 34365 34347 34366 34327 34282 34249 34209 34186 34147 34172 34158 34147 34166 34161 34153 34188 34186 34213 34234 34209 34188 34118 34146 34143 34109 34140 34195 34190 34222 34276 34312 34290 34279 34272 34203 34172 34201 34173 34177 34173 34217 34245 34243 34264 34301 34272 34306 34272 34235 34233 34198 34197 34170 34210 34218 34232 34279 34317 34385 34363 34373 34363 34318 34268 34231 34189 34228 34200 34160 34176 34148 34166 34136 34156 34152 34203 34202 34191 34196 34173 34131 34141 34131 34093 34095 34040 34030 34026 34011 33966 33962 33966 33972 33931 33890 33861 33870 33929 33998 34055 34147 34154 34125 34096 34021 33962 33933 33915 33881 33791 33700 33655 33585 33516 33463 33424 33467 33569 33649 33796 33859 33961 33974 33938 33981 34021 34057 34310 34390 34506 34609 34605 34696 34706 34819 34921 34878 34783 34732 34698 34845 34871 34902 34976 35061 35111 35150 35136 35111 35081 34998 34927 34972 34898 34858 34931 34920 34952 35065 35068 35108 35146 35131 35221 35263 35314 35365 35340 35332 35267 35221 35250 35224 35284 35340 35315 35381 35405 35579 35868 36986 37716 38031 38162 38317 38376 38444 38423 38391 38342 38294 38241 38321 38457 38770 39046 39363 39554 39808 39943 40272 40449 40602 40832 40931 40965 41185 41541 41628 41649 41761 41778 41803 41739 41787 41939 42078 42290 42454 42561 42550 42563 42549 42449 42341 42304 42232 42201 42168 42116 42014 41905 41765 41649 41499 41403 41273 41126 40996 40858 40745 40611 40485 40389 40282 40156 40040 39922 39805 39682 39551 39365 39142 38930 38698 38519 38395 38268 38141 38051 37915 37816 37728 37622 37552 37500 37387 37189 37019 36894 36813 36908 37083 37238 37320 37366 37413 37451 37399 37277 37167 37114 37134 37346 37616 37801 37808 37704 37576 37457 37401 37408 37398 37342 37191 36995 36813 36633 36516 36435 36368 36323 36324 36255 36133 35966 35871 35781 35674 35536 35389 35236 35054 34855 34674 34570 34510 34474 34414 34383 34348 34346 34378 34408 34516 35138 36581 37124 37449 37759 37978 38339 38588 38789 39006 39053 39065 39149 38899 38937 38978 38876 38860 38870 38880 38814 38790 38901 39188 39322 39398 39547 39684 39756 39820 39901 39935 39899 39807 39652 39467 39313 39183 39087 38964 38891 38875 38756 38550 38333 38115 37886 37688 37528 37358 37186 36999 36800 36664 36553 36455 36267 36010 35785 35601 35471 35389 35307 35256 35198 35116 35019 34962 34910 34892 34823 34718 34494 34288 34197 34179 34210 34315 34411 34495 34590 34656 34787 34927 35029 35055 35023 34969 34936 34935 34965 34984 34995 34963 34933 34886 34873 34864 34839 34896 34766 34821 34780 34747 34779 34817 34799 34801 34816 34810 34817 34879 34968 35075 35012 34935 34853 34810 34765 34748 34748 34800 34880 34919 34956 35051 35049 35124 35098 35033 34998 34950 34956 34945 34928 34946 34942 34888 34835 34801 34803 34816 34836 34829 34818 34804 34784 34785 34849 34870 34932 34963 34981 35056 35066 35061 35109 35107 35068 35092 35086 35101 35122 35125 35142 35166 35192 35235 35247 35256 35308 35301 35292 35298 35273 35273 35262 35280 35223 35202 35173 35132 35120 35094 35086 35051 35019 34944 34902 34866 34818 34786 34768 34738 34748 34760 34754 34836 34885 34907 34939 34895 34949 34936 34916 34967 35007 35006 35090 35058 35030 35030 35017 35031 35048 35048 35058 35087 35093 35122 35138 35182 35215 35275 35306 35363 35379 35448 35520 35532 35487 35394 35345 35292 35265 35286 35372 35506 35701 35947 36339 36707 36767 37251 38131 38987 39169 39391 39503 39722 39948 40098 40355 40677 40995 41167 41184 41000 40776 40669 40605 40573 40506 40520 40587 40594 40527 40392 40264 40143 40059 39945 39839 39739 39613 39514 39430 39344 39265 39179 39096 38980 38922 38822 38768 38664 38513 38316 38161 38030 37902 37783 37686 37596 37494 37398 37332 37267 37223 37173 37106 36945 36827 36712 36628 36593 36534 36507 36461 36453 36431 36403 36387 36380 36327 36223 36102 35973 35888 35825 35866 35925 35930 35946 35939 35930 35977 35994 36032 36012 35921 35815 35757 35769 35757 35731 35757 35731 35736 35720 35742 35777 35815 35851 35882 35844 35792 35774 35757 35761 35770 35799 35789 35809 35846 35881 35923 35959 35954 35966 35886 35837 35813 35789 35795 35805 35792 35803 35818 35838 35877 35895 35917 35918 35920 35839 35841 35825 35802 35828 35797 35775 35807 35810 35845 35921 35949 36034 36100 36103 36105 36115 36119 36139 36203 36267 36305 36328 36330 36350 36389 36362 36484 36636 36647 36566 36511 36483 36453 36416 36393 36378 36336 36364 36398 36445 36429 36466 36493 36483 36475 36428 36363 36394 36422 36414 36435 36468 36467 36500 36518 36537 36571 36553 36509 36462 36423 36444 36547 36700 36978 37212 37423 37701 38164 38852 39687 40327 40672 40736 40802 40731 40813 40895 40961 40940 40893 40837 40828 40832 40809 40783 40694 40512 40255 40033 39854 39698 39532 39403 39299 39188 39111 38995 38919 38805 38688 38580 38435 38202 37996 37779 37615 37452 37323 37181 37053 36944 36833 36709 36631 36574 36500 36451 36298 36146 36013 35923 35895 35875 35876 35890 36042 36340 36598 36737 36722 36634 36512 36365 36259 36339 36768 37681 38169 38484 38527 38406 38373 38548 38725 38839 38913 38936 38886 38900 38998 39170 39328 39471 39581 39691 39751 39720 39615 39488 39413 39353 39286 39210 39160 39181 39234 39376 39521 39595 39593 39350 39037 38821 38669 38578 38526 38462 38329 38157 38025 37901 37779 37671 37588 37491 37378 37267 37171 37070 37001 36932 36810 36622 36460 36319 36168 36032 35950 35857 35780 35718 35662 35607 35599 35577 35561 35477 35373 35279 35281 35217 35153 35114 35087 35043 35088 35074 35121 35148 35146 35208 35166 35134 35108 35068 35066 35069 35073 35087 35087 35072 35059 35085 35082 35097 35119 35116 35057 34938 34894 34853 34897 34844 34927 34918 34958 35012 35028 35057 35125 35154 35192 35136 35045 34935 34853 34849 34841 34953 35096 35389 35745 36284 37135 38049 38683 39162 39295 39439 39485 39487 39514 39484 39390 39421 39422 39368 39303 39301 39300 39282 39310 39365 39403 39359 39353 39304 39249 39192 39146 39089 39057 38996 38900 38845 38786 38752 38707 38683 38666 38692 38702 38641 38581 38553 38578 38867 39047 39073 39050 38847 38642 38527 38430 38366 38324 38259 38181 38086 37991 37878 37783 37701 37636 37568 37544 37529 37517 37581 37565 37507 37447 37370 37242 37101 36967 36847 36751 36637 36561 36494 36402 36329 36297 36250 36180 36178 36151 36097 36007 35880 35790 35712 35674 35625 35616 35569 35613 35556 35638 35690 35681 35618 35811 35830 35784 35752 35795 35916 36177 36945 37572 38315 38961 39208 39408 39440 39364 39325 39238 38876 38385 37913 37564 37288 37055 36808 36600 36399 36204 36010 35862 35713 35542 35373 35111 34836 34594 34393 34232 34085 33965 33866 33802 33723 33654 33630 33621 33615 33596 33514 33385 33294 33250 33212 33181 33187 33253 33279 33354 33416 33403 33446 33606 33681 33859 34046 34285 34620 34953 34969 35024 34945 34905 34985 34964 34970 34892 34845 34763 34681 34493 34315 34181 34126 34134 34157 34114 34089 34106 34094 34032 33950 33910 33907 33888 33868 33770 33796 33885 34258 34965 36052 36614 37129 37570 37923 38168 38430 38584 38775 38872 38866 38808 38751 38710 38654 38587 38535 38409 38329 38210 38114 37994 37917 37870 37795 37684 37569 37470 37335 37259 37153 37071 37230 38039 38634 39058 39368 39625 39785 39713 39591 39678 39854 39941 40035 40123 40211 40177 40019 39852 39727 39649 39641 39595 39511 39423 39306 39194 39032 38887 38780 38627 38496 38344 38083 37871 37706 37446 37091 36753 36408 36133 35859 35669 35511 35341 35143 35000 34831 34719 34582 34481 34393 34300 34131 33971 33841 33715 33697 33711 33747 33776 33796 33698 33573 33514 33464 33396 33280 33223 33253 33320 33379 33548 33628 33679 33678 33679 33721 33804 34007 34272 34429 34359 34180 34044 33987 33952 33952 33924 33905 33880 33856 33868 33894 33923 33961 33988 33964 33918 33898 33877 33917 34055 34181 34375 34509 34648 34774 34934 35088 35184 35148 35053 34975 34925 34919 34926 34952 34924 34873 34902 34926 34953 34978 35008 35034 35058 35041 35027 35052 35143 35245 35339 35374 35435 35481 35584 35645 35679 35730 35796 35879 35972 36061 36092 36112 36130 36159 36233 36250 36273 36288 36299 36319 36362 36407 36417 36385 36325 36221 36205 36192 36137 36112 36079 36055 36124 36357 37012 37980 38723 39154 39770 40014 40219 40477 40751 40894 40969 40859 40706 40519 40340 40227 40274 40566 40744 40831 40882 40864 40857 40860 40888 40931 41040 41088 41179 41187 41151 41160 41105 41057 41056 41002 40910 40866 40822 40721 40435 40078 39867 39714 39546 39425 39335 39308 39416 39566 39623 39674 39809 39921 40035 40172 40323 40405 40485 40579 40730 40877 40976 41206 41438 41517 41559 41483 41232 40957 40709 40552 40474 40377 40332 40256 39932 39546 39278 39185 39048 38790 38494 38188 37914 37639 37368 37097 36825 36544 36323 36146 35971 35827 35661 35396 35078 34834 34614 34423 34337 34239 34133 34007 33934 33816 33833 33810 33784 33752 33602 33671 33576 33722 33742 33716 33728 33715 33697 33657 33677 33689 33711 33776 33791 33726 33652 33638 33712 33784 33850 33910 33966 33993 34046 34113 34152 34190 34201 34108 33911 33769 33646 33561 33562 33608 33698 33757 33752 33698 33671 33575 33565 33687 33837 33778 33653 33578 33467 33424 33373 33330 33336 33412 33481 33499 33513 33514 33541 33574 33587 33535 33505 33475 33422 33346 33313 33302 33349 33397 33473 33535 33573 33606 33653 33642 33577 33496 33475 33508 33534 33557 33573 33516 33512 33469 33481 33494 33471 33495 33482 33426 33410 33373 33377 33395 33415 33487 33532 33600 33652 33720 33777 33847 33906 33995 34041 34078 34072 34071 34047 34107 34091 34164 34143 34175 34184 34178 34150 34130 34155 34184 34230 34259 34238 34306 34326 34299 34323 34293 34291 34276 34204 34130 34069 34060 33986 33949 33878 33824 33759 33750 33729 33693 33767 33745 33708 33759 33930 34070 34374 34531 34587 34638 34623 34541 34527 34550 34542 34602 34587 34534 34507 34481 34458 34436 34406 34385 34418 34408 34356 34255 34205 34167 34152 34123 34045 33989 33905 33867 33845 33862 33910 33914 33876 33848 33801 33744 33680 33655 33626 33645 33662 33666 33696 33721 33721 33749 33755 33792 33864 33925 33960 33999 34004 34037 34052 34080 34087 34085 34066 34040 34013 33998 33983 33996 33985 33961 33891 33819 33758 33740 33706 33710 33713 33685 33665 33637 33619 33551 33549 33557 33570 33601 33582 33535 33503 33450 33453 33419 33401 33352 33365 33404 33396 33401 33425 33394 33419 33413 33375 33428 33418 33436 33473 33476 33625 33733 33917 34044 34124 34206 34278 34346 34432 34376 34454 34400 34382 34402 34423 34475 34426 34390 34363 34360 34425 34459 34474 34483 34444 34382 34293 34255 34227 34199 34172 34167 34171 34161 34159 34210 34186 34187 34199 34172 34073 34184 34211 34370 34457 34411 34466 34498 34518 34478 34514 34465 34526 34502 34425 34365 34313 34254 34201 34196 34190 34171 34147 34116 34106 34113 34166 34137 34154 34110 34025 34010 34039 34085 34133 34182 34185 34225 34198 34168 34186 34206 34210 34272 34278 34271 34277 34266 34271 34285 34285 34270 34246 34250 34239 34218 34232 34306 34406 34421 34424 34463 34543 34683 34865 35011 35135 35268 35279 35267 35252 35271 35376 35450 35509 35517 35506 35466 35451 35437 35510 35536 35688 35874 36126 36367 36567 36638 36604 36576 36582 36526 36391 36338 36281 36254 36229 36277 36387 36504 36682 36926 37255 38018 38598 38449 38376 38373 38433 38531 38619 38700 38773 38776 38770 38751 38678 38690 38656 38541 38396 38270 38279 38673 38774 38881 38996 38901 38640 38386 38181 37982 37795 37615 37475 37291 37154 36956 36710 36445 36170 35982 35789 35600 35490 35355 35239 35145 35032 34978 34943 34934 34925 34896 34800 34691 34604 34592 34567 34527 34511 34456 34447 34440 34456 34492 34482 34522 34527 34468 34371 34297 34202 34144 34156 34164 34187 34187 34163 34157 34118 34084 34095 34120 34130 34200 34312 34446 34381 34417 34712 35358 35590 35788 35998 36109 36147 36112 36082 36143 36145 36196 36136 35899 35695 35505 35290 35071 34869 34704 34585 34505 34500 34494 34500 34472 34489 34499 34507 34483 34493 34490 34433 34412 34402 34395 34430 34444 34498 34530 34541 34526 34575 34578 34553 34487 34414 34404 34378 34364 34367 34383 34409 34430 34440 34401 34409 34459 34561 34664 34692 34674 34630 34703 34728 34905 35119 35354 35448 35372 35314 35367 35437 35512 35417 35396 35217 35122 34951 34882 34838 34861 34792 35035 35099 35113 35135 35142 35100 35081 35125 35103 35094 35003 34983 34925 34896 34864 34870 34882 34851 34875 34869 34886 34910 34936 