20283 20275 20294 20307 20337 20343 20360 20372 20401 19410 19438 19467 19485 19490 19478 19300 19119 18950 18819 18699 18599 18508 18452 18360 18269 18186 18099 18030 17963 17896 17834 17754 17686 17568 17417 17289 17180 17090 17007 16920 16811 16726 16643 16573 16511 16456 16396 16340 16298 16229 16117 16017 15931 15869 15834 15778 15713 15663 15600 15554 15517 15487 15457 15429 15400 15368 15293 15225 15156 15111 15087 15074 15025 14999 14955 14928 14914 14889 14890 14868 14854 14851 14797 14743 14681 14657 14640 14622 14598 14558 14520 14493 14469 14446 14428 14408 14383 14367 14349 14287 14257 14211 14202 14174 14167 14147 14133 14108 14101 14090 14096 14088 14092 14096 14085 14069 14039 13992 13999 14015 14013 14018 14007 14009 13996 14010 14055 14131 14216 14372 14566 14867 15156 15325 15551 15751 15957 16050 16147 16252 16303 16188 16045 15923 15848 15767 15739 15719 15699 15664 15610 15577 15566 15559 15542 15520 15499 15488 15473 15484 15494 15496 15486 15493 15479 15455 15420 15388 15369 15360 15349 15336 15310 15296 15302 15287 15291 15287 15296 15297 15323 15351 15427 15531 15649 15905 16194 16402 16681 16729 16957 17155 17262 17250 17122 16975 16860 16803 16737 16680 16683 16716 16751 16794 16880 16924 16912 16852 16798 16723 16654 16590 16535 16514 16563 16624 16694 16767 16842 16921 16998 17060 17108 17127 17153 17144 17124 17102 17064 17020 16974 16925 16842 16774 16707 16674 16659 16666 16648 16656 16656 16651 16658 16657 16633 16625 16594 16565 16543 16528 16493 16473 16470 16486 16491 16474 16451 16417 16399 16349 16306 16269 16219 16193 16145 16071 15977 15895 15823 15783 15763 15768 15764 15754 15742 15712 15675 15615 15561 15510 15439 15381 15278 15176 15088 15042 15009 14996 14990 15019 15051 15065 15037 15025 15018 14989 14974 14977 14958 14904 14837 14776 14702 14643 14586 14511 14465 14419 14361 14335 14308 14276 14240 14219 14209 14194 14140 14061 13996 13949 13912 13868 13833 13786 13745 13709 13667 13652 13622 13604 13614 13643 13661 13668 13668 13671 13688 13687 13701 13686 13671 13676 13714 13787 13846 13877 13900 13908 13920 13929 13928 13909 13888 13872 13849 13829 13801 13784 13752 13734 13726 13719 13750 13791 13825 13858 13870 13862 13839 13836 13806 13764 13743 13709 13675 13664 13696 13711 13703 13712 13742 13791 13853 13943 14028 14089 14141 14197 14279 14373 14474 14565 14644 14732 14814 14875 14929 15014 15121 15355 15543 15581 15591 15624 15666 15702 15732 15775 15814 15852 15889 15917 15959 15992 16031 16050 16086 16124 16133 16144 16152 16170 16185 16222 16245 16263 16296 16447 16595 16655 16751 16808 16835 16862 16890 16921 16931 16930 16937 16945 16959 16971 16997 17004 17030 17060 17074 17090 17106 17111 17117 17129 17131 17134 17104 17080 17068 17032 17026 17022 17006 16993 16985 16970 16957 16945 16924 16909 16878 16854 16812 16739 16674 16623 16590 16571 16518 16480 16439 16386 16361 16329 16303 16275 16242 16233 16174 16126 16030 15982 15966 15970 15994 16005 16016 16049 16102 16146 16173 16180 16166 16138 16093 16060 15970 15899 15851 15817 15793 15797 15808 15852 15916 15995 16093 16178 16266 16361 16522 16665 16714 16693 16669 16667 16681 16708 16737 16770 16822 16860 16874 16886 16906 16931 16924 16915 16864 16801 16697 16549 16427 16345 16302 16262 16239 16209 16161 16104 16049 15993 15969 15924 15895 15857 15819 15770 15703 15662 15622 15614 15596 15600 15586 15588 15549 15525 15475 15442 15402 15335 15304 15242 15178 15098 15037 14986 14930 14878 14827 14772 14727 14724 14784 14825 14863 14914 14972 15042 15097 15132 15148 15173 15222 15288 15367 15398 15421 15444 15457 15461 15473 15445 15390 15343 15274 15179 15074 14952 14850 14765 14715 14676 14649 14629 14632 14665 14734 14865 15042 15212 15350 15379 15326 15260 15227 15193 15181 15213 15287 15350 15406 15445 15493 15553 15613 15709 15786 15767 15724 15630 15526 15414 15322 15249 15172 15117 15063 15018 14978 14934 14905 14881 14850 14838 14823 14797 14769 14808 14863 14923 15014 15076 15149 15186 15203 15213 15200 15180 15169 15152 15104 15068 15053 15031 14970 14942 14922 14870 14845 14809 14805 14838 14982 15125 15269 15382 15430 15425 15394 15387 15380 15427 15479 15505 15546 15543 15562 15577 15619 15662 15741 15811 15852 15857 15865 15887 15924 15946 15944 15946 15938 15910 15863 15793 15752 15696 15652 15615 15590 15564 15514 15466 15421 15337 15268 15238 15199 15190 15212 15212 15188 15147 15112 15055 15016 14973 14940 14916 14902 14915 14935 14920 14935 14940 14949 14957 14989 15027 15078 15114 15127 15126 15097 15085 15085 15113 15182 15276 15391 15481 15576 15689 15775 15817 15835 15851 15874 15863 15829 15766 15712 15667 15640 15629 15629 15611 15622 15606 15603 15604 15583 15582 15575 15566 15540 15493 15470 15446 15438 15428 15452 15470 15470 15461 15473 15461 15474 15480 15533 15570 15611 15635 15638 15625 15611 15606 15617 15618 15624 15608 15627 15616 15626 15611 15628 15630 15605 15579 15550 15501 15473 15434 15415 15378 15360 15317 15294 15278 15247 15229 15217 15199 15176 15149 15113 15075 15044 15033 15030 15008 14973 14980 14956 14953 14944 14961 15006 15024 15052 15091 15127 15154 15187 15228 15273 15277 15282 15278 15289 15314 15296 15300 15290 15288 15294 15313 15341 15323 15323 15327 15303 15314 15326 15341 15335 15331 15332 15319 15291 15288 15279 15253 15239 15188 15155 15116 15097 15082 15067 15025 15017 15009 15010 15006 14983 14972 14958 14958 14970 14986 14998 15009 15014 15039 15036 15052 15100 15174 15268 15341 15356 15347 15363 15371 15381 15398 15392 15362 15347 15321 15318 15328 15334 15344 15390 15388 15405 15396 15394 15409 15427 15444 15432 15407 15374 15340 15294 15256 15234 15210 15181 15156 15139 15127 15114 15132 15142 15158 15169 15183 15171 15193 15213 15238 15269 15309 15354 15421 15574 15676 15732 15785 15804 15832 15840 15842 15817 15806 15781 15761 15740 15719 15709 15694 15691 15663 15639 15628 15610 15602 15574 15569 15527 15487 15453 15425 15419 15413 15399 15425 15431 15436 15450 15462 15481 15491 15495 15504 15505 15506 15505 15530 15546 15590 15605 15648 15689 15727 15773 15813 15849 15876 15893 15911 15896 15877 15854 15817 15814 15814 15797 15790 15757 15752 15737 15724 15725 15736 15741 15739 15718 15697 15682 15670 15673 15706 15751 15800 15845 15908 15968 16026 16082 16129 16161 16174 16150 16128 16138 16147 16157 16191 16200 16211 16215 16231 16244 16262 16266 16254 16255 16247 16195 16172 16131 16112 16110 16091 16079 16085 16071 16063 16049 16049 16020 16005 15998 15988 15975 15965 15946 15958 15990 16016 16044 16063 16101 16114 16134 16121 16125 16145 16165 16152 16183 16222 16263 16327 16352 16330 16367 16362 16361 16330 16288 16256 16216 16171 16113 16032 15935 15868 15809 15745 15715 15685 15658 15639 15604 15602 15579 15554 15537 15510 15470 15396 15347 15302 15289 15275 15271 15278 15286 15285 15299 15299 15306 15333 15367 15436 15462 15477 15506 15553 15586 15630 15656 15650 15643 15624 15595 15575 15562 15540 15497 15477 15415 15366 15311 15275 15267 15257 15243 15227 15223 15226 15229 15228 15243 15319 15398 15476 15553 15622 15658 15700 15753 15821 15873 15919 15932 15952 15984 15986 15997 16016 16044 16059 16056 16055 16051 16054 16048 16039 16034 16040 16006 15990 15970 15949 15928 15907 15921 15874 15860 15813 15776 15760 15751 15741 15731 15710 15692 15700 15721 15726 15734 15766 15796 15818 15819 15800 15794 15815 15827 15841 15874 15887 15902 15915 15947 15981 16029 16052 16085 16101 16099 16101 16086 16092 16102 16112 16115 16106 16110 16076 16053 16042 16027 15992 15957 15959 15920 15842 15797 15745 15721 15684 15669 15665 15641 15626 15615 15600 15631 15628 15658 15687 15737 15799 15860 15893 15912 15936 15970 16015 16049 16079 16107 16091 16102 16112 16154 16182 16181 16162 16146 16150 16135 16108 16064 16020 15980 15938 15891 15842 15788 15746 15712 15707 15687 15668 15621 15564 15525 15493 15473 15472 15449 15444 15435 15417 15420 15428 15440 15450 15452 15482 15477 15453 15466 15477 15498 15492 15470 15466 15466 15473 15505 15521 15543 15577 15615 15617 15618 15570 15520 15475 15441 15423 15398 15371 15355 15303 15270 15232 15197 15195 15154 15168 15147 15147 15125 15082 15100 15097 15141 15211 15257 15307 15376 15437 15500 15557 15593 15629 15668 15683 15714 15699 15716 15677 15656 15668 15663 15675 15676 15675 15665 15647 15636 15622 15608 15610 15605 15579 15540 15470 15464 15448 15423 15372 15344 15319 15290 15247 15220 15202 15192 15165 15169 15156 15152 15123 15124 15158 15207 15286 15337 15373 15416 15450 15484 15531 15582 15607 15667 15697 15744 15766 15793 15815 15785 15773 15771 15770 15749 15720 15679 15641 15597 15570 15538 15523 15505 15494 15415 15359 15297 15260 15224 15196 15184 15196 15180 15167 15161 15190 15219 15293 15355 15417 15457 15475 15481 15497 15503 15510 15528 15528 15535 15519 15519 15528 15535 15541 15568 15588 15599 15571 15528 15476 15446 15412 15387 15375 15329 15325 15295 15268 15271 15255 15213 15173 15155 15136 15077 15050 14991 14955 14930 14921 14910 14918 14926 14952 15000 15042 15081 15130 15188 15190 15206 15219 15223 15200 15186 15183 15199 15195 15194 15218 15219 15262 15268 15285 15287 15308 15300 15257 15212 15141 15076 15037 15005 14976 14930 14900 14867 14842 14798 14769 14781 14780 14787 14807 14809 14754 14712 14700 14735 14817 14903 14949 14966 14999 15002 15048 15119 15205 15254 15280 15341 15376 15397 15391 15370 15362 15361 15360 15351 15342 15312 15275 15248 15229 15205 15185 15164 15147 15120 15070 15023 14955 14910 14858 14833 14821 14806 14787 14772 14777 14778 14794 14795 14799 14797 14782 14761 14735 14737 14775 14828 14925 15010 15124 15239 15360 15442 15520 15582 15644 15652 15670 15695 15667 15637 15595 15555 15523 15511 15493 15461 15446 15425 15388 15362 15326 15308 15322 15347 15377 15366 15332 15284 15242 15182 15137 15101 15086 15069 15088 15150 15239 15331 15363 15369 15365 15346 15294 15256 15232 15206 15197 15210 15210 15211 15221 15224 15225 15202 15166 15157 15181 15170 15128 15076 15031 14986 14942 14912 14885 14866 14842 14808 14785 14770 14740 14721 14699 14708 14685 14642 14572 14527 14500 14535 14521 14535 14529 14535 14544 14566 14611 14651 14668 14681 14703 14703 14690 14682 14680 14673 14678 14683 14659 14646 14640 14643 14653 14679 14698 14729 14731 14753 14722 14708 14658 14667 14666 14643 14638 14615 14614 14586 14603 14598 14589 14581 14584 14622 14701 14816 14969 15128 15261 15367 15477 15518 15576 15638 15675 15678 15690 15699 15681 15672 15662 15634 15611 15565 15544 15533 15544 15540 15537 15542 15523 15543 15545 15573 15601 15612 15637 15655 15625 15606 15585 15561 15559 15542 15536 15526 15499 15472 15440 15421 15379 15349 15341 15314 15280 15250 15227 15224 15224 15242 15266 15246 15253 15277 15305 15312 15340 15358 15389 15437 15429 15400 15362 15331 15316 15316 15334 15332 15325 15323 15311 15317 15315 15318 15315 15332 15329 15325 15308 15266 15256 15247 15254 15254 15254 15255 15270 15272 15286 15289 15294 15309 15295 15251 15186 15140 15108 15085 15060 15068 15062 15056 15060 15055 15062 15075 15072 15082 15119 15140 15144 15136 15137 15155 15187 15244 15272 15311 15328 15345 15380 15406 15440 15447 15455 15456 15405 15362 15316 15284 15254 15240 15207 15166 15153 15129 15097 15087 15079 15075 15072 15059 15042 15007 14975 14941 14954 14927 14953 14969 14986 14979 15010 15030 15053 15085 15085 15107 15095 15075 15087 15106 15137 15180 15211 15261 15329 15406 15456 15480 15509 15512 15497 15497 15489 15452 15431 15380 15330 15308 15280 15254 15254 15239 15219 15228 15230 15222 15227 15223 15225 15223 15226 15272 15353 15444 15533 15632 15696 15781 15859 15899 15964 16001 16036 16061 16055 16029 16005 15974 15962 15961 15954 15937 15917 15891 15881 15852 15834 15822 15807 15780 15748 15695 15633 15569 15519 15497 15479 15452 15444 15430 15416 15408 15412 15434 15465 15526 15595 15654 15708 15741 15788 15849 15895 15965 15993 16022 16034 16027 16025 16033 16045 16044 16041 16025 15976 15922 15857 15815 15782 15736 15678 15647 15589 15544 15526 15500 15446 15368 15333 15259 15187 15139 15079 15062 15075 15078 15099 15091 15098 15117 15139 15198 15243 15313 15378 15384 15391 15392 15413 15448 15483 15529 15548 15558 15536 15519 15499 15499 15500 15487 15469 15434 15354 15265 15194 15136 15090 15040 15011 14968 14938 14909 14866 14845 14860 14842 14849 14831 14773 14741 14699 14701 14712 14746 14810 14855 14893 14953 15023 15105 15192 15256 15294 15285 15279 15278 15295 15324 15344 15367 15389 15406 15409 15412 15423 15412 15401 15398 15337 15266 15191 15131 15092 15043 15021 14996 14963 14925 14882 14856 14836 14804 14795 14759 14721 14666 14617 14604 14632 14679 14741 14813 14878 14988 15091 15144 15192 15257 15302 15368 15401 15388 15375 15312 15318 15355 15398 15443 15473 15480 15468 15464 15452 15439 15415 15406 15372 15321 15266 15227 15180 15141 15095 15073 15016 14977 14948 14921 14901 14893 14906 14916 14895 14870 14855 14865 14870 14896 14928 14941 14967 14987 15030 15062 15087 15136 15181 15222 15259 15314 15391 15489 15596 15685 15774 15837 15893 15931 15960 15990 16009 16017 15996 15989 15976 15914 15867 15839 15792 15750 15700 15673 15639 15613 15585 15566 15546 15520 15504 15489 15487 15488 15509 15570 15653 15755 15826 15907 15974 16044 16115 16160 16235 16283 16321 16359 16362 16361 16340 16326 16338 16339 16313 16313 16298 16283 16257 16234 16210 16172 16151 16085 16055 15979 15926 15874 15835 15795 15778 15757 15758 15751 15771 15769 15792 15829 15883 15939 15964 15972 15958 15971 15991 16037 16064 16094 16150 16172 16186 16189 16186 16175 16173 16167 16134 16080 16019 15980 15953 15936 15928 15899 15874 15854 15833 15810 15796 15771 15749 15724 15685 15628 15597 15563 15534 15528 15505 15503 15495 15498 15474 15469 15477 15489 15465 15472 15461 15432 15406 15379 15336 15339 15339 15372 15396 15439 15463 15487 15529 15578 15617 15653 15701 15729 15750 15764 15759 15750 15745 15704 15689 15683 15676 15653 15636 15627 15591 15578 15567 15531 15506 15490 15482 15466 15479 15458 15461 15468 15452 15452 15477 15482 15498 15519 15523 15538 15551 15549 15560 15602 15633 15663 15711 15733 15747 15779 15785 15807 15808 15791 15771 15733 15700 15674 15646 15635 15613 15592 15573 15540 15508 15486 15463 15425 15413 15372 15339 15305 15300 15313 15316 15353 15405 15484 15550 15589 15638 15659 15689 15712 15754 15758 15757 15765 15794 15828 15829 15863 15888 15909 15931 15932 15938 15956 15955 15947 15941 15909 15840 15753 15686 15628 15593 15553 15509 15478 15428 15375 15340 15305 15281 15265 15268 15271 15252 15232 15256 15271 15309 15330 15352 15372 15382 15417 15459 15512 15583 15639 15680 15707 15693 15682 15670 15655 15654 15672 15693 15713 15699 15721 15724 15726 15721 15706 15694 15663 15597 15497 15416 15366 15313 15276 15249 15219 15186 15172 15165 15158 15143 15177 15195 15264 15322 15377 15407 15451 15514 15573 15585 15639 15655 15675 15700 15743 15738 15765 15782 15807 15799 15797 15781 15753 15713 15685 15687 15637 15617 15615 15594 15570 15538 15532 15500 15465 15437 15375 15337 15299 15288 15273 15249 15246 15240 15307 15382 15456 15517 15538 15525 15510 15505 15524 15524 15529 15529 15545 15550 15552 15546 15556 15577 15578 15595 15605 15613 15595 15606 15599 15555 15503 15444 15441 15417 15391 15376 15360 15334 15318 15307 15303 15298 15272 15243 15207 15183 15162 15148 15131 15127 15124 15161 15170 15175 15202 15218 15256 15272 15309 15286 15289 15277 15289 15280 15279 15278 15266 15276 15277 15275 15294 15289 15312 15335 15349 15337 15315 15313 15307 15292 15280 15266 15245 15223 15191 15164 15154 15143 15132 15119 15114 15082 15032 15012 14990 14986 14979 14983 14985 14986 15021 15083 15176 15276 15380 15549 15755 15949 16081 16242 16400 16535 16703 16807 16886 16895 16877 16905 16941 16978 17001 17000 17001 16990 16915 16865 16796 16765 16749 16720 16681 16633 16603 16574 16546 16530 16503 16487 16481 16435 16376 16352 16298 16284 16243 16231 16228 16193 16193 16192 16185 16177 16169 16166 16161 16165 16168 16151 16132 16153 16171 16222 16247 16309 16364 16409 16448 16485 16549 16613 16653 16684 16710 16720 16721 16747 16740 16741 16731 16723 16714 16680 16675 16637 16611 16585 16572 16553 16520 16488 16482 16473 16474 16510 16523 16520 16525 16529 16534 16541 16534 16552 16550 16581 16614 16624 16669 16725 16795 16834 16936 17000 17086 17139 17182 17251 17317 17393 17437 17488 17506 17534 17567 17578 17617 17639 17637 17633 17613 17610 17596 17583 17593 17593 17591 17557 17518 17450 17410 17410 17369 17347 17326 17301 17273 17271 17275 17289 17300 17315 17363 17352 17330 17320 17320 17319 17320 17293 17269 17223 17232 17228 17204 17201 17202 17173 17165 17133 17023 16950 16864 16818 16779 16743 16715 16668 16635 16582 16545 16461 16425 16375 16301 16228 16109 16001 15924 15892 15825 15793 15775 15744 15717 15709 15725 15749 15783 15781 15814 15806 15757 15715 15685 15667 15665 15667 15653 15624 15587 15538 15593 15584 15587 15588 15623 15638 15675 15745 15829 15947 16014 16049 16089 16058 16055 16049 16041 16042 16018 16003 15932 15846 15741 15674 15646 15624 15590 15580 15556 15515 15510 15477 15478 15482 15478 15475 15467 15438 15371 15353 15322 15310 15294 15262 15259 15249 15248 15272 15295 15330 15377 15426 15476 15470 15487 15493 15489 15496 15509 15513 15514 15487 15488 15448 15414 15397 15347 15296 15229 15143 15067 15010 14962 14921 14919 14919 14937 14983 15049 15082 15138 15201 15267 15335 15403 15461 15486 15516 15563 15605 15673 15754 15813 15875 15913 15969 16013 16037 16060 16069 16032 15977 15916 15879 15848 15819 15796 15767 15764 15728 15718 15691 15694 15674 15649 15625 15552 15461 15364 15313 15254 15213 15169 15132 15078 15051 15033 15039 15034 15066 15101 15131 15155 15162 15172 15186 15230 15273 15331 15406 15477 15577 15658 15720 15777 15794 15813 15803 15766 15718 15638 15571 15536 15496 15473 15448 15405 15352 15296 15256 15230 15194 15194 15183 15155 15115 15076 15042 15021 15010 15008 15003 15007 15021 15004 15025 15067 15118 15166 15232 15262 15279 15295 15305 15319 15385 15417 15455 15476 15461 15447 15448 15431 15405 15398 15382 15344 15289 15235 15188 15161 15120 15111 15083 15061 15042 15036 15035 15039 15076 15123 15170 15203 15211 15201 15221 15252 15258 15337 15394 15435 15478 15511 15523 15537 15564 15570 15576 15568 15540 15511 15508 15521 15530 15548 15537 15524 15506 15471 15454 15410 15385 15363 15345 15323 15266 15229 15214 15217 15253 15320 15367 15433 15507 15582 15612 15663 15686 15702 15732 15743 15729 15692 15669 15666 15675 15675 15695 15711 15729 15736 15727 15747 15772 15775 15775 15765 15716 15664 15624 15583 15537 15496 15471 15425 15392 15351 15329 15323 15329 15375 15416 15455 15493 15531 15563 15579 15605 15638 15652 15662 15680 15701 15696 15721 15732 15740 15759 15790 15803 15815 15820 15813 15822 15836 15806 15821 15806 15784 15773 15764 15742 15743 15702 15694 15638 15579 15543 15495 15476 15462 15442 15447 15439 15440 15424 15447 15420 15431 15450 15455 15475 15486 15481 15530 15583 15613 15656 15674 15718 15735 15771 15796 15797 15803 15788 15779 15750 15698 15638 15595 15568 15544 15515 15498 15475 15453 15417 15401 15395 15384 15379 15387 15368 15328 15278 15222 15195 15174 15168 15160 15201 15195 15312 15406 15473 15588 15648 15691 15705 15740 15744 15708 15715 15723 15749 15753 15736 15720 15700 15651 15603 15590 15565 15552 15524 15518 15454 15366 15305 15248 15225 15191 15184 15178 15175 15188 15212 15237 15283 15310 15340 15385 15383 15393 15411 15459 15528 15569 15609 15631 15628 15634 15637 15658 15705 15777 15819 15844 15871 15838 15789 15754 15723 15703 15692 15656 15627 15554 15497 15434 15385 15331 15299 15270 15265 15226 15179 15153 15144 15145 15146 15133 15142 15136 15130 15204 15232 15273 15303 15328 15338 15317 15274 15245 15209 15228 15234 15264 15300 15332 15321 15301 15287 15270 15256 15202 15146 15067 14998 14956 14930 14926 14945 14964 14988 15032 15092 15129 15192 15264 15283 15336 15326 15346 15371 15388 15425 15471 15491 15527 15551 15584 15585 15588 15610 15643 15664 15661 15623 15600 15556 15517 15488 15475 15451 15427 15400 15357 15339 15304 15269 15240 15227 15186 15124 15066 15036 15037 15033 15066 15105 15126 15125 15141 15187 15202 15248 15280 15297 15312 15301 15305 15354 15377 15410 15442 15476 15497 15538 15552 15587 15593 15585 15596 15587 15553 15521 15472 15430 15387 15366 15321 15275 15243 15230 15250 15257 15306 15320 15383 15437 15491 15502 15515 15545 15614 15710 15785 15879 15934 16016 16064 16102 16131 16143 16147 16133 16090 16090 16074 16085 16089 16068 16033 16004 15975 15911 15858 15822 15761 15713 15659 15588 15507 15415 15382 15345 15339 15304 15283 15273 15278 15283 15305 15349 15372 15411 15448 15519 15607 15658 15686 15707 15730 15750 15778 15812 15821 15847 15861 15879 15886 15852 15784 15727 15701 15687 15660 15640 15616 15567 15534 15536 15524 15510 15480 15430 15375 15299 15209 15173 15156 15170 15166 15219 15251 15294 15330 15361 15384 15435 15479 15522 15559 15562 15569 15577 15583 15584 15614 15626 15643 15649 15677 15713 15748 15778 15850 15857 15849 15806 15755 15729 15718 15697 15671 15646 15586 15535 15477 15436 15403 15366 15342 15340 15299 15273 15233 15225 15253 15286 15287 15305 15318 15323 15366 15415 15441 15472 15494 15518 15551 15573 15602 15645 15679 15726 15755 15781 15789 15795 15800 15802 15785 15794 15806 15780 15716 15665 15631 15588 15533 15487 15436 15386 15345 15312 15293 15277 15281 15310 15328 15365 15413 15463 15502 15544 15586 15614 15661 15705 15734 15762 15772 15786 15807 15811 15815 15803 15768 15722 15691 15659 15636 15622 15608 15591 15559 15547 15520 15525 15494 15463 15444 15392 15351 15298 15284 15282 15286 15278 15264 15245 15245 15228 15234 15251 15262 15298 15337 15397 15446 15480 15512 15561 15597 15632 15642 15670 15677 15696 15671 15660 15673 15680 15669 15638 15576 15515 15478 15441 15420 15383 15350 15317 15275 15229 15169 15135 15122 15096 15075 15036 14982 14950 14978 15079 15163 15229 15319 15393 15448 15511 15556 15593 15592 15597 15608 15611 15572 15521 15492 15482 15472 15469 15480 15523 15527 15532 15542 15523 15527 15509 15500 15460 15413 15324 15255 15205 15151 15108 15062 15032 15018 15024 15020 15011 15031 15074 15124 15168 15256 15305 15371 15426 15512 15585 15669 15755 15827 15877 15945 15987 16058 16112 16138 16176 16208 16209 16174 16141 16104 16101 16089 16068 16041 16003 15960 15915 15863 15810 15762 15715 15678 15621 15555 15525 15476 15467 15448 15422 15398 15386 15377 15353 15380 15401 15407 15428 15478 15517 15553 15574 15616 15673 15758 15822 15876 15900 15924 15954 16000 16048 16071 16099 16104 16085 16059 16028 16006 15993 15986 15965 15950 15948 15927 15925 15902 15875 15858 15825 15772 15689 15635 15565 15514 15476 15443 15404 15390 15389 15425 15472 15537 15630 15700 15771 15789 15779 15735 15707 15693 15691 15724 15746 15734 15731 15749 15753 15778 15786 15814 15836 15832 15833 15827 15839 15876 15904 15898 15872 15855 15834 15804 15774 15759 15730 15712 15656 15591 15554 15523 15499 15475 15459 15454 15424 15429 15430 15420 15431 15420 15431 15426 15401 15374 15369 15379 15415 15455 15499 15511 15539 15560 15565 15613 15629 15655 15684 15693 15675 15682 15709 15704 15721 15741 15756 15733 15732 15707 15697 15666 15636 15613 15601 15557 15486 15447 15398 15354 15327 15308 15286 15258 15237 15210 15200 15187 15162 15177 15182 15174 15163 15127 15111 15119 15146 15137 15172 15193 15240 15261 15301 15333 15399 15474 15508 15505 15521 15527 15548 15557 15579 15594 15604 15616 15605 15583 15553 15539 15506 15479 15465 15447 15378 15326 15262 15208 15185 15124 15092 15057 15024 15003 14972 14957 14951 14925 14928 14918 14914 14873 14839 14811 14792 14798 14816 14843 14911 14961 14989 15025 15039 15067 15091 15095 15106 15106 15100 15068 15059 15070 15097 15143 15205 15268 15305 15314 15331 15334 15331 15307 15328 15299 15260 15209 15155 15126 15091 15051 15016 14999 14965 14959 14959 14988 15014 15046 15062 15133 15200 15268 15317 15369 15438 15517 15573 15623 15674 15689 15698 15687 15686 15680 15684 15685 15675 15646 15614 15604 15581 15564 15553 15525 15441 15426 15374 15337 15298 15280 15234 15197 15172 15119 15043 14969 14926 14906 14899 14906 14912 14926 14986 15097 15190 15293 15377 15497 15571 15645 15664 15681 15689 15708 15771 15793 15794 15791 15782 15777 15794 15808 15824 15828 15817 15819 15784 15751 15692 15644 15605 15561 15531 15502 15480 15444 15409 15377 15338 15316 15289 15253 15225 15171 15091 15044 15033 14993 14972 14985 14968 14966 14975 15008 15052 15141 15201 15252 15323 15367 15376 15393 15405 15419 15410 15405 15422 15406 15432 15449 15453 15476 15500 15518 15536 15546 15524 15512 15482 15468 15498 15496 15471 15450 15437 15410 15380 15359 15329 15295 15268 15223 15188 15135 15109 15089 15109 15112 15158 15229 15289 15343 15399 15467 15537 15607 15664 15721 15756 15769 15784 15817 15837 15884 15915 15943 15959 15990 15988 16017 16031 16055 16061 16109 16143 16176 16197 16213 16213 16218 16227 16241 16232 16221 16204 16178 16151 16131 16109 16076 16037 16021 15985 15926 15900 15864 15842 15835 15820 15813 15791 15777 15777 15750 15749 15762 15765 15795 15805 15807 15796 15810 15824 15821 15829 15846 15882 15867 15869 15859 15890 15894 15936 15957 15955 15947 15950 15989 15989 15998 15997 15990 15968 15941 15916 15880 15839 15790 15776 15753 15734 15718 15687 15665 15631 15635 15633 15659 15705 15764 15800 15824 15814 15851 15874 15915 15921 15956 15928 15918 15879 15873 15862 15867 15887 15888 15889 15884 15888 15889 15885 15885 15882 15891 15889 15868 15812 15772 15741 15697 15666 15633 15610 15601 15564 15546 15497 15490 15466 15456 15433 15429 15393 15364 15335 15346 15359 15397 15450 15539 15596 15646 15675 15689 15733 15787 15845 15885 15906 15885 15858 15879 15904 15906 15891 15869 15869 15860 15869 15874 15870 15848 15809 15773 15727 15653 15585 15539 15509 15472 15443 15405 15356 15337 15270 15231 15220 15221 15217 15231 15310 15396 15480 15561 15652 15727 15796 15871 15915 15950 15936 15951 15955 15982 15996 15995 15996 16007 15978 15948 15908 15876 15861 15828 15809 15794 15766 15762 15739 15740 15733 15702 15662 15607 15561 15515 15479 15444 15413 15372 15344 15313 15284 15270 15231 15235 15255 15262 15269 15275 15296 15308 15302 15310 15324 15320 15343 15356 15394 15392 15405 15417 15410 15434 15443 15463 15477 15490 15466 15440 15415 15419 15409 15406 15406 15435 15454 15474 15477 15450 15440 15428 15390 15338 15298 15219 15166 15114 15096 15058 15041 15002 14978 14949 14925 14924 14926 14934 14981 15038 15115 15157 15198 15223 15263 15329 15399 15498 15508 15538 15561 15590 15589 15564 15530 15521 15510 15475 15403 15339 15288 15278 15268 15298 15306 15288 15255 15248 15254 15285 15283 15316 15334 15353 15351 15317 15274 15233 15197 15148 15107 15086 15056 15047 15033 15022 15010 15032 15046 15072 15108 15124 15112 15085 15063 15056 15036 15039 15059 15071 15078 15081 15120 15161 15214 15219 15194 15174 15153 15135 15127 15134 15130 15156 15182 15204 15196 15181 15149 15117 15112 15103 15094 15081 15090 15079 15022 15011 14995 15010 15031 15083 15150 15229 15333 15434 15558 15688 15784 15871 15963 16024 16056 16046 16031 16031 16030 15995 15993 15989 15982 15952 15928 15914 15899 15866 15861 15872 15864 15820 15793 15760 15716 15682 15658 15631 15598 15568 15545 15507 15507 15497 15486 15472 15457 15424 15372 15334 15307 15258 15236 15220 15215 15196 15188 15186 15200 15197 15186 15161 15117 15076 15022 14973 14910 14888 14906 14909 14935 14939 14946 14922 14894 14863 14865 14871 14901 14942 14959 14952 14920 14919 14931 14941 14947 14948 14954 14965 15008 15026 15093 15204 15297 15435 15545 15650 15747 15833 15881 15904 15949 16005 16042 16110 16152 16182 16179 16184 16154 16147 16126 16089 16023 15984 15944 15908 15887 15886 15848 15835 15809 15792 15802 15801 15799 15778 15775 15763 15730 15686 15668 15670 15716 15762 15824 15874 15899 15918 15920 15907 15890 15890 15889 15857 15801 15732 15670 15651 15624 15598 15565 15542 15502 15467 15424 15384 15338 15295 15236 15199 15120 15012 14989 14942 14920 14859 14861 14851 14867 14846 14916 14954 15016 15074 15122 15174 15172 15144 15104 15082 15104 15097 15085 15079 15058 15072 15062 15063 15070 15083 15097 15137 15138 15101 15056 15012 14970 14935 14905 14871 14865 14828 14799 14785 14772 14756 14749 14800 14854 14910 14951 14986 15014 15040 15082 15100 15120 15114 15118 15112 15119 15112 15111 15093 15082 15065 15023 15011 15060 15063 15052 15057 15040 15016 15006 14972 14927 14923 14901 14886 14831 14728 14688 14649 14641 14647 14672 14694 14711 14731 14729 14709 14718 14698 14684 14664 14621 14547 14480 14441 14420 14413 14421 14412 14409 14430 14459 14453 14470 14446 14443 14434 14418 14358 14312 14303 14281 14298 14312 14329 14299 14330 14346 14333 14390 14438 14499 14597 14638 14666 14709 14768 14811 14880 14910 14971 15028 15071 15095 15120 15106 15093 15112 15102 15103 15091 15074 15024 15013 15037 15074 15110 15118 15093 15072 15037 15014 14998 14988 14970 14941 14890 14846 14803 14750 14738 14715 14699 14711 14703 14720 14772 14842 14965 15098 15226 15366 15418 15456 15498 15561 15596 15614 15641 15668 15680 15704 15731 15768 15770 15768 15756 15744 15714 15660 15623 15602 15558 15560 15541 15522 15515 15491 15471 15451 15440 15405 15382 15344 15260 15216 15165 15133 15109 15091 15076 15071 15084 15103 15139 15162 15176 15194 15211 15214 15219 15204 15177 15170 15138 15128 15133 15129 15145 15158 15173 15180 15180 15155 15154 15152 15094 15049 15002 14992 14980 14969 14955 14952 14943 14923 14906 14903 14886 14884 14876 14856 14801 14768 14746 14737 14751 14726 14760 14814 14861 14923 14988 15049 15096 15144 15196 15208 15206 15225 15251 15298 15337 15379 15440 15510 15548 15605 15665 15697 15719 15698 15719 15720 15748 15775 15843 15957 16044 16067 16051 15994 15957 15931 15884 15836 15803 15735 15738 15731 15673 15653 15591 15585 15582 15603 15608 15607 15643 15648 15630 15637 15654 15669 15725 15772 15772 15761 15725 15731 15727 15720 15715 15705 15682 15662 15631 15593 15566 15574 15526 15489 15429 15386 15314 15288 15256 15235 15223 15231 15235 15265 15292 15319 15326 15319 15293 15259 15232 15211 15219 15251 15284 15305 15302 15286 15288 15288 15300 15338 15348 15389 15430 15429 15438 15459 15483 15484 15520 15535 15534 15531 15517 15507 15472 15441 15423 15396 15372 15336 15291 15258 15241 15235 15246 15262 15290 15336 15383 15421 15444 15454 15466 15477 15471 15459 15447 15433 15438 15446 15434 15457 15478 15481 15475 15493 15498 15488 15505 15504 15461 15425 15347 15312 15274 15215 15168 15107 15068 15048 15051 15081 15146 15213 15269 15320 15340 15356 15360 15401 15449 15522 15579 15657 15680 15701 15717 15736 15760 15758 15774 15790 15817 15796 15805 15800 15784 15787 15777 15778 15752 15729 15712 15689 15679 15650 15638 15626 15593 15554 15503 15464 15434 15429 15417 15427 15446 15471 15487 15494 15536 15541 15563 15587 15601 15592 15581 15577 15604 15613 15645 15663 15672 15661 15666 15666 15653 15668 15673 15674 15678 15686 15660 15621 15573 15548 15536 15514 15493 15477 15475 15462 15443 15443 15437 15430 15428 15431 15414 15398 15400 15412 15432 15457 15475 15488 15501 15500 15510 15518 15538 15539 15551 15566 15530 15509 15476 15448 15433 15427 15420 15408 15402 15383 15376 15342 15340 15332 15328 15315 15295 15278 15261 15238 15237 15272 15301 15347 15403 15447 15507 15580 15625 15629 15663 15674 15661 15636 15632 15618 15598 15602 15599 15581 15578 15546 15519 15485 15474 15431 15424 15410 15377 15333 15287 15251 15236 15219 15206 15207 15186 15180 15168 15158 15161 15171 15200 15262 15315 15321 15308 15316 15322 15326 15323 15328 15339 15365 15384 15418 15442 15470 15469 15478 15496 15468 15423 15366 15335 15313 15290 15264 15241 15219 15200 15184 15184 15201 15216 15237 15262 15247 15238 15227 15239 15256 15278 15312 15325 15322 15313 15332 15373 15416 15440 15509 15557 15573 15544 15535 15520 15527 15514 15512 15496 15470 15447 15405 15355 15311 15287 15259 15221 15145 15071 15013 14957 14920 14914 14926 14947 14983 15037 15098 15174 15230 15288 15337 15376 15404 15410 15436 15453 15482 15499 15516 15540 15559 15567 15590 15616 15621 15655 15668 15677 15652 15608 15553 15513 15486 15452 15428 15392 15345 15284 15233 15208 15181 15167 15171 15197 15220 15219 15232 15262 15305 15355 15442 15509 15576 15664 15743 15816 15874 15945 15984 16023 16011 15971 15910 15867 15819 15799 15783 15740 15703 15662 15608 15556 15511 15452 15411 15367 15344 15266 15184 15100 15041 14995 14967 14962 14952 14932 14934 14932 14935 14977 15027 15110 15182 15273 15328 15372 15405 15429 15457 15454 15484 15495 15530 15601 15649 15693 15715 15746 15743 15710 15655 15593 15539 15505 15457 15445 15406 15371 15319 15282 15250 15232 15211 15219 15219 15234 15254 15258 15254 15282 15325 15337 15390 15429 15476 15518 15577 15634 15677 15708 15733 15760 15784 15797 15784 15789 15790 15805 15813 15823 15814 15793 15753 15717 15710 15682 15656 15621 15561 15504 15419 15344 15280 15219 15195 15174 15181 15199 15268 15361 15484 15586 15700 15797 15877 15946 15984 16010 15979 15971 15973 16015 16046 16080 16099 16093 16083 16058 16044 16020 15990 15950 15908 15857 15774 15693 15630 15588 15549 15542 15525 15497 15485 15486 15489 15522 15575 15650 15706 15763 15794 15823 15823 15864 15872 15913 15946 15986 16019 16045 16072 16098 16121 16149 16153 16148 16107 16041 15953 15882 15826 15770 15712 15668 15616 15576 15527 15500 15492 15480 15481 15499 15525 15525 15529 15538 15548 15577 15622 15661 15713 15768 15804 15850 15877 15917 15950 15975 16006 16030 16030 16037 16053 16069 16067 16055 16045 15989 15960 15913 15892 15843 15818 15769 15736 15659 15581 15505 15455 15436 15418 15402 15383 15369 15364 15336 15328 15324 15306 15302 15309 15274 15226 15169 15156 15140 15140 15174 15176 15182 15149 15118 15096 15083 15068 15056 15041 14978 14940 14868 14819 14783 14769 14764 14780 14806 14875 14942 15015 15060 15108 15136 15152 15177 15148 15106 15065 15039 15039 15054 15073 15120 15149 15193 15253 15258 15295 15342 15404 15443 15451 15409 15364 15300 15262 15194 15166 15110 15051 15024 14989 14960 14955 14941 14946 14964 15004 15002 14982 14968 14969 15004 15042 15066 15083 15074 15110 15198 15224 15261 15312 15360 15360 15348 15280 15232 15206 15198 15189 15156 15123 15084 15056 15021 15026 15090 15151 15215 15256 15284 15307 15342 15371 15432 15476 15548 15586 15617 15649 15665 15667 15671 15696 15708 15752 15762 15778 15776 15736 15744 15722 15706 15681 15665 15636 15612 15591 15562 15525 15509 15498 15476 15457 15413 15377 15379 15370 15393 15438 15460 15493 15519 15530 15539 15542 15556 15545 15582 15597 15578 15553 15539 15553 15568 15555 15558 15549 15512 15508 15468 15446 15434 15414 15410 15389 15356 15304 15252 15221 15206 15214 15244 15297 15334 15357 15387 15416 15444 15456 15457 15440 15429 15378 15343 15302 15294 15314 15329 15336 15365 15373 15369 15368 15364 15357 15354 15334 15324 15281 15222 15175 15148 15126 15110 15098 15106 15108 15140 15176 15215 15277 15345 15433 15503 15569 15604 15658 15682 15706 15709 15764 15781 15771 15754 15784 15780 15797 15783 15778 15789 15775 15738 15689 15634 15580 15540 15522 15490 15455 15417 15387 15337 15308 15308 15301 15298 15310 15314 15335 15378 15425 15461 15502 15558 15601 15679 15750 15777 15808 15837 15886 15923 15948 15918 15860 15859 15860 15864 15861 15848 15836 15798 15756 15727 15675 15654 15625 15595 15558 15507 15423 15374 15339 15315 15299 15294 15262 15278 15275 15292 15317 15326 15352 15384 15399 15380 15353 15362 15382 15386 15398 15382 15421 15434 15472 15514 15545 15571 15562 15544 15481 15396 15316 15279 15254 15226 15232 15186 15161 15114 15099 15096 15088 15072 15075 15065 15042 15002 14978 14978 14983 14993 14976 14961 14964 14985 14990 14989 15010 15054 15073 15090 15061 15017 14981 14922 14872 14869 14898 14866 14861 14845 14834 14805 14779 14782 14828 14874 14932 14965 14964 14999 15024 15074 15127 15183 15211 15202 15208 15215 15244 15243 15278 15288 15283 15258 15196 15184 15172 15167 15211 15229 15227 15187 15153 15112 15077 15041 15017 14983 14960 14889 14822 14755 14719 14755 14835 14907 14984 15041 15072 15074 15099 15099 15110 15128 15124 15099 15017 14941 14892 14860 14881 14897 14904 14923 14932 14924 14917 14910 14929 14970 14970 14955 14909 14846 14815 14826 14812 14844 14911 14947 15009 15042 15060 15061 15054 15042 15027 15013 15001 14991 15008 15002 15013 15053 15077 15060 15049 15070 15082 15163 15192 15254 15280 15284 15285 15277 15223 15188 15142 15142 15126 15137 15156 15177 15238 15290 15357 15455 15553 15644 15699 15735 15749 15787 15834 15906 15978 16002 16037 16046 16066 16085 16098 16126 16176 16207 16207 16196 16173 16157 16125 16100 16073 16045 16025 16013 16003 15993 15981 15964 15962 15944 15931 15898 15903 15936 16001 16082 16170 16208 16231 16252 16243 16232 16260 16291 16331 16357 16346 16316 16293 16268 16259 16249 16242 16222 16214 16170 16136 16123 16115 16116 16137 16137 16114 16058 15986 15928 15897 15870 15871 15849 15855 15860 15866 15897 15947 15980 16000 16029 15996 15929 15887 15857 15850 15853 15873 15883 15898 15913 15932 15931 15918 15899 15868 15848 15780 15723 15634 15596 15569 15536 15525 15526 15505 15481 15474 15459 15467 15471 15504 15519 15485 15440 15392 15354 15338 15341 15371 15371 15375 15390 15362 15362 15360 15364 15365 15347 15317 15270 15232 15222 15231 15256 15266 15261 15235 15201 15191 15183 15187 15217 15252 15277 15254 15247 15240 15253 15255 15285 15296 15321 15305 15302 15299 15287 15285 15295 15326 15325 15333 15312 15292 15272 15256 15238 15230 15194 15183 15182 15172 15187 15199 15205 15221 15209 15181 15146 15142 15174 15221 15305 15398 15487 15599 15679 15770 15827 15840 15903 15917 15894 15887 15858 15849 15847 15861 15895 15926 15954 15978 15978 15984 15962 15953 15963 15939 15885 15829 15788 15747 15707 15700 15691 15686 15710 15725 15750 15786 15798 15846 15880 15899 15892 15881 15881 15890 15893 15872 15886 15874 15892 15895 15907 15907 15895 15879 15848 15786 15708 15661 15592 15552 15538 15516 15485 15450 15436 15429 15416 15423 15458 15524 15586 15637 15662 15667 15677 15660 15658 15674 15662 15662 15674 15683 15686 15689 15702 15723 15745 15741 15681 15634 15602 15568 15548 15501 15455 15438 15407 15372 15324 15301 15270 15247 15235 15182 15117 15062 15022 15000 15018 15039 15074 15112 15139 15163 15191 15215 15216 15182 15180 15117 15041 14990 14959 14930 14902 14900 14886 14870 14859 14836 14805 14787 14764 14760 14754 14758 14729 14715 14732 14757 14800 14812 14839 14873 14879 14898 14930 14980 15034 15082 15105 15085 15054 15044 15055 15055 15059 15055 15042 15027 15019 15028 15026 15031 14995 14961 14885 14780 14712 14649 14618 14593 14544 14515 14477 14443 14407 14431 14455 14497 14556 14605 14617 14570 14523 14479 14443 14411 14397 14366 14334 14326 14304 14331 14367 14400 14416 14422 14390 14331 14301 14294 14277 14264 14253 14244 14254 14241 14230 14252 14266 14310 14352 14406 14447 14470 14503 14550 14628 14721 14821 14914 14988 15056 15074 15108 15108 15118 15141 15132 15105 15064 15033 15057 15077 15092 15101 15076 15056 15022 14995 14977 14965 14925 14901 14863 14777 14710 14702 14716 14791 14876 14970 15068 15137 15204 15270 15325 15386 15433 15476 15462 15456 15416 15413 15403 15413 15420 15425 15428 15423 15406 15377 15368 15338 15306 15283 15247 15212 15186 15147 15122 15109 15107 15118 15119 15139 15149 15166 15199 15248 15276 15309 15289 15250 15218 15205 15190 15198 15201 15203 15222 15228 15259 15278 15297 15306 15321 15298 15242 15207 15183 15167 15146 15128 15125 15100 15085 15080 15066 15076 15080 15133 15181 15190 15187 15169 15132 15143 15143 15173 15181 15186 15183 15168 15145 15129 15118 15120 15144 15136 15119 15090 15060 15045 15030 15005 14994 14972 14923 14900 14885 14872 14868 14869 14878 14840 14830 14826 14854 14893 14951 15041 15126 15215 15314 15357 15428 15462 15508 15544 15553 15530 15509 15514 15506 15535 15558 15586 15607 15611 15612 15585 15575 15555 15554 15532 15512 15449 15370 15324 15269 15235 15208 15189 15164 15160 15138 15123 15123 15128 15155 15165 15162 15159 15114 15089 15095 15075 15081 15068 15076 15062 15084 15084 15079 15100 15124 15132 15097 15043 14985 14958 14935 14924 14905 14881 14882 14885 14884 14913 14918 14938 14938 14941 14991 15054 15143 15232 15301 15390 15445 15471 15500 15529 15556 15595 15639 15642 15673 15696 15684 15669 15642 15592 15563 15512 15471 15446 15408 15372 15340 15320 15270 15247 15221 15204 15177 15134 15118 15118 15128 15151 15170 15191 15204 15251 15294 15336 15360 15383 15401 15407 15371 15339 15338 15366 15366 15373 15369 15344 15301 15260 15219 15172 15106 15077 15026 14951 14860 14768 14712 14681 14689 14722 14770 14848 14914 15005 15123 15228 15333 15444 15540 15616 15630 15641 15648 15619 15656 15663 15672 15654 15661 15657 15649 15640 15631 15599 15564 15502 15428 15336 15280 15251 15224 15173 15119 15070 15035 15005 14965 14985 15003 15027 15069 15113 15137 15107 15094 15114 15130 15180 15215 15209 15211 15211 15214 15228 15242 15262 15275 15281 15238 15184 15125 15083 15060 15060 15063 15044 15026 14999 14935 15045 15067 15092 15098 15175 15209 15234 15327 15428 15502 15602 15699 15734 15812 15866 15928 15969 15986 16000 16010 16016 16056 16014 15963 15920 15879 15861 15834 15793 15740 15686 15631 15589 15551 15530 15489 15441 15406 15364 15305 15266 15270 15289 15341 15393 15431 15466 15500 15535 15561 15601 15622 15624 15637 15648 15601 15576 15560 15546 15558 15557 15565 15543 15517 15490 15454 15427 15387 15355 15303 15269 15189 15081 14987 14953 14916 14911 14929 15013 15126 15186 15262 15346 15431 15485 15555 15583 15643 15625 15600 15603 15582 15618 15680 15731 15798 15838 15883 15905 15956 15979 15994 15974 15950 15898 15856 15797 15750 15721 15702 15670 15637 15605 15582 15561 15555 15562 15574 15576 15614 15653 15637 15633 15647 15660 15675 15699 15688 15724 15742 15763 15801 15833 15870 15892 15881 15862 15778 15699 15648 15613 15596 15595 15557 15528 15490 15440 15400 15366 15365 15362 15400 15435 15473 15531 15556 15579 15624 15673 15682 15803 15928 16074 16139 16150 16146 16131 16145 16133 16044 16028 16009 15931 15915 15904 15888 15871 15847 15842 15808 15785 15770 15730 15714 15687 15620 15539 15516 15502 15535 15552 15590 15615 15663 15712 15728 15735 15767 15742 15752 15725 15682 15676 15659 15654 15702 15697 15728 15709 15712 15714 15720 15703 15670 15662 15647 15594 15545 15516 15469 15489 15491 15490 15531 15581 15606 15645 15714 15740 15732 15783 15832 15843 15859 15847 15840 15847 15870 15851 15856 15841 15855 15885 15888 15885 15874 15889 15861 15754 15691 15670 15636 15643 15640 15631 15623 15614 15616 15551 15552 15559 15586 15607 15586 15589 15583 15622 15665 15735 15744 15793 15801 15804 15800 15800 15781 15808 15844 15870 15854 15791 15770 15747 15724 15694 15676 15671 15622 15599 15582 15560 15552 15514 15485 15462 15416 15374 15353 15334 15350 15370 15405 15448 15455 15511 15584 15635 15658 15698 15740 15762 15777 15778 15787 15794 15790 15781 15761 15790 15786 15779 15762 15770 15753 15736 15726 15692 15631 15572 15512 15456 15417 15385 15377 15379 15372 15376 15400 15418 15440 15448 15505 15535 15561 15599 15648 15677 15695 15707 15701 15729 15717 15736 15763 15778 15770 15779 15744 15704 15655 15619 15578 15549 15530 15521 15494 15482 15506 15593 15710 15795 15872 15927 16004 16030 16034 16033 16083 16130 16196 16260 16279 16325 16321 16354 16381 16397 16406 16392 16383 16325 16285 16249 16197 16173 16126 16092 16043 16009 15977 15944 15920 15909 15883 15848 15770 15705 15665 15645 15581 15585 15603 15608 15614 15629 15649 15691 15731 15764 15764 15712 15689 15636 15609 15614 15636 15634 15614 15606 15583 15550 15496 15465 15430 15395 15327 15223 15150 15073 15022 14987 14968 14969 14988 15040 15127 15236 15352 15500 15590 15661 15692 15664 15650 15639 15655 15684 15727 15757 15806 15862 15916 15975 16017 16053 16079 16031 15929 15876 15810 15796 15767 15740 15730 15687 15660 15622 15599 15586 15568 15540 15538 15482 15447 15430 15407 15421 15447 15474 15468 15470 15487 15519 15547 15571 15597 15610 15566 15505 15448 15390 15349 15329 15311 15287 15277 15234 15203 15200 15167 15166 15196 15224 15236 15276 15331 15389 15445 15474 15495 15515 15542 15558 15575 15573 15590 15591 15576 15525 15494 15482 15456 15416 15390 15345 15289 15237 15184 15145 15130 15092 15064 15062 15000 14992 15022 15085 15166 15238 15306 15355 15397 15460 15510 15582 15609 15628 15629 15584 15591 15637 15697 15764 15835 15915 15991 16070 16145 16153 16118 16085 16050 15978 15870 15795 15742 15707 15672 15655 15648 15639 15631 15666 15690 15708 15738 15759 15735 15711 15683 15699 15704 15737 15753 15772 15769 15768 15749 15728 15691 15645 15595 15581 15532 15493 15460 15434 15423 15427 15401 15380 15376 15368 15348 15382 15375 15391 15398 15382 15352 15327 15323 15309 15325 15356 15401 15412 15407 15412 15391 15377 15364 15357 15336 15304 15250 15189 15154 15128 15158 15129 15139 15167 15174 15217 15252 15331 15404 15438 15461 15464 15440 15438 15471 15467 15450 15427 15439 15425 15402 15379 15367 15327 15308 15288 15233 15200 15177 15141 15112 15104 15103 15072 15076 15093 15125 15147 15181 15195 15191 15200 15162 15105 15120 15111 15101 15091 15098 15123 15143 15161 15149 15136 15195 15182 15162 15133 15094 15057 15051 15011 15000 15000 14978 14963 14961 14986 15022 15042 15049 15044 15016 14992 15017 15031 15035 15042 15052 15048 15063 15111 15110 15162 15242 15271 15261 15232 15209 15173 15165 15154 15144 15103 15086 15087 15085 15082 15120 15184 15281 15314 15350 15399 15462 15516 15576 15591 15622 15639 15628 15653 15656 15690 15759 15804 15813 15840 15848 15865 15875 15877 15842 15841 15853 15838 15805 15813 15788 15813 15790 15781 15731 15763 15773 15799 15848 15885 15933 15911 15946 15914 15922 15910 15907 15884 15871 15834 15823 15849 15876 15863 15867 15848 15848 15830 15846 15834 15830 15830 15820 15787 15742 15708 15661 15683 15653 15657 15643 15636 15650 15651 15659 15637 15650 15657 15621 15624 15618 15633 15628 15607 15592 15556 15527 15508 15478 15455 15433 15402 15383 15331 15284 15243 15208 15196 15218 15253 15317 15381 15425 15429 15433 15408 15406 15389 15337 15264 15220 15224 15235 15286 15305 15310 15298 15274 15291 15274 15248 15234 15220 15140 15062 15013 14967 14940 14942 14939 14957 14929 14935 14953 14964 15026 15047 15091 15097 15064 15037 15041 15076 15108 15112 15102 15130 15108 15110 15096 15069 15035 15002 14971 14904 14829 14781 14743 14710 14685 14663 14654 14680 14703 14807 14899 14974 15083 15143 15204 15221 15216 15225 15228 15197 15187 15133 15099 15067 15026 15024 14998 14965 14911 14858 14782 14737 14724 14730 14689 14681 14681 14659 14663 14650 14699 14736 14788 14808 14862 14889 14936 14969 15012 15049 15041 15087 15087 15080 15086 15109 15112 15140 15129 15104 15076 15036 15023 15013 15001 14982 14985 14955 14907 14906 14909 14948 14984 15026 15080 15126 15157 15208 15289 15322 15350 15403 15466 15513 15578 15682 15819 15936 16009 16092 16135 16159 16179 16232 16254 16279 16295 16327 16347 16387 16414 16457 16491 16484 16427 16392 16391 16374 16356 16368 16423 16429 16440 16464 16463 16487 16464 16441 16419 16396 16422 16444 16521 16640 16758 16806 16889 16963 16990 17093 17160 17188 17208 17165 17141 17121 17128 17158 17168 17195 17179 17180 17173 17205 17273 17300 17308 17287 17224 17128 17055 17009 16978 16944 16924 16878 16811 16739 16679 16601 16563 16508 16486 16452 16373 16287 16242 16171 16113 16068 16015 15941 15910 15899 15841 15843 15843 15830 15796 15725 15707 15715 15656 15628 15611 15567 15527 15482 15458 15458 15422 15428 15421 15376 15381 15429 15488 15518 15546 15578 15558 15570 15610 15618 15633 15620 15608 15600 15527 15422 15355 15325 15297 15296 15294 15284 15277 15244 15247 15244 15246 15274 15271 15223 15224 15186 15199 15225 15221 15267 15294 15301 15306 15283 15286 15259 15246 15195 15132 15090 15047 15016 14972 14933 14894 14877 14850 14840 14835 14825 14829 14827 14866 14874 14861 14853 14852 14851 14854 14861 14877 14878 14886 14890 14914 14936 14948 14967 14965 14922 14891 14867 14813 14799 14777 14769 14781 14807 14783 14758 14713 14706 14684 14658 14636 14593 14576 14603 14637 14721 14771 14792 14803 14822 14844 14879 14902 14934 14941 14880 14871 14824 14831 14839 14868 14893 14887 14885 14884 14864 14866 14838 14835 14817 14779 14706 14653 14591 14570 14529 14516 14514 14513 14488 14488 14469 14458 14467 14473 14458 14430 14408 14386 14369 14395 14437 14462 14506 14514 14529 14559 14573 14603 14676 14706 14728 14730 14740 14744 14749 14758 14748 14736 14735 14739 14767 14760 14771 14789 14821 14851 14839 14806 14772 14733 14733 14734 14724 14730 14723 14715 14703 14700 14724 14743 14781 14795 14772 14768 14765 14759 14767 14795 14801 14823 14788 14765 14760 14718 14700 14677 14643 14608 14548 14522 14502 14489 14472 14475 14497 14516 14528 14565 14591 14606 14604 14634 14634 14626 14650 14716 14782 14893 15003 15120 15191 15241 15269 15295 15311 15329 15354 15350 15318 15292 15281 15275 15272 15287 15287 15271 15280 15268 15250 15235 15218 15217 15195 15138 15117 15082 15058 15045 15027 15049 15055 15096 15130 15160 15187 15230 15247 15243 15212 15183 15168 15139 15138 15119 15094 15072 15015 14987 14970 14947 14907 14885 14866 14828 14766 14723 14708 14714 14723 14745 14761 14767 14748 14758 14761 14773 14772 14784 14787 14782 14801 14840 14957 15045 15084 15129 15150 15131 15125 15106 15050 14989 14948 14935 14904 14860 14833 14821 14813 14816 14841 14854 14879 14900 14925 14964 14997 15029 15071 15104 15090 15068 15072 15097 15080 15179 15295 15348 15376 15400 15420 15421 15411 15370 15361 15336 15299 15255 15228 15211 15188 15186 15180 15193 15191 15201 15192 15204 15214 15219 15217 15226 15229 15231 15217 15209 15185 15164 15158 15180 15261 15349 15428 15483 15543 15587 15596 15626 15598 15550 15536 15505 15492 15501 15513 15541 15586 15578 15563 15572 15563 15548 15508 15482 15482 15479 15501 15573 15649 15723 15801 15830 15847 15870 15863 15828 15811 15745 15659 15588 15533 15501 15471 15430 15382 15365 15338 15323 15288 15260 15263 15255 15232 15208 15133 15098 15060 15032 15017 15006 15029 15051 15030 15019 14994 14992 14981 14997 14961 14915 14854 14824 14800 14809 14804 14803 14809 14780 14764 14788 14801 14811 14850 14899 14944 14941 14927 14916 14924 14920 14929 14953 14951 14958 14998 15018 15022 15032 15045 15045 15012 15020 14985 14982 14956 14960 14934 14914 14896 14891 14910 14893 14919 14926 14967 14987 15014 15014 15052 15062 15106 15116 15126 15105 15112 15110 15126 15183 15258 15295 15307 15288 15215 15184 15154 15149 15126 15084 15056 15047 15027 14988 14949 14926 14915 14905 14889 14866 14824 14809 14797 14806 14866 14894 14925 14930 14918 14946 14975 14997 14996 15030 15041 15072 15113 15119 15117 15145 15132 15115 15124 15151 15182 15217 15211 15190 15149 15123 15114 15074 15041 15010 14979 14969 14968 14989 14984 14973 14944 14932 14995 15050 15149 15202 15256 15279 15263 15244 15255 15243 15272 15314 15330 15332 15311 15270 15225 15204 15178 15165 15162 15111 15114 15079 15131 15175 15266 15287 15294 15301 15306 15312 15299 15292 15300 15337 15436 15449 15458 15437 15427 15396 15414 15434 15425 15492 15624 15755 15834 15927 16019 16094 16195 16238 16273 16312 16341 16370 16423 16452 16460 16492 16563 16596 16636 16668 16679 16708 16727 16697 16665 16621 16588 16576 16565 16535 16496 16453 16424 16387 16361 16338 16338 16324 16304 16244 16194 16143 16099 16065 16028 15994 15949 15934 15890 15851 15840 15816 15800 15776 15748 15685 15603 15540 15481 15440 15397 15362 15326 15293 15249 15223 15201 15177 15147 15117 15099 15067 15012 14963 14922 14886 14875 14855 14842 14825 14791 14764 14737 14723 14716 14708 14690 14666 14629 14593 14563 14536 14516 14541 14541 14534 14519 14507 14469 14470 14456 14447 14429 14456 14413 14372 14326 14315 14302 14320 14344 14341 14335 14324 14334 14342 14363 14374 14374 14394 14357 14321 14266 14266 14250 14280 14363 14567 14728 14845 14950 15009 15093 15127 15214 15291 15364 15419 15456 15475 15508 15534 15526 15506 15476 15458 15470 15474 15473 15465 15452 15455 15403 15354 15299 15269 15246 15216 15207 15177 15163 15152 15145 15126 15148 15163 15165 15146 15120 15102 15081 15065 15067 15055 15057 15036 15023 15019 15001 14972 14940 14926 14907 14885 14867 14850 14827 14793 14777 14762 14728 14724 14745 14732 14741 14735 14748 14743 14794 14865 14960 15011 15050 15071 15096 15110 15136 15136 15131 15137 15131 15119 15104 15121 15096 15098 15084 15037 14999 14964 14945 14933 14932 14940 14934 14964 14982 15055 15075 15068 15056 15061 15052 15052 15051 15037 15010 14991 14973 14973 14968 14958 14932 14901 14878 14856 14820 14795 14780 14756 14713 14662 14658 14643 14649 14653 14651 14645 14650 14646 14617 14619 14601 14603 14618 14644 14641 14606 14582 14576 14576 14578 14566 14577 14586 14620 14659 14706 14692 14730 14737 14731 14721 14715 14705 14710 14721 14769 14869 15035 15154 15231 15323 15355 15387 15454 15457 15471 15506 15541 15534 15532 15544 15567 15649 15723 15783 15788 15814 15812 15811 15811 15808 15799 15817 15815 15806 15779 15768 15782 15783 15821 15819 15831 15846 15847 15856 15892 15936 15958 15984 15985 15966 15933 15921 15932 15957 15980 16025 16047 16048 16045 16043 16007 16018 15993 16008 15990 15983 15937 15888 15867 15835 15777 15772 15733 15723 15700 15682 15642 15642 15595 15591 15573 15531 15532 15479 15442 15397 15365 15320 15307 15269 15241 15219 15205 15181 15173 15146 15123 15125 15126 15134 15119 15093 15072 15045 15042 15090 15075 15050 15027 15026 15016 15013 15017 15011 15019 15005 14994 14950 14902 14892 14868 14859 14854 14867 14872 14853 14826 14784 14779 14762 14749 14766 14744 14702 14628 14585 14553 14551 14545 14527 14543 14552 14549 14570 14558 14518 14498 14463 14457 14442 14397 14347 14303 14277 14271 14286 14294 14319 14344 14344 14340 14384 14453 14551 14660 14708 14713 14750 14769 14799 14803 14798 14791 14797 14812 14802 14835 14813 14819 14809 14799 14776 14772 14746 14707 14701 14709 14734 14748 14724 14700 14702 14697 14758 14757 14767 14775 14791 14812 14834 14819 14783 14781 14785 14843 14935 15019 15050 15056 15051 15034 15047 15066 15068 15036 15022 15048 15083 15053 15044 15040 15012 14987 14953 14955 14940 14929 14921 14961 14995 14982 14992 14991 14994 15021 15059 15094 15080 15079 15061 15049 15031 15065 15094 15105 15093 15068 15046 15063 15094 15114 15097 15071 15069 15082 15085 15113 15127 15123 15107 15098 15109 15119 15123 15124 15100 15102 15072 15084 15108 15127 15102 15064 15068 15038 15014 15001 15027 14994 14970 14939 14925 14936 14932 14946 14965 14980 14999 15020 15046 15056 15048 15040 15043 15026 15023 15003 14992 14996 15007 15034 15039 15007 14983 14933 14894 14916 14938 14942 14934 14950 14950 14950 14946 14942 14937 14918 14906 14891 14939 14954 14937 14931 14901 14891 14873 14862 14852 14846 14828 14830 14849 14903 14931 14940 14921 14881 14865 14828 14794 14779 14767 14786 14805 14799 14775 14732 14694 14675 14653 14654 14682 14689 14666 14645 14740 14790 14798 14777 14776 14767 14770 14738 14773 14784 14767 14734 14750 14791 14819 14836 14824 14777 14756 14750 14741 14741 14757 14760 14798 14815 14805 14798 14777 14788 14795 14813 14854 14876 14897 14896 14921 14934 14929 14918 14937 14941 14959 15021 15085 15114 15106 15082 15065 15070 15053 15015 15001 14988 14996 14997 14991 14975 14939 14909 14909 14912 14900 14883 14868 14853 14820 14815 14804 14799 14804 14805 14817 14846 14834 14816 14814 14782 14830 14860 14845 14868 14880 14888 14886 14889 14848 14816 14807 14788 14789 14792 14794 14840 14865 14860 14840 14868 14846 14915 14944 14934 14960 14930 14923 14893 14889 14874 14860 14904 14945 14996 15073 15084 15077 15067 15068 15081 15113 15095 15101 15082 15135 15182 15199 15196 15176 15160 15171 15197 15202 15231 15228 15224 15317 15332 15282 15252 15217 15176 15185 15215 15260 15363 15492 15632 15751 15901 15961 16028 16005 16000 16035 16082 16132 16149 16154 16135 16105 16064 15994 15923 15875 15864 15817 15800 15822 15816 15799 15766 15704 15668 15632 15640 15647 15636 15619 15589 15562 15522 15504 15461 15463 15454 15425 15414 15377 15320 15309 15277 15264 15248 15210 15176 15171 15130 15129 15122 15117 15086 15046 15085 15077 15019 14962 14954 14934 14894 14843 14815 14797 14844 14873 14875 14848 14810 14787 14787 14734 14673 14652 14644 14674 14708 14731 14749 14719 14757 14804 14778 14781 14808 14796 14790 14781 14734 14674 14640 14593 14614 14666 14682 14654 14609 14586 14562 14546 14571 14562 14604 14663 14716 14693 14646 14607 14585 14588 14650 14658 14645 14646 14658 14711 14723 14764 14806 14805 14903 14997 15049 15142 15169 15249 15316 15367 15396 15387 15404 15440 15469 15515 15615 15699 15775 15813 15802 15789 15801 15852 15898 15918 15927 15904 15947 15950 15948 15953 15938 15975 15959 15953 15911 15856 15852 15841 15841 15823 15821 15815 15801 15789 15760 15755 15763 15709 15699 15702 15694 15633 15625 15617 15605 15576 15572 15561 15565 15564 15567 15575 15591 15611 15605 15590 15596 15554 15538 15513 15523 15563 15574 15586 15606 15599 15589 15604 15606 15605 15628 15623 15632 15648 15657 15642 15618 15617 15629 15609 15602 15584 15604 15601 15618 15566 15582 15627 15682 15696 15673 15643 15619 15618 15609 15612 15588 15578 15561 15554 15528 15536 15511 15486 15485 15461 15424 15380 15347 15326 15314 15315 15302 15309 15301 15311 15281 15285 15265 15274 15282 15256 15255 15258 15258 15255 15237 15237 15229 15213 15201 15223 15215 15236 15248 15266 15288 15279 15267 15230 15246 15228 15267 15272 15301 15348 15374 15394 15385 15408 15413 15447 15467 15511 15506 15469 15449 15462 15471 15463 15445 15434 15426 15420 15443 15436 15453 15434 15446 15446 15435 15428 15408 15388 15372 15377 15370 15362 15357 15362 15368 15339 15347 15322 15324 15325 15312 15289 15278 15274 15266 15291 15340 15345 15318 15296 15271 15288 15322 15309 15300 15303 15314 15336 15358 15468 15585 15653 15725 15757 15773 15888 16024 16108 16225 16313 16364 16403 16452 16489 16535 16580 16614 16616 16649 16709 16707 16727 16739 16749 16751 16750 16805 16807 16845 16856 16882 16873 16861 16871 16877 16938 16987 17010 17086 17118 17203 17249 17361 17450 17527 17582 17665 17616 17480 17307 17235 17137 17111 17043 16973 16908 16850 16812 16762 16727 16692 16624 16618 16578 16549 16479 16429 16375 16352 16299 16272 16236 16215 16186 16152 16118 16102 16060 16045 16036 16035 16020 15973 15892 15821 15827 15814 15843 15859 15841 15810 15764 15737 15760 15773 15778 15773 15746 15694 15631 15577 15577 15558 15546 15536 15547 15568 15585 15580 15606 15630 15682 15760 15821 15823 15831 15857 15902 15974 15994 16029 16046 16061 16065 16065 16047 16021 16031 16004 15986 15972 15953 15912 15822 15841 15804 15776 15769 15741 15732 15762 15733 15773 15803 15805 15798 15798 15862 15882 15914 15940 15974 15971 15955 16001 16027 16059 16051 16061 16072 16069 16096 16140 16119 16145 16190 16174 16175 16184 16180 16183 16217 16210 16240 16264 16298 16361 16348 16412 16436 16472 16480 16481 16488 16511 16538 16636 16763 16844 16959 17097 17177 17279 17314 17324 17412 17427 17482 17530 17542 17554 17486 17522 17450 17448 17414 17376 17348 17334 17260 17267 17263 17253 17229 17226 17199 17197 17205 17159 17139 17095 17072 17066 17050 17034 16992 17012 17002 16933 17000 16991 16980 16987 16988 16956 16970 16891 16880 16878 16857 16849 16838 16832 16811 16790 16788 16787 16827 16791 16818 16811 16806 16807 16790 16725 16719 16673 16671 16656 16659 16630 16620 16580 16619 16571 16580 16588 16575 16559 16540 16551 16510 16470 16467 16402 16416 16386 16397 16355 16385 16404 16358 16386 16321 16378 16359 16382 16377 16312 16313 16316 16291 16262 16254 16235 16226 16223 16162 16169 16162 16137 16127 16081 16097 16078 16048 16025 16009 15982 15972 15976 15984 15966 15956 15973 15938 16001 15987 16022 16038 16047 16076 16075 16099 16080 16061 16090 16103 16120 16140 16139 16140 16141 16171 16178 16222 16237 16279 16257 16301 16270 16250 16286 16295 16322 16339 16338 16372 16397 16438 16473 16471 16512 16533 16566 16573 16556 16539 16548 16568 16581 16598 16587 16591 16583 16581 16583 16568 16608 16608 16607 16637 16602 16598 16563 16554 16551 16541 16552 16525 16517 16522 16518 16516 16535 16522 16508 16537 16511 16501 16471 16458 16470 16472 16471 16488 16521 16545 16559 16570 16574 16617 16634 16649 16674 16673 16662 16634 16608 16598 16594 16594 16610 16611 16627 16654 16640 16610 16639 16653 16641 16699 16720 16710 16732 16695 16663 16689 16642 16673 16659 16689 16686 16668 16660 16697 16698 16708 16680 16708 16642 16628 16599 16588 16579 16612 16609 16625 16677 16655 16671 16716 16691 16677 16707 16720 16664 16644 16636 16612 16598 16626 16601 16576 16608 16573 16556 16536 16503 16498 16454 16440 16440 16451 16445 16396 16367 16423 16381 16387 16378 16300 16300 16274 16260 16278 16259 16249 16236 16225 16180 16155 16108 16088 16053 16021 16003 15985 15938 15919 15891 15887 15860 15864 15847 15849 15860 15825 15775 15741 15716 15717 15680 15730 15808 15859 15872 15948 16021 16007 16005 16061 16044 16026 16088 16121 16130 16114 16150 16159 16173 16202 16220 16222 16237 16267 16264 16278 16277 16294 16268 16234 16221 16228 16245 16245 16258 16265 16298 16312 16375 16397 16387 16395 16395 16418 16421 16396 16354 16317 16279 16297 16295 16303 16314 16315 16333 16320 16330 16345 16353 16354 16373 16338 16321 16283 16260 16254 16295 16308 16311 16325 16342 16362 16384 16428 16443 16474 16469 16474 16459 16409 16354 16334 16286 16277 16244 16232 16201 16195 16193 16164 16221 16231 16250 16271 16263 16253 16250 16256 16256 16268 16260 16249 16232 16231 16242 16254 16282 16268 16278 16295 16320 16363 16390 16422 16417 16407 16408 16436 16431 16498 16485 16462 16496 16462 16505 16514 16544 16544 16541 16537 16539 16493 16461 16438 16433 16399 16436 16411 16398 16403 16379 16376 16381 16344 16366 16372 16355 16408 16385 16350 16344 16315 16332 16319 16292 16270 16261 16268 16259 16261 16287 16275 16318 16321 16310 16331 16326 16306 16310 16322 16339 16368 16372 16387 16384 16360 16415 16410 16411 16423 16431 16436 16482 16476 16408 16376 16359 16319 16322 16348 16377 16369 16346 16339 16342 16344 16331 16349 16325 16306 16285 16270 16207 16201 16178 16142 16163 16135 16159 16160 16147 16132 16184 16186 16195 16254 16306 16412 16495 16583 16656 16700 16757 16774 16790 16765 16682 16626 16583 16513 16527 16470 16502 16443 16400 16396 16315 16345 16318 16332 16242 16241 16238 16210 16203 16201 16228 16269 16255 16261 16290 16306 16309 16261 16223 16194 16163 16036 16152 16159 16168 16140 16124 16146 16136 16132 16159 16164 16158 16141 16145 16137 16153 16163 16112 16090 16038 15997 15969 15934 15904 15889 15834 15828 15804 15774 15754 15751 15730 15707 15709 15676 15646 15597 15543 15522 15529 15555 15605 15623 15613 15596 15617 15582 15616 15636 15693 15718 15756 15744 15789 15768 15751 15764 15775 15790 15827 15878 15934 15948 15949 15968 15997 16050 16065 16079 16087 16100 16108 16085 16036 16027 16046 16023 16033 16039 16082 16091 16135 16202 16263 16340 16391 16409 16410 16403 16395 16386 16387 16338 16286 16257 16222 16217 16241 16281 16314 16360 16425 16468 16532 16559 16602 16593 16592 16607 16588 16577 16573 16550 16586 16617 16594 16622 16631 16612 16610 16609 16648 16657 16657 16644 16634 16606 16580 16558 16530 16514 16484 16434 16417 16374 16367 16384 16361 16359 16380 16389 16395 16457 16489 16487 16486 16501 16518 16550 16531 16552 16552 16524 16521 16532 16548 16523 16502 16457 16405 16348 16308 16319 16296 16322 16317 16315 16325 16325 16411 16497 16625 16718 16749 16817 16840 16833 16813 16708 16685 16673 16660 16640 16622 16585 16541 16502 16452 16448 16390 16357 16326 16282 16275 16239 16218 16206 16175 16196 16224 16245 16287 16333 16353 16446 16502 16653 16687 16721 16746 16735 16766 16778 16820 16856 16910 16961 17052 17035 16916 16839 16767 16672 16586 16520 16432 16358 16314 16260 16193 16154 16091 16042 16001 15928 15847 15789 15730 15651 15597 15533 15460 15382 15299 15249 15196 15177 15121 15106 15086 15074 15012 14979 14931 14910 14861 14883 14905 14883 14833 14796 14782 14784 14786 14771 14736 14710 14733 14757 14861 15002 15129 15276 15395 15509 15632 15762 15810 15896 15865 15858 15832 15806 15739 15749 15763 15817 15835 15793 15729 15680 15636 15583 15543 15484 15482 15501 15524 15553 15549 15556 15532 15484 15401 15305 15242 15177 15130 15089 15033 14974 14908 14832 14797 14766 14774 14859 14957 15002 15025 14998 14939 14907 14895 14858 14842 14836 14917 15016 15109 15205 15291 15384 15458 15522 15561 15585 15591 15572 15544 15559 15561 15501 15513 15509 15478 15446 15446 15407 15381 15356 15352 15377 15382 15496 15522 15534 15591 15679 15716 15743 15790 15838 15858 15911 15930 15972 16034 16116 16216 16271 16350 16402 16463 16494 16512 16454 16407 16374 16356 16320 16338 16354 16372 16390 16428 16463 16486 16525 16504 16436 16349 16276 16187 16132 16057 15998 15943 15892 15837 15798 15751 15710 15676 15626 15596 15566 15520 15443 15388 15340 15321 15329 15327 15362 15362 15376 15392 15426 15484 15564 15621 15685 15766 15789 15767 15738 15695 15707 15706 15715 15706 15704 15680 15647 15636 15612 15583 15559 15533 15563 15547 15522 15438 15414 15366 15359 15367 15361 15375 15378 15383 15396 15371 15395 15399 15412 15430 15456 15442 15402 15378 15367 15369 15365 15364 15348 15339 15328 15312 15275 15248 15219 15225 15215 15177 15145 15083 14996 14921 14882 14859 14842 14867 14886 14868 14844 14823 14833 14811 14799 14789 14776 14744 14715 14664 14660 14644 14646 14667 14709 14713 14729 14736 14725 14698 14702 14705 14704 14706 14703 14668 14600 14561 14527 14530 14532 14536 14516 14506 14478 14470 14456 14453 14452 14438 14544 14551 14537 14514 14463 14422 14479 14520 14539 14559 14575 14549 14551 14562 14514 14485 14494 14471 14414 14370 14307 14282 14238 14224 14176 14133 14159 14152 14154 14230 14278 14294 14289 14327 14264 14269 14250 14280 14292 14339 14366 14357 14362 14397 14377 14394 14370 14376 14366 14331 14306 14240 14200 14198 14200 14167 14151 14175 14187 14202 14187 14199 14194 14190 14206 14270 14343 14373 14487 14612 14799 15021 15250 15418 15574 15769 15881 15955 15985 15989 15994 15951 15931 15911 15889 15832 15816 15792 15807 15788 15751 15726 15711 15687 15676 15639 15617 15606 15596 15598 15595 15539 15514 15486 15451 15447 15421 15402 15417 15393 15371 15363 15306 15287 15262 15260 15258 15234 15195 15181 15241 15286 15293 15401 15475 15485 15534 15584 15589 15625 15650 15661 15734 15776 15789 15756 15725 15737 15702 15724 15712 15694 15705 15672 15672 15694 15720 15720 15760 15780 15797 15803 15789 15740 15666 15613 15607 15577 15614 15643 15682 15741 15741 15776 15804 15829 15858 15886 15864 15879 15831 15824 15812 15813 15785 15826 15812 15861 15913 15926 15948 15973 15951 15973 15953 15926 15892 15829 15807 15803 15782 15797 15780 15767 15769 15762 15782 15816 15810 15832 15823 15842 15853 15796 15766 15718 15667 15686 15682 15668 15663 15638 15619 15594 15584 15584 15602 15599 15613 15600 15572 15556 15536 15527 15560 15561 15569 15594 15610 15613 15646 15669 15716 15774 15807 15860 15866 15880 15805 15770 15723 15686 15690 15701 15685 15698 15685 15686 15709 15697 15715 15690 15672 15676 15663 15622 15597 15570 15563 15562 15537 15525 15542 15549 15554 15563 15572 15570 15548 15533 15540 15523 15481 15423 15397 15365 15328 15317 15278 15251 15224 15207 15203 15219 15205 15244 15292 15317 15395 15423 15448 15481 15489 15508 15518 15489 15495 15450 15428 15413 15427 15451 15471 15471 15466 15450 15440 15412 15358 15388 15394 15417 15478 15507 15561 15638 15709 15739 15824 15842 15866 15907 15918 15878 15834 15793 15728 15688 15680 15650 15637 15596 15587 15574 15554 15545 15519 15489 15485 15506 15512 15555 15569 15572 15560 15578 15556 15512 15521 15500 15460 15414 15375 15342 15303 15272 15242 15179 15094 15049 14999 14975 14936 14914 14912 14884 14912 14914 14937 14915 14943 14942 14938 15013 15006 14985 14958 14907 14867 14828 14813 14786 14755 14751 14795 14870 14909 14990 15032 15059 15037 15054 15028 15022 15063 15078 15076 15104 15088 15130 15164 15142 15164 15152 15136 15130 15128 15071 15076 15038 14994 15019 15012 15062 15090 15112 15155 15188 15190 15234 15280 15322 15365 15354 15363 15345 15301 15266 15299 15281 15297 15320 15399 15443 15453 15481 15503 15551 15577 15591 15598 15606 15592 15697 15739 15776 15791 15822 15838 15876 15860 15894 15906 15899 15933 15923 15929 15934 15937 15905 15850 15799 15795 15833 15878 15913 15964 16007 16051 16135 16271 16301 16349 16419 16470 16506 16494 16454 16423 16385 16398 16381 16351 16309 16245 16200 16174 16143 16103 16116 16149 16150 16138 16090 16053 16084 16086 16098 16109 16109 16080 16073 16056 16059 16030 15999 16020 16024 16023 16046 16019 15980 15953 15942 15953 15940 15917 15911 15866 15869 15855 15859 15881 15865 15860 15855 15869 15834 15800 15794 15804 15808 15789 15779 15768 15743 15728 15709 15717 15742 15778 15792 15808 15803 15782 15750 15738 15713 15752 15720 15765 15791 15791 15798 15801 15794 15785 15797 15801 15815 15783 15742 15714 15702 15679 15675 15676 15706 15686 15680 15653 15662 15650 15661 15643 15618 15568 15480 15452 15412 15444 15478 15505 15527 15535 15533 15549 15618 15658 15717 15751 15766 15803 15780 15727 15707 15704 15705 15726 15727 15782 15781 15810 15809 15827 15856 15877 15902 15942 15965 15969 15956 15949 15943 15912 15899 15891 15894 15887 15872 15850 15820 15779 15790 15757 15735 15698 15637 15578 15547 15531 15529 15530 15511 15522 15582 15625 15686 15718 15753 15755 15792 15800 15789 15747 15706 15708 15675 15669 15662 15632 15596 15571 15547 15532 15520 15547 15548 15548 15574 15562 15533 15507 15492 15487 15519 15545 15554 15570 15636 15689 15701 15697 15688 15671 15643 15591 15528 15466 15394 15363 15311 15304 15274 15239 15220 15229 15254 15289 15335 15354 15401 15421 15411 15400 15416 15513 15571 15649 15722 15762 15818 15851 15870 15880 15861 15866 15858 15873 15852 15788 15728 15677 15642 15632 15604 15600 15601 15576 15577 15572 15575 15601 15635 15679 15720 15751 15747 15724 15695 15668 15698 15704 15712 15696 15668 15658 15626 15582 15560 15536 15507 15486 15427 15375 15358 15352 15375 15415 15447 15493 15528 15584 15625 15684 15708 15740 15779 15816 15843 15819 15768 15723 15684 15667 15627 15603 15614 15580 15558 15561 15555 15559 15564 15569 15574 15525 15465 15441 15430 15420 15403 15391 15418 15435 15473 15494 15496 15496 15497 15514 15503 15516 15467 15397 15341 15319 15272 15280 15268 15327 15349 15334 15393 15415 15396 15489 15496 15484 15487 15486 15542 15573 15644 15670 15709 15743 15796 15800 15814 15796 15765 15769 15757 15777 15747 15704 15637 15590 15552 15581 15573 15585 15585 15555 15563 15545 15535 15540 15563 15589 15589 15567 15539 15503 15505 15498 15495 15478 15459 15434 15428 15413 15374 15334 15303 15296 15262 15206 15185 15142 15129 15138 15155 15184 15190 15191 15212 15239 15278 15331 15359 15427 15451 15448 15458 15465 15535 15585 15594 15599 15603 15577 15552 15514 15488 15460 15454 15460 15450 15446 15428 15399 15386 15386 15389 15394 15395 15407 15414 15429 15457 15506 15514 15528 15516 15495 15479 15476 15478 15448 15479 15460 15438 15396 15396 15364 15350 15398 15398 15404 15433 15451 15488 15465 15556 15601 15661 15739 15807 15860 15920 15970 16014 16013 16059 16083 16116 16132 16117 16089 16047 16025 16011 16023 16035 16053 16046 16059 16054 16087 16152 16224 16293 16364 16394 16393 16393 16371 16369 16364 16370 16366 16348 16341 16314 16301 16290 16255 16239 16202 16204 16150 16096 16017 15977 15938 15908 15875 15844 15809 15798 15781 15772 15773 15762 15786 15836 15860 15857 15882 15915 15916 15936 15935 15939 15949 15942 15932 15906 15912 15892 15883 15882 15869 15835 15771 15690 15618 15573 15548 15503 15503 15477 15449 15443 15408 15398 15376 15369 15360 15358 15303 15262 15243 15272 15331 15477 15543 15552 15605 15621 15581 15614 15640 15633 15634 15659 15616 15559 15519 15450 15416 15394 15373 15350 15336 15317 15305 15270 15250 15231 15221 15235 15282 15300 15325 15370 15388 15419 15440 15458 15464 15486 15529 15557 15577 15596 15601 15630 15641 15684 15627 15594 15575 15561 15555 15524 15493 15448 15449 15410 15378 15303 15262 15238 15220 15265 15330 15322 15276 15269 15270 15262 15285 15267 15243 15219 15180 15205 15238 15249 15265 15267 15248 15210 15165 15163 15170 15196 15254 15282 15311 15364 15391 15392 15402 15384 15357 15381 15410 15431 15396 15391 15379 15366 15362 15338 15323 15305 15278 15242 15221 15179 15161 15152 15130 15132 15105 15063 15021 15005 14999 14998 15030 15038 15067 15116 15203 15229 15226 15320 15370 15421 15471 15509 15543 15530 15563 15570 15597 15592 15603 15616 15611 15617 15615 15613 15621 15618 15610 15563 15497 15446 15386 15369 15349 15330 15296 15252 15228 15196 15168 15118 15096 15093 15084 15095 15062 15047 15047 15047 15072 15239 15279 15367 15392 15436 15451 15515 15531 15575 15602 15629 15675 15687 15641 15649 15631 15643 15645 15642 15657 15653 15647 15651 15679 15649 15686 15660 15636 15618 15619 15609 15617 15593 15595 15601 15610 15626 15669 15689 15694 15712 15704 15723 15732 15735 15696 15637 15572 15535 15504 15488 15468 15444 15415 15383 15368 15369 15374 15398 15401 15426 15458 15441 15453 15450 15496 15524 15529 15534 15554 15558 15556 15571 15553 15545 15524 15526 15518 15482 15424 15348 15311 15290 15305 15344 15380 15397 15403 15407 15403 15406 15450 15497 15561 15722 15645 15638 15647 15622 15627 15640 15652 15667 15635 15650 15674 15646 15667 15653 15657 15647 15612 15552 15514 15448 15424 15395 15384 15340 15334 15309 15296 15276 15273 15267 15285 15288 15271 15244 15201 15181 15189 15241 15328 15412 15500 15607 15673 15726 15770 15795 15802 15803 15800 15816 15732 15721 15693 15656 15645 15615 15607 15569 15540 15545 15535 15525 15530 15508 15494 15445 15382 15325 15304 15330 15368 15389 15411 15419 15424 15417 15448 15503 15555 15599 15646 15702 15649 15599 15550 15511 15483 15456 15430 15396 15366 15334 15311 15278 15254 15185 15152 15110 15058 15012 14966 14952 14959 14972 14947 14937 14935 14916 14923 14925 14912 14934 14964 15021 15085 15139 15245 15321 15396 15439 15489 15535 15566 15587 15598 15610 15595 15582 15562 15541 15483 15400 15325 15258 15215 15191 15163 15155 15166 15173 15190 15215 15265 15308 15318 15345 15350 15351 15337 15360 15389 15426 15457 15448 15479 15477 15463 15430 15472 15478 15478 15469 15425 15379 15322 15273 15223 15194 15174 15150 15142 15114 15098 15098 15135 15192 15164 15152 15151 15220 15220 15276 15332 15356 15367 15359 15396 15401 15433 15502 15612 15710 15807 15866 15851 15798 15764 15685 15674 15686 15700 15736 15773 15824 15834 15868 15889 15904 15900 15872 15811 15771 15720 15672 15641 15601 15549 15493 15447 15396 15324 15289 15276 15284 15288 15287 15280 15288 15239 15224 15222 15237 15255 15231 15231 15213 15196 15173 15158 15193 15242 15350 15472 15596 15804 15945 16077 16124 16176 16228 16253 16260 16281 16278 16260 16205 16126 16059 16009 15996 15983 15999 16022 16051 16044 16064 16048 16061 16063 16080 16067 16034 16010 15982 15954 15937 15937 15936 15939 15922 15909 15940 15962 16003 16077 16111 16099 16080 16068 16039 16024 16003 15983 15971 15966 15933 15909 15902 15911 15921 15938 15975 15988 15989 16029 16040 16054 16058 16055 16054 16079 16079 16095 16078 16079 16089 16093 16084 16079 16080 16095 16150 16208 16263 16287 16313 16334 16346 16344 16338 16323 16282 16216 16160 16114 16063 16010 16004 15974 15958 15955 15971 15965 15976 16006 16036 16109 16097 16082 16065 16054 16071 16030 16033 16013 16003 15994 15993 16019 16049 16084 16101 16107 16140 16183 16218 16256 16286 16294 16299 16274 16253 16245 16222 16193 16151 16068 15996 15937 15898 15868 15830 15798 15779 15759 15741 15739 15765 15787 15802 15811 15810 15788 15810 15825 15832 15858 15895 15909 15898 15915 15940 15962 16020 16071 16087 16103 16129 16142 16159 16147 16152 16132 16109 16079 16055 15997 15969 15924 15838 15747 15639 15558 15471 15417 15371 15333 15306 15295 15286 15281 15301 15315 15290 15263 15245 15253 15262 15314 15349 15414 15537 15635 15675 15721 15853 16007 16166 16234 16290 16304 16356 16397 16406 16417 16404 16392 16370 16351 16338 16302 16248 16155 16072 16000 15971 15919 15880 15858 15822 15822 15813 15843 15855 15861 15892 15872 15806 15757 15731 15711 15682 15686 15699 15685 15667 15664 15677 15743 15809 15844 15869 15913 15982 16047 16131 16234 16276 16276 16241 16212 16193 16147 16097 16021 15916 15839 15780 15714 15684 15653 15609 15588 15582 15577 15592 15627 15665 15707 15705 15676 15655 15673 15688 15697 15700 15695 15699 15727 15740 15740 15795 15900 15989 16071 16127 16186 16251 16281 16314 16308 16279 16236 16207 16162 16119 16095 16056 16008 15921 15866 15828 15807 15777 15755 15715 15716 15739 15780 15825 15879 15906 15867 15833 15772 15777 15781 15780 15835 15877 15929 15965 16007 16072 16122 16180 16226 16242 16239 16251 16280 16311 16339 16349 16333 16306 16242 16189 16129 16083 16039 15945 15845 15732 15661 15597 15531 15470 15460 15458 15482 15515 15565 15605 15635 15626 15595 15575 15569 15582 15632 15691 15778 15855 15919 15983 16071 16150 16258 16344 16365 16374 16370 16359 16337 16320 16298 16269 16208 16173 16117 16084 16054 16034 15983 15909 15839 15806 15783 15767 15762 15766 15763 15769 15780 15754 15749 15744 15714 15658 15604 15576 15576 15632 15734 15843 15966 16089 16208 16304 16361 16398 16390 16330 16241 16158 16105 16044 16000 15952 15916 15880 15847 15812 15775 15763 15745 15700 15675 15660 15653 15658 15688 15675 15683 15683 15660 15636 15649 15637 15647 15704 15757 15838 15938 16047 16184 16307 16415 16482 16534 16545 16552 16545 16549 16529 16477 16404 16325 16266 16212 16176 16163 16144 16154 16162 16160 16189 16203 16231 16232 16226 16212 16231 16242 16273 16303 16315 16335 16332 16363 16414 16492 16584 16652 16679 16686 16708 16729 16720 16723 16702 16694 16651 16627 16595 16569 16540 16541 16522 16487 16453 16439 16441 16443 16472 16514 16562 16615 16595 16570 16543 16535 16529 16461 16383 16326 16291 16290 16309 16346 16369 16421 16466 16505 16532 16539 16549 16521 16439 16343 16293 16227 16188 16139 16121 16076 16050 16003 15966 15919 15871 15847 15805 15732 15676 15661 15653 15678 15694 15734 15734 15766 15787 15822 15833 15872 15894 15917 15902 15936 15989 16050 16098 16122 16141 16141 16131 16100 16081 16071 16055 16039 15976 15888 15828 15773 15750 15710 15695 15657 15604 15567 15548 15525 15532 15529 15520 15489 15496 15503 15518 15553 15578 15603 15629 15668 15701 15741 15794 15854 15935 15984 16024 16042 16083 16107 16100 16097 16073 16057 16033 15991 15956 15929 15894 15850 15770 15687 15606 15550 15526 15515 15497 15499 15506 15501 15506 15486 15499 15519 15512 15494 15473 15445 15433 15423 15441 15472 15502 15518 15543 15609 15688 15807 15916 15989 16014 15981 15937 15917 15905 15893 15888 15864 15842 15805 15766 15718 15692 15645 15613 15540 15487 15436 15420 15430 15463 15483 15509 15520 15534 15553 15576 15645 15720 15773 15752 15754 15788 15836 15861 15892 15917 15956 16005 16069 16172 16275 16419 16548 16620 16650 16690 16731 16741 16740 16751 16739 16729 16661 16603 16525 16450 16386 16292 16189 16117 16086 16043 16037 16020 16021 16027 16026 16054 16086 16119 16146 16152 16109 16065 16051 16043 16050 16079 16106 16149 16162 16201 16230 16274 16327 16368 16369 16357 16355 16364 16386 16414 16388 16354 16307 16277 16229 16202 16173 16162 16098 16018 15954 15935 15923 15931 15923 15912 15888 15885 15872 15884 15876 15902 15901 15879 15828 15793 15778 15788 15782 15799 15811 15817 15829 15822 15838 15868 15905 15922 15957 16057 16181 16294 16386 16486 16588 16685 16752 16779 16771 16751 16704 16625 16534 16438 16356 16311 16258 16237 16227 16222 16253 16270 16327 16377 16396 16412 16386 16352 16303 16281 16280 16267 16289 16280 16290 16289 16310 16330 16364 16389 16413 16402 16419 16437 16484 16523 16578 16628 16653 16705 16735 16751 16764 16757 16749 16683 16629 16573 16519 16461 16451 16424 16395 16367 16310 16277 16253 16262 16242 16207 16165 16168 16154 16136 16141 16133 16133 16116 16132 16112 16100 16092 16062 16011 15947 15890 15847 15827 15784 15751 15729 15735 15745 15776 15782 15806 15821 15811 15805 15764 15757 15758 15747 15735 15699 15692 15678 15656 15628 15620 15597 15559 15481 15432 15390 15368 15393 15430 15498 15566 15653 15727 15819 15875 15953 16006 16025 16024 16034 16044 16072 16077 16103 16113 16140 16172 16249 16374 16521 16710 16879 17001 17122 17218 17293 17356 17419 17387 17310 17250 17212 17162 17116 17031 16924 16789 16683 16587 16520 16436 16369 16324 16320 16353 16358 16360 16349 16341 16321 16294 16237 16192 16170 16176 16194 16228 16276 16308 16331 16369 16410 16452 16480 16538 16552 16543 16561 16595 16642 16685 16729 16771 16812 16858 16911 16941 16967 16994 16978 16926 16833 16749 16692 16655 16607 16596 16552 16525 16490 16465 16442 16414 16388 16376 16318 16263 16206 16174 16159 16152 16152 16157 16180 16188 16202 16203 16216 16221 16237 16218 16178 16142 16109 16102 16133 16206 16292 16355 16412 16463 16525 16607 16681 16745 16739 16695 16672 16640 16614 16589 16573 16530 16476 16436 16383 16321 16266 16237 16215 16197 16154 16121 16094 16107 16118 16144 16152 16147 16122 16129 16092 16077 16072 16039 15985 15956 15943 15958 15957 15961 15985 16024 16033 16072 16117 16168 16219 16298 16348 16404 16489 16566 16637 16731 16765 16755 16723 16665 16621 16597 16572 16547 16499 16400 16284 16169 16083 16017 15969 15926 15900 15887 15864 15858 15845 15856 15873 15886 15876 15836 15808 15801 15780 15810 15835 15854 15891 15923 15947 15957 15979 15975 15993 15955 15891 15833 15800 15800 15800 15804 15803 15816 15823 15851 15865 15865 15866 15856 15813 15754 15703 15659 15616 15581 15542 15496 15455 15423 15383 15354 15343 15343 15359 15384 15393 15385 15403 15421 15459 15492 15539 15593 15626 15657 15697 15714 15750 15774 15794 15783 15784 15801 15843 15901 15935 15962 15985 16011 16045 16125 16197 16357 16448 16496 16526 16573 16625 16648 16730 16810 16867 16870 16824 16767 16705 16629 16583 16509 16421 16324 16216 16134 16080 16028 15993 15973 15998 16034 16073 16124 16166 16193 16181 16162 16105 16046 15959 15945 15946 15989 16026 16070 16102 16129 16146 16170 16175 16173 16146 16080 16042 16039 16082 16106 16189 16302 16420 16538 16645 16801 16962 17113 17271 17406 17486 17473 17388 17307 17226 17117 17013 16903 16800 16713 16632 16591 16582 16571 16566 16563 16591 16653 16725 16778 16802 16823 16837 16853 16871 16924 16976 17032 17014 16995 16969 16946 16914 16889 16909 16922 16945 16954 17004 17048 17085 17106 17135 17154 17176 17183 17187 17193 17196 17199 17184 17141 17101 17046 16997 16911 16873 16831 16807 16746 16742 16732 16741 16743 16745 16723 16712 16701 16663 16663 16642 16596 16557 16536 16536 16577 16627 16680 16725 16761 16768 16802 16777 16802 16813 16842 16836 16784 16775 16800 16843 16918 16981 17010 17047 17103 17179 17259 17327 17380 17416 17390 17347 17291 17223 17160 17079 17035 16968 16929 16871 16840 16809 16783 16757 16760 16740 16718 16714 16721 16717 16694 16688 16672 16670 16657 16647 16639 16627 16592 16527 16473 16440 16437 16447 16466 16509 16528 16535 16574 16602 16636 16660 16627 16558 16550 16560 16626 16698 16764 16801 16860 16904 16915 16948 16952 16921 16856 16769 16682 16628 16565 16519 16477 16426 16384 16355 16343 16334 16328 16302 16260 16218 16186 16188 16202 16226 16237 16229 16232 16213 16217 16225 16229 16179 16144 16129 16143 16129 16094 16109 16166 16223 16343 16430 16501 16552 16524 16500 16483 16475 16467 16452 16381 16277 16180 16085 16022 15983 15954 15927 15873 15839 15789 15768 15798 15809 15820 15825 15829 15856 15874 15906 15942 15941 15899 15865 15843 15859 15881 15936 15964 16000 16011 16013 16033 16034 16035 15968 15923 15877 15867 15869 15870 15897 15936 15986 16016 16091 16169 16240 16256 16257 16291 16354 16354 16373 16383 16368 16351 16303 16267 16229 16189 16125 16044 15974 15913 15866 15823 15795 15757 15745 15748 15737 15742 15749 15752 15743 15710 15693 15707 15708 15710 15709 15747 15790 15831 15864 15884 15909 15930 15954 15988 16039 16153 16238 16315 16384 16455 16519 16599 16623 16631 16591 16461 16326 16235 16158 16090 16067 16048 16011 15986 15974 15948 15929 15926 15907 15871 15822 15786 15771 15764 15798 15829 15866 15903 15961 16021 16075 16156 16177 16201 16193 16195 16206 16232 16270 16335 16370 16397 16445 16483 16490 16492 16444 16396 16381 16337 16322 16336 16352 16360 16351 16317 16289 16261 16235 16162 16053 15954 15873 15814 15780 15763 15760 15768 15761 15756 15783 15788 15783 15768 15742 15734 15753 15795 15841 15887 15923 15972 16014 16074 16111 16151 16175 16135 16102 16052 15994 16008 16090 16169 16267 16339 16393 16392 16397 16403 16415 16450 16482 16518 16527 16546 16521 16490 16452 16424 16395 16355 16313 16264 16189 16116 16040 16007 15989 15982 15964 15979 16000 16003 15983 15993 16012 16021 16011 15976 15976 15949 15937 15933 15925 15929 15955 15957 15978 16012 16046 16025 15989 15984 16046 16113 16188 16273 16328 16346 16427 16488 16545 16617 16656 16668 16641 16663 16658 16645 16615 16586 16549 16506 16469 16429 16417 16405 16387 16347 16283 16231 16186 16152 16117 16101 16077 16054 16042 16012 16010 15984 15935 15914 15902 15913 15936 15942 15962 15970 15976 15970 15958 15974 15967 15960 15921 15881 15875 15922 16000 16074 16166 16227 16297 16346 16385 16424 16453 16435 16419 16372 16346 16319 16302 16266 16253 16213 16192 16178 16163 16147 16097 16053 16007 15977 15947 15918 15893 15857 15792 15765 15753 15747 15733 15708 15674 15672 15687 15718 15743 15774 15805 15830 15830 15872 15893 15926 15922 15899 15920 15974 16011 16040 16070 16077 16086 16096 16103 16112 16102 16101 16038 15986 15914 15884 15833 15798 15771 15741 15717 15694 15669 15655 15638 15559 15499 15454 15437 15412 15430 15443 15480 15525 15593 15649 15723 15808 15890 15945 15997 16102 16250 16344 16355 16331 16278 16253 16236 16297 16393 16538 16655 16703 16762 16807 16875 16908 16868 16799 16715 16652 16606 16568 16522 16461 16363 16230 16166 16126 16158 16223 16325 16418 16473 16535 16562 16564 16519 16462 16332 16217 16146 16118 16154 16218 16281 16302 16250 16180 16102 16043 15945 15862 15792 15769 15745 15718 15700 15681 15637 15616 15667 15747 15867 16020 16162 16148 16016 16019 16004 15981 15951 15894 15825 15791 15736 15684 15652 15583 15473 15355 15255 15179 15099 15059 15025 15018 14982 14955 14927 14897 14863 14815 14747 14645 14562 14525 14473 14460 14394 14343 14314 14334 14352 14380 14440 14507 14488 14532 14584 14560 14545 14516 14513 14476 14438 14382 14314 14267 14246 14197 14147 14119 14149 14193 14288 14412 14544 14614 14705 14795 14912 15038 15162 15197 15172 15142 15118 15108 15099 15108 15117 15097 15055 15037 15003 14971 14955 14921 14852 14800 14795 14808 14846 14873 14932 15023 15123 15226 15346 15474 15558 15611 15666 15672 15709 15713 15703 15651 15575 15504 15429 15384 15344 15298 15211 15118 15073 15054 15051 15045 15026 15013 15007 15029 15046 15078 15115 15153 15162 15149 15145 15163 15180 15168 15164 15211 15210 15272 15322 15352 15362 15366 15300 15209 15130 15062 15029 15008 14991 14978 14987 15041 15149 15290 15405 15502 15479 15427 15409 15425 15449 15510 15576 15641 15666 15757 15950 16142 16372 16588 16739 16907 17160 17232 17147 17082 17249 17352 17433 17508 17618 17776 17922 18093 18227 18361 18455 18523 18580 18605 18648 18697 18696 18701 18668 18622 18502 18313 18057 17987 17843 17693 17527 17382 17208 17060 16924 16808 16689 16582 16499 16382 16372 16270 16315 16347 16369 16299 16230 16085 15950 15828 15717 15616 15442 15257 15105 15001 14915 14868 14819 14826 14791 14779 14731 14749 14755 14787 14787 14740 14712 14712 14744 14780 14819 14834 14833 14794 14759 14740 14723 14665 14554 14477 14428 14437 14457 14487 14506 14529 14547 14520 14490 14472 14455 14398 14353 14309 14274 14267 14298 14311 14363 14381 14402 14392 14402 14424 14407 14426 14412 14506 14571 14679 14686 14753 14743 14689 14658 14631 14580 14508 14443 14400 14392 14411 14468 14501 14542 14547 14557 14560 14553 14542 14498 14423 14363 14346 14325 14325 14324 14315 14304 14306 14279 14299 14306 14299 14280 14267 14262 14238 14249 14245 14233 14241 14264 14290 14307 14333 14338 14311 14299 14268 14252 14246 14263 14292 14312 14335 14351 14377 14390 14365 14308 14266 14236 14246 14279 14312 14358 14393 14427 14466 14505 14519 14497 14434 14412 14380 14390 14427 14458 14470 14498 14509 14504 14478 14467 14450 14436 14393 14390 14400 14418 14438 14471 14496 14529 14574 14601 14601 14536 14483 14465 14455 14445 14433 14447 14477 14516 14591 14655 14739 14827 14937 15030 15157 15276 15465 15662 15832 16057 16201 16427 16624 16784 16842 16804 16731 16603 16563 16462 16424 16312 16180 16056 15921 15802 15726 15664 15631 15572 15532 15478 15426 15382 15332 15276 15229 15197 15167 15119 15095 15072 15015 14974 14940 14918 14903 14891 14876 14843 14839 14837 14840 14838 14852 14836 14800 14773 14770 14782 14803 14820 14885 14926 14981 15093 15255 15414 15549 15622 15698 15752 15813 15868 15979 16026 16081 16120 16143 16150 16035 15982 15823 15666 15564 15492 15426 15358 15267 15175 15074 15028 14972 14897 14824 14731 14619 14520 14453 14408 14378 14372 14388 14434 14497 14516 14567 14611 14630 14621 14595 14556 14526 14525 14549 14568 14564 14543 14500 14476 14477 14476 14443 14444 14429 14410 14399 14413 14440 14465 14516 14613 14674 14716 14720 14728 14727 14617 14533 14466 14383 14354 14316 14297 14290 14295 14310 14339 14371 14411 14383 14376 14399 14420 14459 14538 14600 14651 14683 14736 14768 14811 14850 14860 14847 14800 14795 14798 14778 14763 14823 14874 14941 15005 15060 15179 15248 15309 15416 15523 15707 16005 16282 16499 16676 16800 16896 16942 16976 16999 17047 17054 17018 16964 16909 16866 16816 16750 16677 16591 16491 16387 16310 16245 16181 16133 16076 16048 16024 16039 16070 16118 16172 16210 16259 16271 16274 16261 16210 16146 16082 16027 15923 15889 15863 15832 15788 15743 15731 15743 15743 15736 15677 15658 15626 15601 15577 15577 15579 15578 15535 15533 15543 15536 15479 15435 15356 15296 15243 15191 15169 15173 15192 15212 15229 15235 15250 15257 15202 15131 15044 14999 14980 14996 15076 15155 15197 15231 15289 15331 15389 15387 15335 15270 15216 15136 15085 15053 15039 15040 15010 15038 15053 15077 15087 15063 15027 15009 15027 15025 15073 15093 15127 15112 15093 15047 15058 15056 15019 14915 14800 14732 14668 14619 14559 14519 14482 14461 14431 14452 14465 14491 14512 14492 14493 14556 14611 14667 14738 14800 14873 14950 14994 15038 15073 15097 15074 15033 14945 14897 14882 14871 14915 14932 14972 14997 15022 15057 15086 15119 15080 15070 15114 15167 15216 15292 15350 15366 15337 15329 15342 15327 15300 15262 15223 15136 15140 15122 15125 15167 15154 15157 15175 15212 15257 15309 15376 15450 15537 15648 15683 15728 15778 15853 15899 15908 15922 15922 15904 15913 15883 15853 15815 15779 15764 15795 15805 15845 15876 15916 15970 16007 16056 16118 16190 16262 16314 16331 16336 16313 16279 16213 16178 16115 16113 16067 16078 16065 16005 15930 15896 15866 15843 15824 15830 15866 15917 15923 15918 15915 15919 15897 15896 15883 15839 15787 15752 15728 15724 15716 15733 15747 15763 15798 15846 15870 15889 15950 16013 16093 16182 16245 16311 16356 16397 16453 16484 16443 16440 16365 16273 16196 16116 16035 15957 15909 15832 15771 15708 15635 15580 15582 15587 15585 15528 15493 15453 15443 15450 15464 15492 15507 15522 15500 15499 15528 15560 15571 15588 15649 15674 15659 15681 15735 15808 15870 15945 16021 16116 16211 16269 16290 16290 16255 16174 16099 16006 15918 15828 15776 15750 15693 15640 15563 15463 15408 15407 15465 15498 15540 15540 15542 15521 15495 15466 15456 15410 15386 15332 15310 15324 15327 15358 15380 15429 15485 15552 15585 15600 15637 15629 15618 15596 15649 15690 15708 15719 15697 15684 15678 15637 15617 15597 15566 15502 15418 15368 15318 15282 15259 15316 15356 15447 15485 15554 15555 15556 15550 15523 15510 15523 15531 15566 15614 15621 15664 15706 15735 15793 15845 15893 15911 15947 15946 15978 15995 16044 16080 16129 16146 16162 16177 16167 16143 16106 16018 15940 15846 15800 15767 15719 15673 15656 15609 15647 15730 15836 15917 15989 15974 15955 15947 15936 15961 15986 15959 15951 15939 15940 15967 15987 15995 16007 15983 16000 16032 16067 16132 16186 16206 16229 16238 16208 16184 16150 16122 16057 16001 15949 15941 15932 15941 15926 15924 15923 15899 15837 15774 15744 15692 15665 15592 15546 15509 15503 15538 15593 15662 15685 15729 15744 15767 15787 15822 15810 15811 15813 15781 15756 15765 15764 15810 15858 15924 15992 16056 16118 16183 16211 16185 16144 16068 15992 15914 15870 15828 15775 15767 15759 15720 15683 15631 15577 15499 15422 15390 15382 15380 15377 15361 15359 15347 15351 15367 15411 15440 15450 15442 15421 15425 15443 15486 15529 15526 15569 15600 15589 15576 15693 15825 15805 15849 15838 15850 15883 15905 15927 15954 15965 15922 15887 15889 15852 15828 15756 15644 15526 15431 15377 15318 15292 15272 15258 15235 15219 15222 15205 15236 15222 15181 15177 15179 15196 15210 15197 15201 15200 15191 15189 15210 15245 15269 15253 15232 15257 15363 15431 15593 15781 15922 16054 16166 16236 16277 16320 16304 16206 16088 15962 15862 15807 15756 15677 15623 15537 15469 15408 15319 15243 15138 15057 15031 15034 15044 15077 15109 15154 15201 15238 15263 15297 15355 15371 15326 15287 15265 15226 15246 15256 15278 15285 15307 15283 15328 15344 15340 15345 15358 15380 15448 15542 15651 15747 15799 15811 15813 15787 15754 15713 15662 15557 15453 15369 15282 15225 15146 15087 15032 14990 14929 14910 14880 14915 14967 14994 15025 15044 15071 15066 15114 15168 15210 15251 15311 15329 15370 15388 15433 15431 15423 15457 15455 15512 15598 15701 15811 15943 16101 16207 16363 16489 16550 16575 16581 16580 16557 16526 16501 16463 16393 16288 16182 16089 16027 15975 15898 15814 15736 15695 15654 15623 15603 15575 15562 15537 15535 15550 15565 15598 15612 15604 15580 15579 15592 15596 15590 15595 15585 15618 15604 15606 15609 15619 15601 15592 15602 15625 15674 15740 15837 15941 16077 16169 16237 16279 16305 16307 16280 16204 16128 16065 16031 15983 15932 15853 15790 15714 15608 15525 15448 15388 15315 15252 15200 15211 15253 15297 15355 15400 15418 15415 15408 15384 15373 15333 15305 15262 15276 15281 15316 15327 15361 15403 15426 15531 15597 15680 15734 15793 15742 15740 15760 15799 15825 15826 15800 15734 15731 15709 15722 15707 15659 15594 15525 15464 15413 15363 15334 15313 15299 15281 15271 15251 15261 15270 15258 15226 15184 15159 15174 15206 15251 15271 15291 15287 15305 15350 15371 15429 15470 15493 15561 15636 15739 15815 15892 15947 15994 15992 15953 15882 15841 15772 15742 15688 15627 15554 15508 15469 15437 15398 15374 15361 15331 15317 15311 15285 15223 15161 15114 15092 15101 15130 15202 15287 15372 15479 15553 15623 15688 15728 15725 15715 15730 15731 15772 15818 15876 15891 15897 15920 15925 15958 15998 16007 16020 16026 15982 15977 15910 15865 15854 15819 15760 15680 15602 15557 15504 15472 15375 15298 15216 15140 15077 15034 15011 14978 15013 15021 15058 15104 15191 15211 15202 15188 15180 15180 15223 15230 15261 15264 15320 15341 15362 15427 15464 15490 15540 15588 15670 15754 15863 15962 16093 16202 16250 16282 16268 16259 16204 16125 16003 15910 15815 15761 15683 15650 15642 15606 15565 15529 15482 15421 15365 15275 15201 15127 15107 15110 15116 15128 15160 15161 15174 15221 15254 15269 15309 15277 15257 15272 15277 15327 15376 15419 15458 15521 15546 15609 15668 15725 15767 15730 15668 15596 15542 15487 15480 15435 15366 15326 15259 15209 15146 15068 15033 14943 14871 14867 14874 14917 14986 15036 15085 15128 15125 15181 15216 15248 15237 15203 15176 15147 15160 15161 15166 15199 15209 15217 15247 15264 15299 15342 15451 15519 15615 15702 15777 15829 15859 15865 15854 15802 15764 15686 15592 15488 15378 15295 15214 15169 15133 15127 15100 15099 15109 15113 15156 15174 15215 15242 15234 15234 15266 15303 15343 15399 15426 15452 15472 15485 15493 15515 15535 15548 15520 15533 15550 15576 15630 15683 15762 15800 15880 15891 15903 15872 15850 15791 15721 15619 15530 15461 15388 15328 15275 15230 15186 15165 15160 15114 15119 15127 15152 15171 15195 15234 15242 15274 15300 15321 15335 15356 15393 15411 15440 15434 15412 15409 15400 15449 15511 15544 15552 15564 15555 15554 15535 15523 15518 15473 15353 15303 15232 15203 15182 15157 15170 15148 15089 14988 14920 14855 14787 14714 14622 14562 14540 14544 14563 14589 14646 14630 14722 14792 14853 14920 14979 15018 15021 15035 15025 15047 15114 15154 15195 15233 15241 15274 15254 15255 15285 15268 15190 15118 15060 15019 14976 14956 14928 14898 14843 14802 14775 14731 14679 14597 14460 14387 14338 14317 14277 14261 14245 14249 14231 14247 14275 14309 14374 14458 14462 14481 14488 14510 14567 14632 14723 14801 14856 14896 14917 14941 15002 15019 14984 14959 14944 14910 14996 15038 15074 15077 15084 15080 15064 15024 14950 14848 14805 14756 14694 14648 14607 14588 14544 14556 14602 14655 14721 14826 14928 14998 14988 14952 14930 14928 14940 14952 14955 14921 14913 14927 14923 14927 14964 14983 14979 14973 14989 15003 15012 15034 15041 15076 15105 15161 15197 15247 15272 15295 15288 15312 15329 15357 15425 15435 15445 15429 15460 15453 15442 15385 15327 15232 15129 15057 14982 14936 14892 14893 14907 14940 14959 14987 15023 15044 15086 15038 14994 14940 14893 14873 14843 14862 14872 14876 14894 14936 15003 15049 15119 15170 15177 15170 15181 15206 15245 15300 15332 15350 15347 15351 15378 15436 15480 15503 15522 15580 15608 15828 15914 16020 16058 16129 16142 16168 16187 16172 16122 15968 15847 15725 15618 15533 15454 15390 15370 15312 15267 15216 15190 15173 15131 15091 14996 14976 14929 14913 14910 14919 14937 14961 14975 14971 15008 15019 15022 14993 14928 14932 14940 14978 15043 15084 15148 15236 15342 15442 15502 15558 15578 15517 15428 15310 15235 15167 15101 15009 14920 14872 14814 14764 14708 14652 14627 14564 14455 14402 14394 14382 14421 14485 14504 14509 14518 14525 14528 14528 14524 14474 14389 14344 14320 14311 14333 14366 14385 14439 14476 14563 14620 14673 14730 14774 14842 14848 14869 14848 14848 14864 14856 14817 14769 14749 14726 14683 14635 14589 14528 14408 14327 14300 14315 14365 14413 14486 14548 14632 14701 14741 14828 14898 14997 15041 15022 15007 14990 14994 14969 15013 15023 15008 14992 14980 14956 14935 14935 14904 14874 14813 14836 14830 14846 14893 14966 14967 14997 15068 15142 15196 15196 15167 15138 15068 14990 14968 14956 14932 14902 14834 14752 14702 14668 14646 14606 14627 14657 14629 14649 14692 14743 14811 14873 14927 14946 14979 15027 15063 15087 15121 15108 15056 15021 14949 14901 14880 14868 14862 14848 14809 14797 14794 14796 14767 14743 14732 14669 14573 14515 14456 14377 14291 14257 14241 14193 14205 14215 14188 14174 14118 14062 13990 13965 13975 14004 14015 14019 14005 13978 13990 13985 14008 14052 14090 14101 14074 14048 14001 13958 13963 13996 14009 14055 14124 14181 14262 14381 14478 14555 14592 14614 14594 14571 14578 14562 14518 14481 14452 14405 14364 14356 14346 14298 14212 14162 14106 14078 14062 14103 14081 14036 13991 13973 13980 14017 14070 14042 14020 14008 13945 13895 13856 13842 13899 13973 14045 14139 14235 14272 14285 14287 14291 14275 14238 14241 14241 14293 14317 14334 14308 14255 14227 14211 14230 14236 14265 14253 14223 14187 14158 14206 14294 14380 14454 14552 14651 14794 14916 15051 15157 15209 15259 15294 15344 15356 15408 15422 15409 15407 15376 15347 15343 15327 15307 15305 15284 15246 15163 15061 14973 14922 14851 14751 14663 14652 14651 14635 14671 14719 14791 14799 14845 14906 14931 14915 14891 14862 14812 14724 14637 14573 14522 14522 14594 14673 14795 14886 14975 15041 15134 15257 15363 15443 15518 15605 15739 15884 15986 16006 16021 16126 16239 16332 16444 16495 16514 16539 16541 16514 16482 16460 16396 16346 16263 16201 16145 16085 16041 15989 15933 15896 15842 15810 15767 15713 15682 15591 15447 15311 15244 15182 15092 15042 14984 14932 14867 14827 14798 14742 14711 14677 14588 14539 14495 14474 14457 14455 14423 14384 14345 14348 14376 14453 14556 14624 14627 14549 14446 14362 14279 14199 14134 14075 14005 13940 13890 13843 13809 13768 13726 13640 13563 13506 13433 13411 13382 13398 13377 13375 13442 13513 13563 13590 13630 13645 13581 13502 13428 13387 13371 13378 13388 13397 13428 13426 13449 13497 13526 13555 13539 13468 13399 13362 13326 13324 13275 13234 13204 13173 13182 13297 13329 13326 13330 13362 13425 13502 13548 13600 13627 13620 13600 13612 13615 13647 13695 13741 13814 13837 13813 13809 13806 13800 13785 13780 13777 13741 13706 13665 13625 13600 13576 13538 13545 13577 13627 13657 13686 13745 13765 13786 13778 13762 13809 13940 14080 14196 14258 14305 14343 14402 14484 14560 14639 14716 14761 14815 14845 14849 14874 14877 14883 14857 14870 14849 14853 14853 14859 14872 14909 14933 14963 14979 14974 14977 14960 14946 14935 14926 14911 14891 14865 14838 14826 14798 14775 14760 14738 14727 14683 14639 14591 14567 14536 14544 14562 14543 14549 14595 14599 14603 14616 14677 14731 14767 14784 14833 14896 14919 14979 14990 15010 15043 15076 15125 15179 15231 15301 15335 15354 15330 15279 15250 15201 15179 15155 15144 15131 15119 15125 15109 15069 15026 14974 14942 14913 14905 14922 14904 14910 14888 14861 14837 14790 14760 14741 14698 14641 14572 14495 14473 14520 14656 14857 15006 15152 15221 15234 15230 15203 15198 15169 15125 15065 14996 14957 14944 14959 14998 15049 15088 15100 15097 15093 15099 15071 14979 14874 14789 14733 14657 14599 14563 14543 14604 14702 14826 14894 14956 15010 14981 14910 14867 14865 14869 14929 15039 15166 15143 15095 15019 14941 14889 14834 14776 14739 14731 14840 15029 15191 15365 15473 15522 15511 15502 15477 15456 15409 15347 15210 15078 14943 14864 14775 14716 14624 14555 14448 14367 14278 14208 14186 14160 14127 14018 13917 13816 13748 13692 13636 13597 13572 13576 13597 13596 13646 13684 13710 13738 13763 13819 13864 13903 13949 14018 14059 14104 14117 14096 14078 14077 14086 14070 13985 13912 13855 13801 13791 13822 13842 13831 13852 13823 13829 13864 13918 13957 13991 14034 14135 14168 14244 14367 14468 14627 14755 14909 15130 15389 15696 15984 16240 16489 16727 16975 17161 17266 17401 17504 17564 17576 17535 17466 17403 17280 17169 17030 16936 16855 16760 16688 16648 16572 16481 16408 16325 16266 16230 16172 16142 16121 16120 16092 16105 16137 16144 16183 16228 16249 16276 16308 16342 16350 16330 16291 16238 16180 16119 16058 16019 15984 15983 15979 15983 16005 16055 16127 16155 16174 16196 16207 16241 16302 16484 16734 16869 16886 16815 16716 16541 16400 16297 16200 16131 16102 16035 15974 15901 15851 15776 15734 15714 15718 15731 15788 15822 15842 15878 15883 15877 15865 15799 15730 15623 15549 15492 15452 15434 15429 15454 15525 15536 15526 15519 15525 15511 15640 15487 15443 15469 15472 15494 15449 15432 15430 15426 15398 15342 15297 15238 15215 15162 15145 15109 15048 15009 14968 14947 14922 14922 14939 14944 14967 15024 15082 15138 15210 15289 15335 15355 15381 15357 15303 15220 15154 15090 15025 14984 14937 14872 14835 14796 14802 14847 14914 14999 15096 15189 15296 15385 15475 15554 15593 15599 15605 15608 15626 15657 15629 15584 15556 15563 15594 15642 15711 15745 15776 15801 15792 15777 15758 15754 15719 15698 15673 15674 15690 15670 15639 15592 15562 15556 15544 15564 15580 15573 15564 15518 15436 15363 15309 15292 15259 15223 15211 15188 15184 15174 15185 15214 15238 15256 15240 15233 15211 15201 15227 15238 15238 15236 15205 15166 15123 15078 15031 14962 14872 14758 14653 14574 14525 14479 14463 14436 14398 14373 14404 14586 14838 15081 15269 15425 15507 15573 15629 15671 15716 15743 15775 15831 15859 15932 15964 15980 16042 16055 16079 16130 16198 16242 16309 16361 16369 16349 16335 16290 16284 16240 16218 16128 15994 15887 15774 15685 15646 15598 15549 15501 15481 15465 15476 15541 15573 15506 15371 15221 15131 15055 14977 14923 14878 14826 14796 14752 14718 14675 14635 14582 14510 14413 14383 14355 14329 14327 14288 14262 14265 14267 14312 14341 14360 14321 14269 14215 14199 14168 14166 14140 14090 14053 14091 14087 14046 14054 14017 13951 13939 13919 13902 13879 13876 13857 13847 13876 13991 14119 14197 14302 14305 14259 14237 14203 14151 14121 14134 14148 14160 14149 14141 14135 14109 14119 14077 13992 13982 14010 13994 14004 14067 14135 14183 14193 14255 14299 14341 14378 14406 14359 14310 14288 14322 14321 14328 14341 14318 14346 14369 14382 14409 14423 14392 14334 14306 14219 14180 14131 14088 14080 14126 14123 14132 14121 14098 14112 14060 14028 13938 13919 13935 13926 13902 13944 14025 14083 14104 14121 14138 14144 14161 14252 14337 14436 14508 14590 14667 14749 14816 14852 14914 14971 15023 15031 15102 15136 15125 15069 15027 15004 14968 14962 14963 14932 14891 14832 14772 14726 14680 14692 14649 14584 14496 14425 14394 14385 14395 14452 14485 14578 14647 14712 14762 14819 14843 14878 14871 14870 14777 14700 14655 14627 14588 14596 14615 14611 14638 14705 14775 14850 14910 14944 14917 14928 14922 14963 14988 15043 15007 14965 14921 14877 14890 14948 14984 14930 14849 14747 14633 14548 14508 14523 14503 14501 14443 14406 14357 14329 14357 14376 14428 14461 14511 14498 14500 14533 14557 14535 14583 14592 14636 14671 14676 14668 14686 14739 14800 14818 14821 14795 14802 14843 14910 14966 14996 15029 15040 15029 15034 15042 15041 15046 15000 14922 14836 14762 14716 14682 14644 14593 14561 14502 14468 14432 14416 14424 14437 14386 14346 14323 14345 14375 14421 14484 14525 14566 14615 14660 14748 14831 14920 14983 15004 14980 14998 15022 15039 15064 15046 15051 15060 15057 15038 15073 15076 15105 15122 15087 15013 14918 14853 14842 14828 14787 14760 14720 14650 14651 14662 14663 14668 14644 14643 14636 14654 14704 14797 14883 14964 15010 15053 15075 15157 15202 15258 15311 15334 15362 15357 15369 15370 15385 15395 15393 15398 15376 15350 15345 15340 15344 15320 15292 15241 15171 15223 15187 15151 15185 15169 15148 15137 15096 15090 15083 15059 15028 14973 14926 14877 14805 14790 14795 14796 14859 14964 15085 15154 15198 15248 15289 15364 15448 15498 15510 15420 15381 15359 15367 15362 15347 15322 15269 15234 15238 15253 15282 15300 15340 15355 15351 15334 15303 15284 15272 15276 15229 15199 15127 15088 15046 15040 15065 15092 15079 15061 15020 15034 15046 15075 15096 15080 15088 15113 15134 15174 15183 15188 15188 15176 15142 15099 15047 15036 15033 15044 15058 15044 15025 14965 14915 14862 14823 14840 14808 14751 14672 14590 14536 14463 14467 14442 14430 14398 14449 14471 14497 14516 14533 14558 14595 14634 14684 14712 14743 14798 14826 14860 14895 14960 15018 15075 15099 15133 15149 15153 15093 15041 15028 15007 15009 14976 14959 14923 14880 14841 14797 14752 14703 14709 14695 14646 14585 14541 14479 14448 14434 14440 14396 14369 14380 14385 14376 14395 14434 14507 14587 14640 14652 14667 14693 14733 14763 14814 14839 14860 14880 14884 14849 14820 14820 14810 14766 14716 14679 14659 14643 14594 14588 14556 14518 14522 14511 14501 14477 14517 14529 14529 14485 14464 14460 14436 14449 14428 14448 14494 14584 14669 14725 14767 14827 14867 14929 14988 15034 15068 15076 15119 15178 15212 15242 15237 15222 15224 15241 15198 15206 15166 15123 15061 15007 14948 14899 14827 14789 14751 14720 14722 14700 14682 14627 14588 14535 14495 14463 14453 14437 14418 14352 14329 14355 14425 14524 14513 14552 14521 14507 14516 14518 14583 14550 14526 14474 14472 14428 14415 14403 14391 14376 14358 14339 14327 14315 14301 14291 14268 14209 14182 14150 14153 14142 14181 14203 14216 14220 14209 14186 14191 14214 14228 14239 14244 14191 14164 14173 14176 14210 14196 14177 14180 14194 14200 14231 14276 14281 14274 14261 14227 14211 14191 14253 14251 14331 14329 14360 14337 14295 14360 14339 14313 14292 14267 14206 14061 14017 13961 13992 13986 13999 14032 14029 14055 14079 14117 14170 14207 14245 14304 14360 14347 14344 14359 14344 14368 14363 14386 14396 14388 14392 14402 14384 14363 14370 14337 14288 14255 14212 14196 14167 14177 14175 14193 14150 14133 14146 14169 14206 14254 14241 14240 14221 14271 14324 14382 14447 14500 14531 14584 14582 14569 14564 14627 14664 14679 14674 14651 14612 14525 14486 14474 14488 14493 14468 14449 14435 14372 14382 14358 14384 14418 14415 14413 14361 14287 14254 14222 14194 14182 14176 14231 14327 14398 14439 14457 14491 14564 14648 14746 14787 14802 14793 14739 14689 14686 14693 14690 14696 14677 14637 14590 14573 14583 14547 14517 14491 14461 14428 14386 14358 14361 14353 14327 14285 14233 14236 14227 14205 14168 14169 14157 14192 14228 14298 14320 14378 14414 14475 14515 14616 14679 14668 14656 14601 14553 14566 14548 14501 14460 14420 14386 14340 14310 14275 14244 14230 14199 14183 14157 14144 14145 14175 14143 14134 14083 14057 14020 14019 14026 14012 13999 13973 13993 14022 14037 14136 14189 14205 14245 14281 14302 14353 14432 14464 14542 14633 14666 14722 14726 14690 14703 14683 14709 14679 14635 14604 14589 14541 14498 14442 14425 14402 14411 14393 14369 14319 14278 14296 14272 14198 14135 14106 14102 14171 14230 14266 14289 14342 14370 14380 14389 14378 14379 14349 14279 14340 14325 14352 14348 14387 14432 14473 14469 14423 14377 14334 14301 14305 14312 14301 14264 14233 14233 14201 14180 14128 14131 14091 14047 14029 14025 14026 14056 14089 14138 14201 14208 14230 14235 14252 14224 14198 14200 14239 14261 14258 14202 14189 14182 14205 14216 14224 14216 14228 14143 14156 14159 14196 14206 14264 14301 14296 14277 14299 14302 14363 14422 14462 14447 14443 14443 14452 14477 14479 14477 14465 14492 14540 14552 14588 14559 14601 14617 14624 14609 14624 14602 14643 14655 14650 14679 14739 14807 14842 14878 14951 14947 14932 14866 14788 14703 14641 14637 14608 14585 14564 14589 14631 14604 14619 14650 14627 14612 14649 14644 14605 14603 14638 14587 14565 14532 14485 14438 14499 14525 14498 14504 14516 14457 14487 14477 14427 14363 14405 14397 14389 14402 14369 14340 14307 14259 14225 14226 14206 14187 14195 14169 14172 14148 14091 14175 14181 14192 14209 14203 14158 14139 14145 14168 14191 14178 14199 14223 14185 14133 14085 14132 14181 14207 14203 14238 14211 14179 14216 14295 14356 14430 14467 14437 14420 14337 14278 14239 14233 14198 14193 14264 14226 14240 14211 14210 14159 14133 14131 14104 14073 14018 14006 14042 14057 14036 14007 14060 14116 14182 14191 14240 14250 14263 14298 14350 14351 14360 14386 14445 14431 14452 14505 14540 14543 14518 14485 14434 14428 14393 14395 14371 14359 14326 14277 14247 14191 14267 14283 14274 14263 14242 14231 14238 14241 14272 14293 14269 14292 14306 14349 14418 14406 14455 14462 14484 14495 14491 14535 14515 14564 14565 14603 14614 14628 14604 14539 14525 14530 14487 14441 14434 14433 14395 14358 14325 14309 14275 14266 14282 14263 14276 14293 14303 14344 14377 14403 14437 14449 14462 14509 14524 14557 14558 14537 14605 14658 14676 14662 14651 14621 14602 14597 14565 14543 14513 14496 14448 14436 14421 14449 14450 14439 14395 14317 14305 14305 14310 14316 14307 14277 14307 14371 14417 14484 14542 14548 14520 14505 14480 14466 14422 14366 14337 14338 14324 14329 14351 14318 14269 14247 14240 14243 14232 14244 14189 14130 14096 14098 14088 14095 14055 14064 14044 14027 14034 14041 14024 14017 14011 13994 13957 13906 13893 13869 13862 13832 13856 13859 13839 13866 13902 13886 13890 13877 13900 13954 13931 13907 13906 13894 13879 13876 13893 13904 13900 13940 14010 14113 14186 14265 14335 14381 14386 14377 14346 14317 14331 14344 14355 14351 14296 14315 14295 14264 14261 14222 14185 14167 14117 14044 14025 14039 14066 14080 14084 14034 13971 13940 13926 13992 14056 14064 14056 14048 14073 14232 14402 14524 14662 14741 14753 14803 14861 14906 14914 14894 14876 14852 14873 14881 14938 14958 14923 14900 14827 14780 14780 14767 14702 14667 14649 14611 14563 14525 14522 14541 14552 14546 14539 14500 14481 14443 14441 14413 14417 14390 14410 14416 14414 14441 14454 14456 14459 14469 14460 14439 14369 14380 14413 14443 14373 14392 14453 14438 14495 14458 14455 14525 14505 14440 14424 14427 14427 14368 14369 14431 14459 14505 14533 14542 14582 14587 14566 14493 14442 14476 14448 14439 14468 14461 14510 14622 14640 14580 14551 14548 14519 14500 14504 14487 14529 14549 14541 14520 14473 14456 14441 14460 14467 14472 14421 14381 14500 14577 14628 14652 14650 14624 14598 14542 14485 14377 14366 14365 14334 14282 14266 14265 14290 14301 14304 14338 14325 14349 14327 14260 14212 14179 14168 14138 14114 14129 14182 14264 14284 14269 14218 14173 14175 14182 14186 14197 14203 14223 14227 14248 14318 14409 14450 14475 14494 14574 14673 14923 15124 15284 15449 15504 15656 15722 15769 15764 15770 15789 15828 15863 15853 15801 15685 15690 15654 15625 15534 15467 15425 15399 15389 15457 15454 15519 15537 15530 15550 15620 15671 15736 15732 15718 15668 15586 15544 15545 15450 15483 15406 15418 15393 15341 15308 15335 15283 15232 15223 15168 15100 15047 15019 14973 14930 14861 14867 14835 14829 14782 14763 14783 14776 14876 14969 15073 15075 15093 15116 15156 15206 15265 15280 15265 15235 15252 15234 15274 15299 15306 15296 15258 15203 15157 15144 15150 15124 15133 15128 15123 15136 15146 15136 15146 15181 15209 15240 15246 15272 15227 15371 15392 15364 15340 15335 15312 15298 15293 15278 15270 15264 15292 15317 15301 15243 15175 15108 15048 14990 15058 15120 15118 15184 15237 15266 15290 15285 15292 15291 15264 15232 15186 15146 15130 15113 15108 15114 15090 15113 15144 15188 15237 15269 15364 15414 15452 15471 15508 15556 15627 15722 15818 15975 16104 16189 16281 16307 16254 16161 16067 15954 15814 15750 15708 15687 15651 15644 15622 15629 15661 15646 15588 15555 15549 15504 15392 15303 15270 15371 15541 15664 15801 15911 16041 16146 16182 16149 16093 16008 15938 15811 15707 15609 15544 15475 15424 15401 15387 15380 15378 15376 15388 15399 15423 15412 15371 15335 15304 15281 15249 15246 15241 15234 15214 15201 15209 15240 15293 15324 15333 15319 15288 15259 15239 15212 15172 15165 15145 15134 15127 15118 15106 15078 15084 15038 14981 14920 14864 14823 14795 14754 14738 14737 14702 14654 14646 14718 14743 14745 14712 14663 14612 14587 14587 14558 14536 14517 14530 14518 14484 14456 14416 14373 14341 14307 14239 14190 14112 14058 14012 14001 13987 13962 13945 13845 13867 13832 13808 13816 13828 13894 13903 13886 13879 13909 13914 13916 13947 13950 13909 13878 13868 13873 13885 13894 13917 13920 13970 14054 14139 14220 14241 14176 14149 14090 14056 14016 14008 14007 14029 14108 14319 14516 14696 14873 15057 15168 15258 15323 15453 15495 15660 15803 15920 16004 16136 16168 16108 16029 15949 15852 15746 15629 15549 15481 15410 15340 15257 15220 15148 15087 14968 14903 14840 14815 14825 14821 14843 14852 14804 14784 14741 14685 14627 14602 14523 14422 14311 14193 14097 14004 13923 13849 13768 13694 13613 13523 13537 13552 13591 13629 13701 13769 13865 14041 14101 14165 14207 14220 14249 14374 14435 14464 14460 14412 14294 14204 14128 14083 14001 14036 14074 14056 14070 14024 13995 13983 13944 13971 13973 13946 13910 13915 14013 14062 14079 14166 14152 14091 14086 14051 14007 13956 13913 13864 13812 13779 13728 13721 13727 13729 13718 13712 13742 13708 13752 13798 13816 13842 13861 13886 13924 13952 13993 14039 14080 14091 14076 14041 14018 14032 14069 14077 14017 14000 13953 13963 13989 13999 13985 13994 13949 13925 13934 13968 13992 14052 14054 13997 13974 13946 13915 13997 14022 14036 13989 13998 13992 14061 14116 14176 14228 14244 14211 14204 14191 14212 14233 14231 14247 14243 14262 14254 14269 14325 14380 14418 14411 14369 14321 14265 14230 14174 14201 14216 14254 14283 14243 14194 14166 14112 14109 14105 14072 14036 14030 14050 14059 14080 14093 14113 14117 14145 14143 14146 14128 14117 14113 14119 14139 14162 14150 14164 14176 14180 14139 14125 14115 14110 14161 14198 14208 14246 14292 14262 14255 14221 14207 14198 14181 14164 14141 14102 14096 14173 14238 14268 14295 14271 14255 14211 14175 14190 14217 14233 14240 14209 14202 14152 14164 14201 14172 14188 14174 14145 14165 14182 14196 14200 14180 14188 14198 14171 14188 14215 14203 14165 14107 14118 14145 14195 14240 14197 14134 14104 14065 14060 14071 14107 14091 14023 14114 14124 14193 14220 14253 14287 14287 14222 14142 14121 14150 14187 14213 14227 14241 14244 14263 14292 14310 14306 14306 14271 14251 14243 14264 14284 14343 14370 14390 14401 14441 14472 14470 14446 14447 14380 14377 14363 14365 14335 14324 14320 14300 14301 14325 14305 14268 14284 14294 14263 14288 14314 14306 14256 14257 14255 14243 14248 14276 14275 14260 14271 14277 14289 14262 14293 14338 14315 14310 14269 14310 14377 14394 14401 14382 14386 14404 14388 14371 14362 14418 14435 14424 14422 14435 14426 14423 14412 14404 14387 14421 14424 14423 14420 14427 14429 14437 14420 14416 14444 14412 14411 14436 14441 14429 14409 14437 14421 14470 14579 14588 14611 14567 14525 14489 14453 14429 14435 14433 14459 14419 14438 14458 14509 14506 14523 14541 14495 14462 14413 14392 14382 14399 14435 14411 14442 14476 14482 14507 14485 14450 14446 14410 14378 14392 14386 14372 14364 14347 14361 14365 14387 14340 14308 14355 14412 14409 14365 14369 14406 14408 14419 14419 14401 14378 14409 14459 14501 14516 14518 14483 14527 14478 14527 14546 14491 14519 14506 14463 14471 14514 14519 14487 14484 14440 14502 14521 14502 14488 14441 14429 14430 14492 14521 14522 14522 14499 14494 14508 14495 14484 14492 14465 14442 14430 14443 14410 14411 14415 14379 14402 14409 14416 14418 14459 14479 14476 14458 14415 14405 14413 14423 14449 14452 14437 14445 14437 14435 14434 14426 14424 14387 14367 14375 14357 14357 14388 14438 14452 14444 14456 14454 14416 14427 14499 14570 14625 14578 14525 14592 14614 14592 14610 14633 14673 14703 14740 14803 14801 14808 14801 14742 14749 14794 14781 14795 14811 14840 14867 14944 14987 15006 14984 15006 15046 15060 15075 15122 15125 15118 15110 15106 15106 15092 15086 15062 15032 15059 15096 15145 15151 15221 15229 15196 15196 15168 15150 15174 15205 15212 15209 15188 15146 15131 15111 15084 15126 15120 15088 15087 15050 15017 15010 14961 14944 14952 14939 14936 14916 14923 14940 14995 15033 15025 14998 14940 14916 14942 14976 15077 15074 15110 15136 15073 15098 15135 15153 15185 15179 15188 15186 15177 15170 15144 15112 15099 15063 15026 15052 15038 15025 15038 15072 15129 15115 15074 15025 14988 14970 14920 14962 14981 14955 14973 15011 15049 15016 15034 15009 14998 14962 14903 14928 14968 15000 15130 15175 15221 15271 15286 15325 15369 15436 15488 15641 15705 15813 15868 15885 15865 15919 16064 16156 16227 16272 16303 16286 16297 16182 16221 16224 16185 16192 16219 16226 16260 16215 16259 16280 16274 16252 16270 16245 16256 16281 16251 16228 16161 16147 16143 16133 16129 16129 16108 16076 16026 16018 16037 16041 16056 16061 16051 16046 15983 15992 15993 16002 15985 15988 16078 15872 15961 16049 16017 16108 16075 16071 16005 16008 15986 15948 15961 15987 15939 15955 15893 15818 15892 15879 15876 15917 15874 15880 15803 15820 15768 15781 15826 15861 15841 15914 15973 15879 15925 16013 16048 16051 16099 16101 16037 16056 16035 16038 16070 16042 16038 16072 16055 16082 16034 16039 16043 16026 15949 15963 15943 15937 15928 15936 15883 15899 15883 15884 15868 15857 15878 15849 15850 15845 15790 15778 15729 15774 15729 15728 15708 15714 15700 15706 15689 15716 15695 15672 15659 15629 15590 15546 15550 15589 15525 15605 15605 15610 15645 15625 15618 15636 15618 15581 15584 15571 15562 15518 15546 15444 15505 15517 15497 15514 15446 15503 15474 15485 15451 15448 15398 15409 15390 15423 15460 15476 15506 15470 15481 15488 15456 15478 15485 15489 15503 15527 15511 15413 15516 15534 15574 15646 15679 15704 15679 15715 15721 15784 15770 15726 15833 15778 15809 15788 15807 15770 15762 15748 15767 15774 15780 15767 15733 15755 15713 15729 15730 15698 15639 15627 15583 15593 15573 15584 15587 15591 15577 15576 15570 15594 15605 15655 15634 15652 15638 15631 15605 15619 15610 15620 15678 15614 15631 15693 15690 15705 15721 15734 15828 15793 15790 15810 15823 15835 15847 15843 15840 15802 15795 15848 15856 15879 15872 15882 15860 15843 15780 15738 15714 15665 15704 15693 15681 15649 15648 15618 15607 15598 15590 15549 15569 