4315 4319 4319 4315 4319 4310 4314 4311 4325 4320 42599 42531 42521 42494 42493 42504 42597 42893 43632 43678 43401 43495 43300 43003 42793 42614 42467 42344 42231 42042 41864 41702 41529 41366 41250 41082 40947 40862 40795 40760 40639 40476 40283 40123 39995 39891 39808 39732 39639 39555 39498 39447 39402 39383 39368 39311 39278 39337 39369 39343 39403 39505 39630 39757 39857 39859 39848 39855 39931 40007 40072 40155 40218 40279 40358 40418 40428 40388 40362 40371 40390 40422 40481 40537 40598 40667 40746 40831 40907 40984 41033 41100 41179 41257 41235 41186 41170 41151 41158 41177 41210 41207 41188 41182 41183 41227 41248 41274 41347 41399 41458 41551 41583 41599 41609 41655 41712 41789 41863 41927 41994 42094 42192 42271 42357 42438 42520 42554 42631 42695 42765 42802 42831 42870 42899 42959 43001 43067 43119 43163 43212 43270 43315 43392 43421 43476 43510 43559 43569 43558 43584 43586 43628 43687 43694 43744 43782 43830 43859 43922 43967 43997 44033 44064 44139 44116 44151 44131 44179 44185 44224 44238 44233 44231 44269 44284 44305 44330 44352 44373 44403 44430 44442 44401 44378 44359 44367 44375 44379 44394 44400 44401 44420 44413 44438 44462 44477 44478 44488 44506 44461 44365 44300 44277 44268 44272 44257 44245 44255 44269 44303 44353 44375 44401 44436 44474 44495 44506 44404 44336 44318 44333 44363 44376 44382 44409 44437 44462 44511 44541 44575 44630 44671 44707 44688 44602 44482 44427 44430 44430 44446 44472 44500 44506 44545 44608 44644 44697 44736 44792 44825 44861 44847 44732 44643 44619 44638 44665 44686 44710 44745 44778 44817 44877 44915 44964 45007 45056 45092 45136 45144 45057 45015 44976 44996 45041 45069 45086 45131 45149 45199 45238 45266 45298 45370 45398 45440 45484 45466 45376 45327 45311 45318 45349 45361 45372 45400 45418 45459 45497 45533 45563 45609 45659 45687 45710 45654 45561 45526 45509 45537 45575 45588 45595 45628 45644 45682 45711 45755 45796 45824 45863 45926 45929 45903 45796 45732 45729 45759 45792 45809 45823 45840 45887 45900 45942 45975 46010 46036 46071 46119 46140 46116 46023 45963 45959 45972 45990 46013 46008 46030 46052 46089 46135 46159 46202 46227 46259 46271 46298 46271 46186 46074 46015 45949 45875 45807 45993 46034 46026 46071 46097 46062 46066 46118 46301 46542 46964 47602 47799 47854 47922 47932 47936 47946 47805 47635 47571 47262 46950 47024 46944 46860 46769 46654 46568 46331 46068 45699 45405 45163 44936 44744 44537 44342 44178 44048 43918 43822 43736 43682 43633 43598 43570 43452 43168 42895 42703 42546 42433 42347 42266 42194 42145 42101 42116 42117 42145 42172 42182 42207 42232 42086 41848 41666 41558 41505 41504 41501 41515 41490 41511 41524 41552 41597 41663 41727 41800 41899 42045 42021 41858 41697 41644 41609 41579 41541 41515 41534 41564 41587 41633 41691 41743 41781 41829 41868 41843 41717 41544 41457 41429 41442 41434 41457 41458 41476 41523 41591 41649 41712 41800 41897 41982 42054 42086 41965 41879 41809 41813 41833 41840 41872 41877 41926 41950 41996 42080 42128 42180 42252 42315 42322 42194 42037 41932 41902 43431 43529 43597 43619 43645 43674 43713 43751 43853 43891 43876 43905 43965 44085 44354 44089 43529 43019 42907 43105 42967 42743 42616 42381 42206 42261 42280 42182 41986 41656 41372 41129 40961 40827 40708 40624 40552 40466 40392 40303 40218 40210 40230 40274 40380 40439 40624 40959 41300 41595 41858 42030 42183 42362 42547 42795 42955 42695 42394 42189 41974 41743 41497 41336 41253 41234 41223 41218 41243 41282 41321 41391 41514 41693 41901 42033 42223 42401 42523 42689 42799 42932 43146 43495 43837 44197 44570 44968 45388 45792 46151 46414 46616 46778 46878 46854 46853 46807 46666 46500 46307 46148 45928 45742 45608 45490 45292 45097 44919 44768 44622 44490 44362 44222 43964 43623 43276 42965 42705 42480 42258 42013 41818 41613 41443 41282 41192 41105 40978 40847 40613 40247 39811 39393 39051 38784 38568 38310 38102 37893 37730 37606 37533 37494 37453 37438 37428 37338 37079 36821 36620 36483 36422 36365 36309 36253 36219 36199 36223 36262 36305 36360 36418 36462 36459 36294 36112 35986 35909 35919 35958 35962 35958 35926 35922 35975 36014 36061 36113 36176 36213 36254 36167 36030 35920 35833 35823 35805 35779 35754 35724 35709 35737 35791 35809 35842 36075 36264 36397 36553 36817 37353 37718 38123 38442 38573 38908 39727 40687 41265 41456 41438 41309 41228 41220 41303 41259 41148 41316 41424 41522 41443 41361 41901 42182 42342 42747 43247 43651 44011 44148 44305 44391 44373 44326 44285 44245 44175 44151 44120 44122 44111 44152 44202 44285 44363 44425 44367 44292 44309 44368 44482 44602 44693 44808 44934 44969 45026 45099 45170 45322 45458 45611 45789 45975 46158 46319 46395 46468 46504 46676 46870 46945 46934 46882 46864 46817 46792 46769 46776 46770 46757 46790 46811 46779 46713 46673 46664 46680 46726 46817 46964 47185 47680 47677 47671 47680 47680 47675 47655 47625 47612 47617 47614 43340 43214 43216 43105 42942 42678 42350 42077 41854 41701 41560 41495 41482 41297 41160 41049 41007 40969 41216 41433 41562 41694 41860 42046 42326 42606 42930 43205 43276 43277 43260 43233 43179 43026 42769 42505 42298 42117 41922 41733 41573 41436 41320 41176 41046 40882 40762 40520 40251 40095 39984 39873 39758 39644 39507 39348 39254 39392 39538 39567 39562 39573 39577 39580 39457 39248 39003 38808 38649 38612 38899 39254 39505 39501 39479 39456 39467 39565 39586 39786 40399 41371 41858 42250 42525 42727 42780 42735 42509 42182 42001 41849 41699 41563 41569 41549 41517 41496 41387 41212 40990 40892 40876 40930 41130 41401 41622 42005 42368 42614 42575 42552 42355 42168 42035 41866 41735 41602 41482 41419 41421 41706 42024 42058 42102 42056 41998 42001 42056 42171 42307 42553 42781 42745 42799 42791 42715 42705 42801 42744 42668 42515 42310 42171 42103 42020 42026 42033 42044 42029 42115 42165 42253 42439 42602 42846 43464 44072 44580 45141 45681 46078 46345 46406 46206 46088 46079 46076 46027 45957 45928 45903 45968 46010 46027 46027 46031 46020 45976 45847 45644 45176 44823 44627 44454 44340 44290 44195 44078 43996 43908 43858 43813 43766 43717 43719 43692 43601 43567 43525 43505 43464 43455 43466 43470 43513 43572 43588 43609 43618 43621 43562 43376 43107 42827 42583 42375 42271 42215 42187 42188 42232 42309 42392 42372 42241 42172 42082 41879 41766 41739 41759 41862 42385 42773 43128 43425 43783 44131 44370 44483 44423 44466 44549 44658 44811 44908 44912 44776 44581 44289 44094 44006 44055 44128 44259 44385 44553 44678 44787 44889 45009 44978 44506 44116 43779 43576 43417 43255 43076 42942 42986 43014 43098 43433 43597 43719 43704 43532 43344 43150 43095 42996 42997 43062 42994 42956 42959 42934 42944 42905 42896 42882 42867 42855 42834 42858 42886 42905 42985 43114 43282 43403 43516 43572 43637 43693 43733 43769 43789 43800 43809 43802 43812 43853 43897 43936 44006 44076 44113 44167 44150 44096 44056 44033 43989 43839 43622 43425 43231 43105 43017 42945 42851 42800 42739 42710 42684 42691 42703 42674 42556 42481 42377 42330 42316 42346 42439 42554 42683 42843 43026 43165 43337 43465 43455 43575 43529 43449 43451 43455 43509 43511 43526 43512 43514 43467 43445 43392 43315 43165 42944 42622 42282 42009 41803 41627 41483 41362 41209 41139 41084 41018 41003 41027 41066 41031 40902 40808 40780 40753 40816 40813 40832 40877 40900 40873 40917 40907 40889 40878 40774 40537 40297 40039 39818 39585 39380 39208 39051 38944 38839 38732 38652 38572 38521 38503 38409 38198 38053 37976 37980 38013 38041 38024 38031 38076 38163 38275 38405 38477 38496 38421 38246 38148 38063 37993 37959 37888 37797 37757 37683 37628 37603 37589 37577 37478 37332 37198 37075 37018 36988 36994 37054 37118 37210 37267 37356 37484 37600 37669 37708 37732 37694 37734 37742 37713 37722 37685 37664 37617 37579 37558 37549 37527 37468 37380 37310 37257 37230 37232 37230 37258 37327 37360 37445 37507 37603 37690 37721 37754 37751 37771 37758 37791 37795 37805 37834 37859 37893 37957 37961 37994 37977 37956 37864 37797 37769 37748 37736 37753 37772 37809 37851 37931 37995 38077 38140 38134 38144 38170 38181 38214 38232 38285 38300 38334 38307 38334 38339 38346 38312 38256 38121 38002 37912 37843 37793 37732 37715 37698 37671 37650 37694 37715 37785 37781 37794 37831 37927 38033 38194 38313 38372 38434 38472 38464 38488 38453 38447 38407 38285 38150 38028 37927 37857 37776 37706 37664 37621 37634 37662 37701 37781 37812 37806 37790 37771 37824 37943 38062 38171 38203 38277 38231 38300 38285 38329 38340 38280 38055 37985 37818 37763 37659 37593 37519 37481 37429 37406 37404 37407 37464 37467 37413 37344 37304 37313 37362 37401 37462 37526 37657 37745 37798 37840 37858 37858 37730 37533 37330 37172 37052 37041 36980 36921 36904 36901 36916 36953 37002 37035 37084 37044 37036 37066 37091 37183 37339 37382 37452 37565 37642 37670 37694 37718 37739 37668 37594 37479 37349 37283 37253 37207 37222 37208 37205 37246 37275 37338 37440 37544 37586 37596 37672 37706 37777 37853 37955 37962 38027 38037 38079 38048 38048 38029 37985 37860 37703 37555 37437 37338 37315 37238 37255 37239 37249 37293 37373 37463 37503 37587 37596 37676 37662 37772 37858 37895 37925 37901 37980 38035 38115 38113 38103 38068 38047 37937 37814 37728 37677 37676 37621 37633 37637 37614 37684 37737 37806 37906 37944 38020 38061 38047 38009 37972 37938 37963 37936 37928 37913 37901 37881 37860 37838 37819 37757 37649 37501 37403 37297 37282 37290 37319 37374 37393 37476 37584 37726 37850 37978 38019 37967 37938 37890 37877 37877 37881 37856 37856 37824 37798 37779 37801 37825 37856 37855 37798 37692 37713 37747 37791 37864 37893 38101 38192 38368 38461 38665 38778 38774 38759 38678 38611 38601 38566 38531 38528 38527 38502 38544 38582 38612 38685 38695 38702 38671 38616 38579 38616 38737 38841 39016 39123 39212 39351 39402 39489 39530 39499 39378 39205 38997 38871 38738 38636 38529 38433 38335 38249 38207 38176 38136 38151 38161 38070 38000 37896 37869 37915 37958 38054 38133 38208 38223 38269 38309 38327 38304 38235 38120 37910 37731 37587 37493 37448 37390 37320 37321 37329 37351 37392 37417 37469 37549 37658 37667 37610 37571 37604 37587 37555 37533 37560 37556 37539 37563 37566 37588 37471 37432 37358 37299 37264 37248 37250 37236 37253 37275 37293 37279 37262 37238 37182 37066 36993 36895 36859 36775 36732 36625 36457 36332 36215 36256 36202 36137 36040 35920 35784 35736 35731 35727 35778 35811 35845 35930 36013 36089 36104 36117 36090 36032 35967 35962 35966 36003 35993 35919 35851 35831 35860 35918 35898 35947 35902 35858 35861 35930 36051 36133 36223 36331 36444 36551 36603 36690 36772 36885 36976 36959 36932 36913 36892 36918 36925 36951 36966 36938 36973 37081 37197 37304 37369 37404 37430 37460 37542 37648 37750 37892 38058 38241 38430 38571 38580 38592 38598 38524 38449 38378 38330 38297 38284 38249 38195 38211 38241 38275 38338 38402 38424 38436 38487 38587 39091 39913 40639 41487 42411 42888 42863 42732 42641 42621 42652 42668 42652 42690 42692 42546 42415 42327 42325 42296 42277 42245 42244 42216 42206 42114 41951 41831 41721 41682 41672 41661 41625 41656 41753 41926 42287 42758 43047 43407 43705 44112 44531 44916 45284 45545 45907 46368 46839 47047 46969 46513 46391 46470 46657 46504 46420 46349 46463 46662 46708 46662 46718 47453 47628 47629 47633 47639 47636 47635 47637 47643 47647 47642 47643 47639 47637 47648 47638 40177 40124 40001 39880 39831 39949 40109 40116 40157 40132 40045 39877 39753 39578 39448 39345 39296 39205 39140 38978 38723 38519 38354 38241 38165 38136 38091 38024 37957 37909 37871 37837 37796 37686 37497 37242 37066 36889 36800 36703 36597 36510 36427 36342 36264 36209 36167 36127 35952 35725 35495 35328 35208 35119 35059 34961 34827 34765 34672 34605 34530 34458 34371 34126 33889 33677 33483 33352 33259 33206 33228 33494 33842 34054 34192 34286 34390 34465 34474 34433 34419 34463 34524 34588 34674 34888 35022 35106 35196 35258 35285 35267 35209 35125 35029 35011 35035 35077 35160 35255 35286 35338 35399 35465 35557 35609 35640 35555 35426 35370 35397 35440 35469 35509 35546 35544 35570 35592 35647 35654 35677 35637 35572 35499 35438 35455 35436 35454 35450 35425 35438 35459 35491 35524 35513 35469 35403 35300 35277 35284 35291 35282 35281 35271 35272 35270 35341 35565 35768 35914 36017 35987 35920 35913 36047 36272 36395 36506 36595 36677 36769 36846 36901 36934 36962 36878 36849 36845 36917 36941 36948 36945 36964 36906 36904 36888 36889 36936 36933 36845 36719 36712 36751 36771 36848 36878 36887 36909 36900 36940 36923 36923 36866 36655 36472 36326 36218 36147 36044 36015 35923 35810 35693 35622 35561 35545 35480 35411 35243 35074 34953 34939 34964 34988 35024 35023 35106 35132 35112 35118 35180 35224 35084 34904 34809 34803 34768 34761 34732 34695 34694 34641 34614 34588 34582 34530 34449 34290 34136 34057 34040 34022 34036 34036 34089 34091 34135 34192 34210 34222 34145 33980 33743 33518 33326 33212 33126 33038 32989 32750 32852 32836 32797 32786 32754 32760 32681 32400 32273 32152 32185 32180 32225 32243 32281 32279 32385 32486 32771 33209 33597 33877 34250 34594 34952 35142 35163 35015 34770 34676 34609 34604 34627 34673 34753 34750 34708 34688 34658 34688 34693 34730 34772 34782 34828 34833 34850 34887 34936 34978 34954 34829 34761 34766 34757 34774 34775 34767 34745 34704 34660 34631 34642 34611 34633 34557 34404 34264 34139 34089 34048 33966 33934 33906 33868 33851 33839 33848 33859 33836 33757 33604 33487 33435 33405 33401 33368 33313 33287 33211 33198 33130 33105 33082 33001 32863 32692 32521 32396 32279 32211 32164 32130 32104 32096 32111 32126 32167 32150 32067 31949 31815 31761 31692 31754 31857 31861 31827 31915 31883 31895 31929 31978 32079 32058 31945 31877 31700 31675 31687 31778 31839 31903 31955 32006 32095 32171 32212 32298 32255 32189 32114 32019 32000 31958 31962 32010 32013 32098 32123 32153 32146 32131 32084 31978 31807 31700 31618 31618 31596 31563 31551 31591 31616 31646 31659 31633 31644 31617 31501 31400 31472 31694 31935 32023 32157 32321 32417 32525 32567 32638 32681 32733 32766 32754 32782 32824 32899 32969 33063 33144 33208 33339 33436 33547 33667 33761 33860 33894 33899 33954 33998 34058 34141 34224 34271 34318 34392 34433 34483 34540 34576 34567 34539 34515 34508 34523 34549 34588 34609 34653 34665 34726 34798 34864 34924 34973 34908 34820 34763 34781 34859 34904 34907 34832 34783 34755 34754 34754 34763 34748 34620 34419 34243 34112 34013 33935 33867 33758 33675 33583 33534 33509 33493 33484 33420 33218 33046 32958 32887 32895 32888 32875 32861 32825 32814 32819 32846 32856 32834 32811 32659 32463 32298 32157 32057 32000 31954 31903 31897 31944 32000 32057 32080 32107 32049 31982 31909 31834 31822 31820 31806 31769 31743 31734 31749 31774 31804 31827 31787 31696 31577 31484 31420 31414 31429 31463 31499 31525 31600 31667 31712 31674 31591 31610 31578 31621 31745 31840 31936 32057 32083 32157 32165 32186 32212 32306 32478 32600 32627 32647 32676 32717 32819 32900 33011 33067 33140 33210 33299 33386 33487 33551 33584 33571 33545 33541 33554 33512 33455 33406 33357 33304 33289 33300 33283 33334 33361 33386 33359 33305 33265 33238 33262 33270 33291 33311 33339 33349 33356 33361 33386 33374 33368 33265 33177 33104 33082 33052 33007 32984 32959 32948 32949 32959 32961 33019 32987 32967 32888 32809 32733 32626 32601 32599 32649 32716 32732 32679 32697 32724 32730 32727 32652 32571 32520 32537 32563 32554 32580 32613 32652 32721 32787 32871 32901 32926 32948 32867 32777 32707 32642 32617 32629 32630 32710 32714 32762 32759 32837 32967 33169 33321 33358 33412 33425 33450 33494 33559 33629 33701 33765 33812 33873 33942 34000 34090 34100 34098 34059 34066 34098 34167 34220 34268 34298 34371 34424 34478 34522 34617 34651 34619 34561 34532 34522 34537 34526 34522 34542 34549 34550 34559 34541 34551 34587 34623 34661 34621 34580 34585 34605 34607 34638 34651 34659 34667 34677 34674 34680 34718 34710 34671 34528 34396 34303 34243 34205 34173 34154 34161 34126 34175 34181 34201 34270 34342 34324 34285 34297 34324 34350 34434 34509 34623 34663 34648 34701 34651 34670 34705 34729 34633 34596 34872 35342 35859 36338 36809 37190 37450 37706 37883 38071 38254 38345 38467 38462 38351 38250 38207 38309 38510 38717 38853 38985 39005 38937 38852 38810 38778 38746 38708 38592 38507 38424 38402 38405 38391 38414 38417 38421 38429 38428 38443 38445 38435 38344 38298 38290 38304 38347 38381 38375 38391 38381 38388 38412 38418 38448 38461 38419 38348 38252 38227 38247 38251 38255 38273 38259 38235 38235 38261 38273 38254 38266 38221 38070 37884 37804 37798 37862 37877 37862 37878 37820 37757 37710 37740 37760 37808 37830 37810 37781 37714 37672 37672 37684 37693 37670 37691 37686 37730 37816 37883 37943 38007 38087 38161 38226 38262 38306 38349 38442 38517 38549 38595 38608 38642 38691 38731 38749 38764 38747 38736 38742 38738 38762 38770 38793 38823 38840 38839 38855 38863 38809 38645 38457 38381 38410 38459 38570 38651 38699 38760 38795 38826 38835 38809 38773 38595 38481 38419 38403 38398 38394 38421 38421 38428 38443 38456 38452 38462 38443 38321 38107 37944 37839 37787 37774 37749 37747 37734 37719 37718 37804 37863 37906 37798 37570 37403 37283 37191 37087 37046 37029 37065 37092 37099 37129 37150 37177 37180 37028 36822 36708 36582 36525 36509 36504 36517 36515 36520 36526 36544 36636 36754 36767 36628 36474 36364 36318 36317 36323 36291 36277 36237 36194 36133 36051 35989 35871 35696 35374 35067 34824 34644 34547 34477 34382 34301 34228 34209 34196 34235 34282 34332 34272 34208 34138 34102 34112 34167 34181 34194 34161 34179 34133 34083 34015 33948 33785 33563 33285 33037 32806 32656 32533 32427 32329 32241 32114 32067 32050 32051 32131 32064 31978 31873 31816 31839 31824 31836 31840 31784 31693 31639 31563 31561 31538 31481 31371 31174 31066 31006 31040 31114 31211 31213 31236 31305 31430 31526 31654 31769 31801 31785 31745 31728 31751 31764 31746 31729 31683 31661 31611 31600 31579 31583 31556 31448 31309 31205 31146 31154 31173 31206 31237 31241 31313 31409 31518 31623 31693 31702 31721 31715 31596 31549 31471 31510 31501 31497 31472 31399 31392 31389 31417 31434 31440 31412 31300 31257 31213 31228 31239 31289 31367 31457 31599 31748 31839 31946 31926 31869 31781 31732 31702 31678 31644 31625 31590 31546 31528 31573 31599 31682 31699 31680 31603 31528 31495 31577 31625 31624 31764 31940 32062 32162 32283 32356 32388 32343 32237 32111 32055 31994 31985 31971 31912 31938 31930 31966 31985 32030 32058 32082 32076 31996 32011 32061 32162 32296 32408 32517 32633 32692 32740 32785 32833 32948 33115 33293 33486 33726 34096 34500 34797 34908 34937 34993 35057 35081 35117 35169 35273 35352 35480 35708 35790 35825 35761 35736 35736 35758 35767 35750 35747 35755 35794 35795 35699 35521 35439 35371 35354 35358 35346 35359 35332 35358 35415 35476 35528 35570 35532 35436 35332 35299 35313 35334 35325 35285 35221 35127 35091 35080 35042 35043 34900 34685 34448 34320 34349 34382 34453 34510 34624 34777 35019 35274 35425 35501 35527 35460 35243 35054 34961 34921 34910 34876 34834 34760 34706 34697 34723 34721 34725 34700 34544 34306 34152 34068 34010 33994 33985 33970 33967 33949 33986 33999 34035 34076 34029 33930 33856 33862 33892 33912 33933 33928 33893 33844 33814 33754 33716 33643 33542 33287 32977 32747 32570 32447 32364 32320 32280 32209 32173 32156 32148 32122 32159 32212 32210 32212 32248 32364 32455 32527 32523 32559 32561 32530 32538 32561 32558 32521 32380 32230 32067 31947 31859 31801 31717 31650 31621 31636 31678 31721 31769 31811 31810 31748 31702 31682 31684 31723 31730 31721 31720 31719 31701 31727 31748 31765 31752 31615 31473 31356 31303 31317 31347 31320 31288 31245 31225 31226 31221 31238 31256 31159 31081 31052 31037 31140 31396 31616 31754 31811 31902 31950 31943 31963 31959 31968 31912 31816 31712 31663 31623 31618 31633 31605 31635 31622 31626 31681 31718 31785 31847 31843 31791 31738 31730 31743 31832 31867 31925 31954 31955 32011 32038 32068 32066 32024 31982 31983 31978 31972 32031 32046 32049 32060 32069 32122 32115 32115 32118 32126 32116 32079 32074 32101 32159 32182 32201 32137 32102 32146 32271 32389 32485 32556 32577 32613 32667 32686 32704 32708 32659 32604 32586 32542 32520 32483 32439 32430 32336 32228 32181 32187 32182 32190 32209 32236 32278 32330 32430 32409 32447 32585 32665 32767 32873 32952 33081 33108 33093 33066 32994 32948 32905 32855 32835 32767 32624 32543 32460 32413 32356 32350 32340 32314 32331 32386 32524 32700 32922 33037 33109 33166 33148 33159 33191 33207 33234 33238 33262 33243 33202 33184 33136 33003 32808 32643 32535 32418 32377 32360 32305 32249 32246 32270 32308 32302 32436 32880 33389 33779 33953 34002 34000 33905 33806 33732 33678 33656 33620 33604 33514 33400 33232 33093 32980 32942 32960 33073 33191 33359 33612 33982 34390 34704 34822 34890 34720 34486 34331 34219 34126 34146 34260 34559 34839 35207 35469 35578 35598 35619 35691 35837 35979 36045 36091 35992 35847 35746 35698 35650 35672 35731 35773 35806 35779 35732 35660 35614 35557 35510 35480 35565 35644 35726 35776 35846 35959 36022 36026 35968 35905 35875 35941 35982 36091 36232 36337 36369 36472 36785 37088 37224 37208 37040 36861 36896 36947 36958 36934 36907 36866 36849 36803 36812 36751 36699 36569 36490 36481 36465 36475 36512 36496 36546 36598 36597 36658 36657 36695 36603 36479 36431 36388 36410 36390 36363 36327 36293 36254 36252 36229 36175 36170 36100 35880 35754 35678 35649 35679 35713 35759 35811 35877 35938 35994 36042 36108 36170 36132 35933 35836 35779 35797 35810 35837 35858 35845 35847 35857 35838 35814 35812 35769 35602 35470 35495 35662 35825 35919 35933 35903 35840 35792 35773 35780 35809 35829 35728 35551 35378 35247 35157 35129 35051 35016 34970 34892 34853 34811 34785 34721 34558 34322 34089 33901 33761 33684 33653 33592 33566 33545 33587 33608 33633 33701 33740 33661 33472 33339 33234 33152 33125 33118 33135 33169 33182 33232 33252 33270 33298 33264 33156 32973 32856 32733 32673 32648 32661 32691 32752 32857 32936 33006 33067 33107 33081 32986 32888 32839 32818 32849 32831 32787 32794 32883 33045 33194 33331 33463 33560 33649 33660 33734 33821 33940 34079 34242 34396 34525 34676 34815 34908 34987 35040 35104 35079 35027 34987 35017 35044 35082 35133 35175 35256 35285 35360 35466 35516 35564 35626 35622 35642 35697 35739 35788 35811 35773 35783 35816 35884 35934 36001 36013 35986 35937 35921 35922 35973 36001 36090 36127 36187 36224 36261 36340 36354 36399 36372 36271 36224 36214 36240 36281 36348 36363 36393 36428 36435 36451 36479 36477 36399 36306 36179 36073 36011 35987 35954 35925 35867 35808 35741 35718 35736 35720 35653 35446 35241 35106 34969 34878 34754 34711 34713 34672 34683 34702 34758 34797 34767 34620 34479 34378 34353 34380 34386 34457 34469 34464 34479 34512 34506 34465 34350 34251 34137 34028 33982 33957 33926 33863 33842 33814 33779 33741 33704 33680 33513 33270 33044 32886 32791 32762 32757 32714 32694 32701 32686 32693 32745 32848 32924 32882 32828 32754 32706 32652 32596 32554 32514 32467 32423 32371 32306 32212 32121 31881 31667 31501 31407 31365 31392 31516 31593 31657 31758 31884 31992 32100 32164 32134 32087 32134 32188 32296 32438 32497 32579 32629 32709 32797 32878 32938 32938 32878 32853 32851 32892 32956 33057 33141 33281 33444 33715 34204 35014 35607 36136 36348 36415 36550 36731 36856 36944 36905 36926 36961 36942 36885 36793 36744 36705 36646 36524 36406 36373 36360 36359 36374 36383 36400 36411 36413 36393 36422 36446 36461 36470 36451 36429 36437 36445 36479 36467 36466 36469 36476 36482 36507 36623 36430 36382 36249 36218 36150 36173 36251 36192 36208 36196 36218 36242 36286 36328 36326 36242 36160 36111 36070 36026 36029 36004 36010 35946 35954 36148 36284 36360 36327 36197 36028 35865 35807 35750 35741 35754 35786 35795 35824 35836 35865 35895 35907 35823 35670 35503 35405 35331 35283 35267 35196 35177 35128 35132 35168 35169 35220 35152 35042 34910 34824 34794 34746 34777 34765 34745 34762 34748 34815 34798 34811 34828 34645 34455 34289 34235 34205 34195 34226 34162 34152 34101 34059 34065 34062 34083 33938 33738 33543 33461 33383 33380 33335 33320 33298 33253 33227 33246 33353 33600 33844 34287 34716 35039 35170 35182 35151 35086 35037 34980 34951 34900 34900 34942 34962 34930 34858 34875 34929 34954 34910 34889 34897 34921 34979 35085 35194 35274 35330 35352 35274 35200 35169 35173 35200 35215 35229 35268 35252 35289 35353 35330 35360 35395 35386 35140 35156 35078 34882 34866 34981 34966 35024 34947 34916 34946 35005 35116 35145 35093 34974 34945 34958 35021 35091 35285 35566 35984 36288 36494 36490 36406 36352 36292 36106 35841 35697 35602 35551 35520 35486 35460 35447 35425 35417 35401 35378 35370 35238 34986 34753 34476 34246 33979 33736 33559 33399 33301 33245 33241 33215 33151 33052 32760 32420 32102 31922 31794 31713 31632 31548 31447 31375 31343 31357 31375 31359 31302 31085 30879 30759 30726 30736 30755 30751 30724 30697 30710 30702 30721 30770 30863 30860 30785 30691 30652 30690 30756 30871 31003 31104 31181 31309 31425 31522 31588 31690 31772 31851 31774 31907 31987 32021 32100 32197 32277 32291 32284 32296 32360 32372 32426 32491 32415 32424 32446 32449 32516 32526 32559 32602 32666 32680 32727 32777 32834 32843 32864 32845 32866 32889 32904 32925 32962 32966 33004 33081 33177 33281 33366 33466 33551 33571 33537 33533 33524 33593 33508 33700 33709 33734 33749 33759 33779 33826 33941 33853 33928 33917 33953 33874 33854 33820 33823 33827 33812 33830 33877 33924 33977 33992 34062 34107 34067 34064 34105 34211 34306 34350 34388 34432 34474 34546 34639 34734 34786 34871 34903 34876 34790 34739 34716 34744 34735 34708 34699 34667 34653 34687 34729 34748 34800 34826 34713 34576 34421 34276 34255 34327 34453 34537 34658 34806 34935 34991 35079 35185 35261 35249 35212 35083 35020 34968 34936 34865 34790 34735 34701 34671 34634 34639 34692 34739 34829 34754 34676 34595 34541 34497 34507 34569 34633 34731 34883 34943 35016 35041 35072 35140 34986 34877 34801 34730 34720 34703 34672 34632 34623 34572 34591 34574 34563 34526 34499 34348 34141 33984 33847 33727 33658 33594 33537 33479 33433 33410 33393 33400 33393 33444 33481 33396 33337 33286 33276 33263 33261 33214 33214 33203 33132 33101 33079 33021 32965 32878 32713 32486 32275 32041 31879 31765 31662 31598 31526 31525 31535 31549 31593 31650 31694 31739 31665 31607 31548 31572 31607 31663 31768 31812 31876 31964 32086 32143 32204 32287 32355 32322 32198 32107 32032 31973 31882 31821 31725 31647 31600 31570 31558 31539 31562 31640 31596 31538 31523 31565 31567 31663 31805 31923 32088 32210 32309 32374 32384 32392 32365 32274 32204 32134 32073 32057 32076 32117 32184 32213 32267 32298 32341 32388 32413 32453 32455 32396 32373 32370 32424 32493 32528 32551 32597 32615 32675 32744 32774 32862 32885 32886 32847 32861 32871 32871 32786 32810 32745 32764 32750 32760 32757 32795 32791 32744 32665 32592 32550 32502 32462 32430 32433 32408 32412 32387 32430 32438 32467 32519 32548 32549 32584 32647 32718 32795 32836 32916 32934 32937 32941 32926 32944 32930 32945 32918 32802 32634 32475 32368 32301 32233 32215 32156 32124 32105 32082 32085 32133 32166 32154 32126 32113 32119 32221 32334 32435 32573 32736 32824 32910 32993 33027 33071 33125 33059 32986 32941 32888 32887 32879 32862 32865 32826 32799 32761 32723 32658 32618 32585 32497 32336 32229 32149 32105 32080 32113 32158 32179 32235 32303 32346 32378 32440 32484 32522 32527 32506 32479 32487 32486 32488 32493 32514 32521 32543 32549 32550 32500 32503 32473 32443 32320 32245 32133 32030 32001 31904 31866 31834 31768 31760 31762 31787 31832 31905 31944 32035 32164 32259 32443 32574 32767 32897 33066 33116 33207 33252 33339 33438 33509 33524 33514 33474 33489 33503 33570 33652 33729 33759 33745 33735 33741 33706 33678 33644 33592 33494 33402 33299 33279 33276 33327 33442 33530 33703 33837 33978 34114 34155 34262 34245 34244 34185 34165 34125 34095 34145 34207 34282 34327 34342 34337 34306 34298 34272 34205 34097 33924 33802 33709 33615 33563 33494 33515 33481 33499 33538 33519 33515 33536 33577 33529 33489 33422 33315 33216 33154 33068 33002 32903 32867 32837 32820 32729 32695 32712 32658 32564 32458 32412 32368 32351 32416 32437 32477 32517 32564 32625 32708 32728 32807 32831 32751 32647 32596 32571 32519 32561 32610 32669 32682 32723 32725 32730 32736 32743 32776 32730 32647 32557 32423 32342 32314 32280 32218 32178 32184 32139 32158 32063 31938 32030 32181 32293 32323 32385 32445 32481 32612 32703 33050 33136 33231 33437 33699 33911 34109 34221 34193 34229 34275 34370 34463 34551 34630 34690 34776 34831 34883 34906 34903 34908 34886 34773 34690 34655 34622 34609 34600 34589 34596 34621 34630 34680 34734 34728 34803 34838 34822 34770 34734 34684 34663 34616 34631 34689 34689 34671 34686 34676 34713 34727 34704 34713 34621 34534 34423 34420 34383 34296 34232 34162 34150 34155 34116 34131 34172 34229 34243 34286 34356 34399 34453 34507 34520 34527 34523 34550 34570 34544 34532 34570 34522 34451 34319 34146 34009 33903 33810 33724 33696 33677 33615 33593 33538 33585 33566 33588 33629 33580 33574 33552 33525 33543 33579 33574 33586 33532 33503 33482 33501 33469 33471 33445 33399 33330 33228 33158 33136 33172 33158 33156 33181 33188 33240 33304 33323 33324 33340 33286 33163 33097 33077 33062 33078 33095 33115 33105 33103 33085 33063 33070 33090 33107 33127 33123 33034 32979 32985 32953 33015 33013 33031 33077 33039 33113 33149 33202 33349 33454 33592 33718 34164 34735 35101 35482 35743 35790 35780 35805 35871 35935 36039 36146 36166 36092 36020 35808 35630 35558 35557 35579 35602 35635 35662 35665 35674 35698 35735 35799 35919 36075 36172 36180 36205 36180 36184 36180 36164 36147 36093 36070 36044 36020 35985 35970 35896 35707 35463 35259 35065 34931 34808 34709 34646 34605 34591 34591 34631 34693 34765 34827 34804 34727 34711 34702 34750 34794 34814 34811 34840 34857 34879 34901 34914 34903 34879 34824 34709 34564 34437 34343 34264 34195 34142 34091 34052 34106 34135 34153 34183 34240 34212 34192 34145 34174 34178 34348 34785 35162 35381 35439 35361 35300 35250 35230 35218 35177 35030 34935 34904 34983 34974 34980 34979 34959 34928 34892 34886 34862 34843 34780 34635 34492 34486 34655 34857 34977 34941 34917 35012 35253 35489 35699 35772 35787 35770 35643 35540 35489 35470 35445 35429 35360 35289 35264 35267 35291 35327 35359 35376 35314 35158 35078 35036 35075 35118 35168 35188 35221 35260 35241 35286 35334 35453 35541 35549 35597 35638 35662 35651 35653 35626 35613 35585 35533 35437 35358 35289 35240 35028 34724 34410 34159 33961 33813 33703 33579 33462 33366 33315 33280 33241 33242 33149 32923 32683 32497 32382 32294 32232 32146 32096 32071 32051 32072 32042 32021 31991 31908 31748 31602 31516 31516 31538 31521 31424 31394 31361 31406 31485 31539 31619 31645 31627 31511 31411 31331 31269 31233 31277 31264 31272 31337 31345 31413 31466 31532 31601 31602 31549 31492 31476 31508 31548 31619 31657 31714 31782 31823 31911 31973 32040 32098 32138 32143 32173 32228 32296 32388 32523 32644 32753 32857 32959 33306 34137 34424 35025 35570 35679 35755 35594 35249 35169 35256 35226 35112 35218 35214 35290 35316 35403 35550 35550 35628 35523 35412 35329 35302 35380 35473 35592 35613 35613 35587 35560 35498 35465 35408 35438 35404 35352 35280 35240 35239 35250 35292 35371 35356 35400 35466 35501 35559 35604 35713 35743 35710 35626 35529 35501 35458 35448 35469 35497 35537 35600 35652 35660 35742 35865 35912 35940 35899 35826 35775 35727 35658 35612 35581 35556 35550 35510 35520 35493 35471 35440 35432 35301 35168 35039 34923 34862 34802 34771 34710 34661 34624 34595 34572 34541 34507 34487 34416 34287 34177 34054 34031 34018 34040 34111 34236 34307 34385 34464 34487 34543 34590 34667 34679 34658 34557 34531 34503 34487 34503 34532 34530 34538 34567 34610 34670 34699 34748 34794 34827 34802 34714 34646 34605 34566 34574 34555 34575 34606 34670 34646 34671 34718 34719 34764 34753 34673 34589 34528 34527 34504 34537 34541 34549 34571 34662 34639 34739 34758 34787 34846 34818 34797 34748 34663 34618 34596 34607 34579 34585 34591 34574 34649 34612 34677 34691 34756 34749 34655 34651 34602 34597 34630 34683 34730 34799 34844 34905 35005 35111 35254 35390 35541 35648 35681 35682 35681 35701 35709 35718 35760 35774 35769 35754 35745 35752 35708 35684 35635 35515 35368 35195 35070 34958 34865 34796 34738 34720 34673 34671 34655 34649 34655 34663 34634 34600 34564 34445 34481 34465 34429 34513 34530 34601 34585 34643 34676 34719 34758 34780 34730 34644 34607 34564 34550 34552 34554 34575 34587 34537 34567 34610 34645 34704 34708 34649 34568 34799 35402 35850 36140 36658 37185 37257 37373 37522 37662 37712 37743 37732 37616 37493 37402 37309 37241 37170 37167 37171 37219 37214 37185 37170 37136 37077 37043 36993 36981 37008 36982 36996 37023 37035 37050 37081 37098 37146 37244 37436 37484 37504 37477 37305 37398 37505 37529 37550 37562 37681 37777 37813 37888 37847 37867 37830 37815 37745 37704 37679 37658 37619 37629 37637 37630 37609 37520 37554 37541 37557 37404 37282 37175 37098 37064 37010 36994 36988 37028 37043 37060 37049 37043 37023 36816 36623 36423 36227 36092 35982 35887 35774 35603 35465 35343 35214 35104 34958 34671 34311 33985 33705 33483 33318 33171 33028 32906 32841 32762 32724 32724 32779 32706 32633 32742 32830 32923 33016 33076 33187 33184 33229 33252 33256 33236 33261 33236 33188 33090 33047 33038 33042 33187 33204 33261 33355 33390 33436 33569 33751 33815 33849 33915 33881 33875 33917 34021 34045 34121 34105 34063 34042 34023 34039 34011 33996 34007 33924 33912 33874 33882 33876 33863 33862 33828 33801 33823 33783 33755 33775 33772 33664 33583 33573 33483 33508 33514 33552 33564 33572 33623 33608 33640 33666 33692 33595 33569 33536 33497 33478 33488 33453 33471 33482 33449 33441 33498 33564 33511 33497 33414 33354 33293 33238 33354 33362 33366 33348 33313 33127 33315 33425 33507 33737 33817 33754 33849 33895 33834 33830 33888 33929 33959 34043 34098 34148 34208 34260 34170 34065 34062 34038 34044 34092 34142 34195 34272 34277 34301 34332 34354 34382 34327 34328 34364 34299 34365 34390 34393 34448 34507 34562 34596 34701 34737 34786 34774 34785 34710 34632 34674 34768 34834 34870 34983 35183 35173 35323 35416 35524 35598 35568 35485 35416 35454 35505 35451 35510 35522 35636 35654 35761 35811 35808 35883 35784 35627 35596 35728 35824 35892 35964 36006 36011 35998 36046 36090 36113 36181 36149 36024 36014 35951 35837 35884 35903 35906 35864 35923 35941 35905 35924 35956 35896 35828 35798 35747 35691 35714 35725 35790 35854 35920 36009 36078 36169 36248 36245 36197 36185 36216 36265 36325 36362 36381 36410 36450 36496 36535 36581 36599 36519 36351 36347 36310 36261 36310 36336 36330 36343 36399 36447 36494 36541 36557 36553 36407 36377 36418 36464 36549 36629 36663 36745 36812 36878 36975 37033 37127 37123 37053 36953 36946 36940 36944 36934 36910 36871 36819 36856 36886 36970 37043 36960 36809 36634 36568 36595 36637 36624 36666 36748 36774 36822 36838 36886 36967 36923 36678 36486 36367 36297 36240 36234 36161 36078 36070 36086 36146 36211 36167 36187 36206 36179 36148 36307 36355 36288 36347 36489 36412 36528 36581 36620 36724 36747 36661 36534 36452 36383 36408 36400 36366 36316 36265 36193 36184 36172 36136 36103 35987 35775 35636 35586 35545 35588 35633 35671 35716 35781 35791 35858 35933 36047 36124 36014 35900 35813 35769 35767 35783 35773 35776 35766 35751 35742 35773 35826 35760 35710 35550 35417 35386 35338 35330 35365 35338 35300 35384 35429 35434 35435 35440 35297 35152 35099 35028 35045 35102 35135 35160 35268 35337 35384 35491 35552 35548 35470 35383 35266 35221 35162 35087 35063 35024 34997 34916 34872 34772 34754 34661 34504 34365 34304 34280 34290 34375 34512 34557 34585 34620 34713 34820 34912 34957 35041 35161 35278 35388 35521 35752 35854 35844 35907 35989 36045 36095 36160 36218 36199 36036 35736 35604 35612 35626 35660 35665 35695 35664 35655 35660 35689 35654 35681 35742 35781 35711 35569 35556 35482 35485 35486 35443 35421 35352 35344 35294 35284 35313 35262 35268 35244 35017 34765 34488 34290 34161 34173 34175 34152 34207 34278 34312 34366 34408 34692 35081 35302 35480 35572 35599 35598 35623 35637 35741 35765 35790 35807 35842 35839 35811 35809 35828 35717 35526 35286 35097 35020 35001 34961 34944 34903 34836 34842 34847 34866 34896 34903 34923 34720 34440 34104 33823 33645 33545 33499 33516 33579 33543 33569 33620 33666 33663 33725 33660 33449 33273 33077 32902 32839 32760 32669 32539 32490 32448 32425 32424 32440 32460 32485 32411 32274 32132 32004 31986 32023 32028 32176 32365 32567 32698 32863 32998 33124 33186 33176 33045 32927 32845 32773 32724 32622 32630 32542 32509 32596 32627 32634 32675 32682 32642 32506 32371 32275 32211 32181 32187 32202 32212 32246 32350 32400 32486 32585 32680 32684 32647 32649 32603 32638 32722 32728 32785 32781 32761 32754 32747 32766 32761 32783 32692 32636 32510 32455 32379 32340 32379 32362 32388 32420 32461 32520 32575 32670 32709 32747 32803 32844 32854 32901 32986 33000 33058 33114 33166 33211 33246 33280 33310 33257 33185 33066 33001 32980 32890 32823 32809 32730 32690 32673 32659 32652 32742 32709 32640 32614 32533 32482 32468 32568 32613 32750 32851 32965 33090 33250 33236 33254 33364 33674 34194 34711 35203 35265 35361 35487 35441 35276 35213 35049 34916 34856 34831 34850 34714 34571 34473 34424 34416 34398 34378 34333 34324 34295 34315 34363 34456 34520 34431 34351 34267 34271 34305 34294 34331 34434 34340 34436 34486 34430 34499 34552 34612 34292 34210 34126 33988 33815 33766 33704 33641 33534 33511 33422 33379 33346 33300 33194 32880 32669 32440 32273 32138 31992 31882 31833 31753 31720 31709 31696 31680 31702 31641 31457 31234 31012 30966 30988 30944 30935 31055 31040 31068 31058 31139 31215 31328 31258 31176 31007 30845 31003 30932 30974 30979 31026 31059 31046 31151 31189 31241 31315 31396 31462 31467 31431 31427 31449 31497 31543 31587 31718 31756 31854 31905 31963 32014 32109 32194 32209 32198 32127 32196 32275 32372 32446 32427 32467 32312 32458 32490 32696 32921 33166 33280 33329 33375 33456 33688 33885 33880 34002 34103 34247 34434 34583 34662 34742 34781 34819 34841 34772 34759 34750 34770 34796 34841 34890 34983 35008 35078 35202 35321 35430 35559 35634 35648 35663 35761 35790 35868 35899 35939 35947 35991 36012 36025 36064 36087 36066 36040 35970 35849 35744 35640 35522 35429 35342 35265 35232 35150 35090 35057 35035 35015 35059 35060 35025 34901 34873 34885 34897 34814 34877 34922 34937 34964 34928 34903 34914 34911 34822 34644 34462 34400 34200 34313 34537 34580 34603 34604 34615 34616 34622 34590 34639 34653 34654 34564 34571 34585 34532 34515 34540 34533 34595 34648 34676 34710 34695 34717 34740 34628 34477 34239 34032 33920 33985 33999 34237 34507 34628 34745 34844 34941 35139 35385 35681 35961 36246 36465 36630 36697 36680 36681 36569 36471 36374 36378 36402 36422 36452 36478 36398 36281 36201 36115 36033 36012 35940 35937 35882 35855 35847 35808 35801 35799 35784 35698 35566 35459 35417 35373 35338 35319 35296 35278 35279 35344 35380 35445 35533 35522 35465 35355 35281 35240 35223 35185 35149 35091 34999 34918 34863 34823 34797 34806 34776 34662 34608 34554 34537 34539 34525 34541 34497 34507 34507 34541 34551 34585 34584 34517 34408 34327 34204 34148 34182 34160 34111 34062 33980 33916 33864 33825 33784 33687 33482 33278 33086 32956 32861 32856 32844 32808 32824 32849 32882 32934 32984 33034 33036 32853 32765 32742 32776 32919 32912 32940 32994 33058 33061 33039 33019 32927 32925 32793 32596 32420 32256 32179 32076 32090 32038 32087 32108 32196 32303 32395 32520 32587 32604 32555 32485 32441 32470 32554 32650 32762 32832 32943 33065 33209 33323 33410 33457 33424 33371 33321 33261 33233 33211 33188 33206 33193 33213 33267 33309 33431 33509 33596 33599 33600 33577 33565 33540 33528 33558 33555 33550 33561 33575 33587 33626 33638 33697 33689 33614 33551 33479 33426 33391 33349 33322 33272 33201 33183 33160 33154 33139 33168 33157 33068 32971 32948 32926 32974 33022 33062 33086 33115 33109 33145 33162 33183 33225 33189 33127 33061 33028 33010 33021 33020 33045 33065 33074 33113 33125 33142 33152 33159 33102 33043 32866 32735 32659 32629 32642 32666 32732 32791 32879 32928 32959 33029 33089 33152 33159 33134 33125 33157 33201 33247 33320 33361 33388 33403 33402 33405 33386 33379 33367 33279 33142 33029 32954 32906 32876 32868 32910 32964 33052 33134 33235 33349 33417 33477 33507 33497 33514 33556 33617 33662 33732 33784 33819 33857 33890 33913 33931 33942 33904 33828 33684 33589 33504 33396 33374 33309 33287 33296 33288 33333 33377 33450 33535 33580 33595 33610 33646 33702 33750 33821 33888 33947 34036 34086 34140 34189 34244 34270 34222 34177 34095 34022 33980 33906 33889 33803 33756 33709 33694 33658 33639 33622 33579 33479 33371 33278 33254 33269 33300 33336 33370 33416 33447 33467 33532 33604 33650 33622 33550 33440 33352 33286 33197 33141 33075 33040 32989 32938 32891 32884 32883 32853 32703 32590 32489 32451 32461 32427 32441 32441 32434 32408 32497 32591 32657 32696 32665 32677 32612 32629 32642 32653 32676 32720 32744 32734 32768 32728 32728 32736 32686 32583 32507 32458 32404 32411 32391 32435 32434 32455 32494 32542 32573 32621 32676 32640 32582 32532 32513 32521 32502 32518 32526 32546 32561 32600 32586 32636 32626 32598 32524 32367 32261 32210 32189 32172 32180 32167 32191 32212 32241 32273 32320 32361 32391 32333 32324 32266 32323 32324 32423 32445 32473 32522 32572 32616 32655 32683 32719 32655 32545 32497 32464 32446 32459 32523 32531 32533 32502 32539 32555 32631 32668 32722 32740 32734 32700 32727 32799 32814 32838 32869 32955 33032 33117 33217 33315 33370 33407 33420 33403 33474 33481 33565 33618 33677 33711 33747 33753 33740 33756 33747 33717 33634 33573 33581 33606 33665 33710 33760 33796 33818 33840 33863 33909 33959 34026 34041 33954 33873 33872 33900 33924 33981 34023 34101 34193 34259 34316 34361 34350 34349 34252 34127 33965 33874 33797 33824 33816 33875 33905 33986 34025 34045 34101 34160 34224 34204 34161 34099 34094 34112 34162 34177 34228 34299 34297 34371 34373 34366 34356 34229 34041 33854 33702 33606 33538 33482 33447 33390 33376 33341 33323 33340 33377 33353 33320 33221 33158 33114 33106 33121 33170 33259 33297 33360 33427 33498 33546 33563 33505 33330 33205 33131 33044 33065 33030 32964 32933 32932 32955 32962 33020 33091 33178 33151 33120 33075 33011 33022 33037 33077 33104 33135 33196 33231 33306 33351 33419 33440 33413 33343 33248 33231 33145 33097 33020 32942 32852 32796 32753 32744 32737 32698 32589 32491 32422 32414 32438 32434 32454 32458 32480 32589 32822 33008 33143 33219 33221 33215 33111 33115 33169 33189 33221 33264 33260 33279 33311 33331 33317 33355 33359 33284 33217 33229 33272 33354 33444 33549 33593 33637 33672 33707 33706 33765 33798 33783 33733 33698 33647 33676 33692 33707 33717 33727 33751 33841 33867 33891 33912 33885 33753 33530 33361 33230 33118 33061 33025 33033 33077 33185 33238 33222 33197 33212 33266 33261 33207 33187 33154 33208 33275 33341 33423 33475 33494 33557 33593 33587 33599 33612 33534 33422 33282 33181 33130 33114 33081 33093 33113 33132 33152 33246 33338 33425 33511 33494 33564 33562 33595 33684 33804 33880 33910 33947 33951 33958 33952 33944 33952 33858 33687 33559 33456 33341 33288 33231 33150 33096 33077 33035 33040 33091 33152 33164 33061 32931 32852 32780 32737 32813 32832 32888 32966 32974 33044 33097 33175 33223 33213 33159 33091 33032 33008 33041 32945 32924 32879 32780 32740 32697 32678 32689 32630 32533 32495 32413 32405 32420 32453 32500 32554 32582 32736 32872 33011 33151 33128 33059 32994 32930 32928 32929 32895 32855 32811 32764 32702 32630 32579 32539 32485 32314 32161 32013 31904 31833 31785 31763 31697 31698 31707 31724 31780 31842 31900 31931 31945 31965 32030 32055 32117 32122 32124 32139 32100 32164 32111 32102 32127 32067 31934 31810 31707 31651 31618 31630 31646 31679 31673 31731 31795 31858 31935 32010 32051 32118 32200 32323 32435 32552 32637 32736 32814 32847 32915 32971 32997 32992 32954 32858 32740 32646 32559 32500 32457 32429 32388 32364 32389 32392 32481 32534 32597 32602 32608 32629 32714 32794 32888 32986 33084 33143 33246 33320 33417 33471 33547 33588 33605 33552 33493 33461 33377 33326 33284 33271 33269 33230 33248 33245 33224 33230 33215 33174 33089 33077 33036 33062 33112 33202 33265 33439 33521 33597 33666 33746 33774 33785 33745 33707 33740 33669 33674 33622 33544 33488 33420 33329 33289 33256 33206 33199 33140 33016 32912 32776 32747 32749 32772 32919 33019 33143 33296 33349 33479 33561 33585 33568 33457 33325 33212 33131 33101 33065 33013 32937 32849 32752 32688 32627 32563 32518 32474 32318 32181 32057 31930 31869 31875 31896 31952 31968 32030 32044 32145 32234 32313 32370 32384 32358 32309 32266 32254 32255 32298 32314 32308 32319 32350 32395 32437 32498 32533 32499 32425 32343 32310 32329 32397 32454 32584 32688 32814 32860 32914 32955 32994 32979 32969 32943 32950 32989 33069 33162 33278 33356 33447 33539 33612 33660 33728 33750 33730 33676 33638 33646 33693 33758 33739 33756 33736 33747 33766 33804 33863 33935 34015 34107 34162 34154 34177 34209 34237 34274 34318 34359 34394 34492 34613 34721 34821 34958 34963 34959 34932 34940 34970 34960 34976 34992 34983 34976 35036 35064 35114 35199 35264 35309 35268 35271 35238 35227 35212 35189 35182 35133 35104 35105 35117 35136 35146 35182 35141 35039 34931 34842 34795 34775 34787 34788 34789 34803 34854 34908 34989 35063 35142 35145 35073 35012 34933 34888 34825 34791 34771 34713 34705 34674 34693 34643 34673 34630 34436 34227 34077 33970 33901 33916 33924 33956 33998 34048 34098 34130 34201 34291 34356 34341 34324 34348 34410 34449 34542 34593 34627 34630 34660 34671 34678 34685 34670 34570 34370 34216 34128 34020 33937 33879 33813 33758 33728 33716 33747 33794 33885 33990 33992 33974 33973 33982 34010 34056 34041 34041 34036 34015 34045 34056 34099 34112 34015 33856 33633 33435 33323 33175 33068 32964 32876 32817 32774 32725 32689 32710 32698 32630 32588 32549 32569 32690 32733 32732 32697 32709 32700 32732 32735 32713 32716 32730 32651 32546 32476 32413 32360 32307 32255 32185 32126 32111 32094 32049 31982 31908 31804 31703 31608 31541 31482 31517 31550 31621 31664 31700 31726 31796 31843 31897 31958 31943 31841 31734 31623 31508 31442 31366 31299 31191 31094 31028 30944 30843 30814 30752 30662 30503 30349 30248 30222 30249 30313 30439 30643 30865 31071 31244 31509 31753 31925 32029 32099 32141 32241 32336 32426 32516 32586 32627 32668 32733 32816 32891 32980 33101 33195 33214 33190 33185 33206 33274 33397 33504 33556 33614 33653 33718 33810 33870 33923 33941 33869 33804 33714 33654 33609 33567 33514 33459 33418 33374 33343 33345 33324 33326 33297 33239 33139 33012 32931 32872 32817 32783 32769 32762 32788 32816 32850 32910 32943 32971 32999 32924 32811 32708 32609 32543 32488 32447 32430 32398 32393 32387 32383 32369 32408 32432 32405 32316 32228 32195 32296 32694 33353 33866 34326 34710 35143 35490 35825 36045 36198 36276 36368 36445 36555 36740 36963 37172 37341 37478 37626 37769 37843 37933 38008 38071 38130 38171 38180 38168 38183 38168 38209 38258 38275 38306 38320 38345 38330 38340 38349 38394 38448 38506 38586 38744 38927 39081 39248 39470 39793 40073 40280 40384 40369 40321 40307 40308 40343 40352 40367 40402 40408 40415 40464 40480 40517 40534 40537 40582 40653 40711 40740 40720 40669 40646 40605 40527 40439 40332 40212 40075 39980 39894 39790 39746 39670 39642 39471 39222 38954 38742 38639 38578 38488 38396 38253 38162 38059 37973 37895 37811 37772 37612 37297 37019 36826 36669 36548 36440 36313 36160 36054 35922 35811 35694 35636 35537 35335 35020 34718 34484 34363 34244 34143 34022 33927 33826 33748 33684 33623 33614 33551 33383 33165 32994 32890 32840 32808 32790 32735 32672 32624 32582 32545 32508 32497 32349 32124 31884 31714 31659 31639 31670 31703 31725 31717 31785 31808 31841 31897 31879 31786 31650 31628 31589 31623 31606 31704 31728 31743 31784 31829 31870 31919 31975 31913 31789 31630 31579 31515 31503 31477 31485 31579 31614 31647 31769 31858 31908 32000 32091 32142 32115 32110 32118 32138 32182 32237 32304 32359 32413 32484 32537 32621 32723 32769 32756 32720 32734 32701 32722 32720 32740 32779 32859 32879 32864 32955 32989 33076 33082 33081 33046 33039 33031 33022 33010 33022 33053 33005 33040 33071 33105 33166 33268 33369 33448 33453 33461 33503 33542 33563 33590 33632 33641 33664 33667 33680 33700 33724 33746 33767 33755 33632 33527 33415 33403 33391 33413 33436 33481 33525 33521 33590 33628 33670 33687 33707 33639 33539 33355 33282 33185 33142 33122 33157 33164 33237 33314 33390 33438 33502 33541 33514 33388 33297 33106 33016 32829 32841 32867 32930 33007 33113 33173 33219 33275 33335 33340 33331 33216 33143 33092 33089 33074 33062 33058 33060 33096 33176 33203 33256 33304 33333 33285 33205 33129 33119 33133 33157 33208 33226 33276 33320 33364 33392 33425 33516 33546 33564 33511 33512 33586 33705 33902 34097 34211 34264 34333 34377 34429 34421 34450 34437 34424 34334 34439 34425 34433 34469 34512 34502 34523 34528 34504 34540 34574 34600 34599 34576 34571 34530 34565 34679 35006 35683 36356 36772 36875 36804 36738 36683 36681 36723 36904 37077 37168 37147 37010 36902 36856 36847 36818 36794 36728 36677 36649 36627 36592 36599 36592 36446 36152 35902 35692 35559 35438 35314 35231 35213 35286 35384 35494 35592 35624 35567 35541 35712 35799 35874 35963 36002 36058 36118 36162 36213 36225 36201 36217 36225 36126 35919 35693 35517 35422 35381 35390 35380 35386 35370 35372 35383 35379 35350 35357 35321 35165 35021 34942 34869 34828 34856 34873 34866 34876 34893 34894 34935 34935 34965 34992 34961 34890 34810 34752 34710 34717 34963 35271 35450 35637 35777 35823 35898 35962 36014 36067 36136 36130 36121 36139 36132 36174 36207 36215 36203 36182 36196 36175 36123 36114 36080 36059 35943 35817 35650 35488 35402 35363 35309 35321 35277 35276 35266 35294 35302 35333 35378 35383 35278 35171 35054 35015 35052 35170 35169 35208 35275 35254 35294 35302 35298 35253 35219 35145 35061 34904 34722 34556 34459 34410 34283 34190 34061 33964 33922 33912 33928 33939 33971 33989 33997 33867 33868 33914 33985 34088 34262 34445 34610 34767 35013 35218 35392 35604 35844 35946 35973 35862 35788 35657 35646 35631 35643 35639 35618 35612 35582 35601 35624 35668 35659 35637 35579 35488 35402 35272 35227 35221 35223 35229 35227 35348 35504 35568 35648 35766 35874 35919 35934 35837 35869 35954 35976 35977 35989 35916 35879 35834 35818 35801 35784 35655 35531 35347 35209 35107 35035 35034 34984 34974 34989 34978 35005 34980 35116 35094 35062 35010 34957 35058 35134 35202 35257 35331 35370 35407 35435 35423 35400 35342 35312 35140 34909 34649 34452 34289 34127 33942 33808 33681 33593 33497 33473 33422 33413 33389 33343 33168 32988 32903 32905 32873 32899 32895 32922 32881 32898 32866 32921 33048 33122 32971 32829 32799 32779 32710 32670 32633 32628 32612 32612 32502 32496 32521 32490 32389 32260 32128 32034 31938 31923 31961 31970 32008 32059 32166 32274 32433 32583 32811 33023 33094 33203 33255 33348 33426 33507 33569 33621 33658 33672 33687 33719 33732 33747 33683 33546 33451 33356 33303 33253 33229 33241 33200 33210 33233 33269 33291 33353 33403 33401 33338 33274 33182 33183 33160 33142 33110 33075 33068 33045 33090 33061 33096 33112 33020 32901 32837 32739 32700 32618 32510 32662 33053 33096 33229 33306 33248 33212 33137 33027 33091 33068 33071 33059 33020 33020 33058 33142 33197 33267 33332 33424 33498 33518 33488 33440 33429 33453 33507 33530 33583 33635 33701 33756 33826 33877 33940 34001 33990 33938 33919 33892 33898 33910 33948 33998 34107 34501 34898 35423 35843 36301 36821 37024 37089 36868 36901 37189 37279 37216 37239 37248 37239 37204 37190 37200 37205 37169 37168 37185 37227 37224 37204 37036 36950 36947 36928 36915 36855 36851 36901 36911 36834 36807 36830 36815 36859 36812 36820 36792 36722 36636 36540 36480 36418 36354 36217 36007 35864 35823 35745 35730 35718 35700 35718 35751 35816 35864 35911 35980 36050 36026 36037 36034 36038 36082 36107 36156 36178 36177 36179 36163 36126 36069 35970 35771 35492 35219 35061 34917 34792 34715 34647 34590 34524 34495 34456 34459 34465 34464 34382 34240 34136 34071 34009 34001 33970 33980 33969 33961 33993 33986 33918 33844 33782 33561 33264 33052 32870 32700 32564 32489 32398 32339 32299 32283 32274 32349 32411 32456 32381 32258 32160 32128 32127 32145 32217 32299 32321 32338 32399 32460 32554 32604 32539 32385 32188 32003 31886 31807 31758 31681 31645 31616 31593 31578 31552 31582 31588 31572 31472 31369 31335 31381 31426 31511 31600 31683 31781 31899 32037 32165 32297 32401 32427 32334 32241 32141 32119 32080 32059 32021 32017 31974 31994 31987 31996 32021 32071 32095 32005 31917 31875 31799 31787 31838 31903 31968 32005 32214 32374 31983 31991 32210 32365 32490 32629 32742 32814 32913 32937 32973 33044 33317 33417 33572 33746 33960 34161 34332 34516 34712 34890 35062 35176 35284 35365 35459 35494 35535 35565 35551 35489 35480 35437 35313 35179 35151 35163 35186 35209 35181 35194 35105 35167 35174 35173 35209 35238 35164 35001 34831 34724 34678 34616 34622 34627 34646 34693 34684 34761 34793 34859 34940 34900 34832 34798 34790 34805 34859 34858 34845 34840 34846 34797 34824 34768 34729 34703 34557 34547 34613 34619 34597 34609 34581 34572 34594 34570 34527 34567 34567 34601 34636 34602 34585 34594 34547 34555 34532 34532 34500 34441 34402 34345 34263 34254 34214 34151 33886 33664 33468 33307 33160 33049 32946 32814 32748 32711 32669 32576 32573 32566 32437 32267 32080 31797 31777 31796 31751 31727 31717 31758 31859 31945 31952 31972 31975 31932 31671 31522 31411 31352 31259 31276 31219 31281 31266 31313 31354 31353 31389 31375 31300 31125 31125 31091 31130 31227 31359 31440 31510 31565 31580 31630 31674 31707 31675 31507 31351 31259 31147 31086 31050 31017 31032 31003 30949 30916 30883 30882 30876 30816 30711 30556 30472 30465 30490 30560 30660 30809 30882 31163 31587 31815 31794 31856 31972 32090 32241 32364 32499 32649 32772 32858 32950 33011 33105 33140 33198 33274 33306 33259 33238 33246 33309 33336 33394 33478 33611 33668 33711 33722 33817 33923 34114 34130 34174 34178 34217 34254 34293 34313 34316 34354 34363 34380 34419 34434 34497 34439 34327 34152 33896 33800 33602 33505 33480 33451 33391 33340 33335 33268 33315 33363 33364 33248 33185 33141 33130 33207 33272 33350 33421 33487 33571 33634 33662 33683 33721 33663 33511 33336 33170 33026 32936 32833 32759 32647 32531 32467 32402 32371 32391 32392 32378 32266 32195 32211 32259 32258 32267 32303 32306 32330 32335 32320 32294 32264 32225 32051 31789 31525 31333 31126 30993 30899 30877 30869 30887 30918 30946 30957 31025 31064 31074 30961 30909 30902 31019 31209 31413 31544 31748 31852 32002 32064 32155 32235 32238 32167 32016 31863 31800 31755 31682 31668 31654 31655 31668 31660 31686 31695 31777 31767 31761 31678 31624 31707 31804 31962 32156 32281 32466 32629 32723 32836 32928 32951 32990 32917 32768 32667 32571 32434 32343 32248 32184 32141 32100 32055 32059 32014 32047 32063 31968 31918 31819 31838 32569 33241 33503 33595 33742 33873 34009 34252 34407 34678 34916 34943 34632 34472 34516 34588 34575 34493 34429 34356 34347 34361 34380 34351 34393 34350 34207 34087 33950 33934 33894 33874 33869 33882 33897 33913 33871 33885 33872 33825 33702 33535 33345 33231 33140 33071 33003 32962 32871 32846 32801 32819 32837 32849 32824 32746 32584 32375 32219 32172 32153 32127 32042 31904 31748 31628 31540 31591 31759 31858 31856 31723 31477 31358 31283 31267 31215 31259 31299 31351 31404 31522 31652 31679 31698 31639 31538 31409 31317 31324 31270 31274 31293 31304 31429 31541 31715 31926 32139 32244 32206 32131 32030 31918 31825 31825 31832 31874 31938 31989 32012 32025 32085 32211 32379 32421 32403 32354 32312 32318 32396 32450 32475 32546 32572 32623 32728 32831 33033 33298 33520 33709 33861 33954 34023 34040 34084 34093 34131 34150 34288 34426 34559 34655 34694 34726 34694 34625 34622 34679 34729 34784 34845 34883 34936 34950 34937 34941 34942 34925 34936 34862 34708 34576 34455 34363 34280 34208 34128 34076 34013 33965 33923 33906 33913 33903 33826 33710 33602 33492 33430 33437 33466 33509 33566 33646 33761 33890 33991 34052 34102 34106 34054 34018 34007 34006 34014 34017 33999 33976 33936 33898 33809 33779 33746 33693 33574 33344 33086 32883 32774 32697 32659 32609 32627 32621 32616 32615 32622 32685 32733 32674 32575 32501 32400 32339 32377 32454 32512 32638 32753 32849 32940 33063 33145 33229 33269 33249 33209 33268 33341 33398 33402 33368 33312 33278 33269 33264 33257 33258 33252 33147 32981 32847 32698 32636 32617 32620 32624 32630 32641 32659 32680 32835 33277 33732 33964 33962 33955 33979 34084 34240 34377 34476 34465 34447 34426 34440 34451 34449 34500 34523 34399 34297 34294 34268 34254 34233 34266 34249 34260 34270 34278 34284 34309 34327 34324 34256 34125 34012 33964 33966 34005 34064 34093 34107 34134 34133 34119 34126 34116 34128 34019 33797 33577 33359 33214 33148 33132 33114 33095 33068 33064 33056 33060 33079 33095 33069 32954 32802 32681 32705 32732 32790 32870 32961 33029 33068 33108 33107 33125 33108 33093 32987 32794 32625 32504 32364 32350 32312 32309 32305 32291 32268 32248 32267 32293 32280 32167 32075 31955 31918 31933 31980 32113 32288 32442 32576 32697 32792 32892 32981 32995 32866 32708 32572 32449 32369 32308 32213 32178 32120 32051 32037 32049 32050 32049 32000 31864 31729 31641 31614 31604 31597 31676 31788 31976 32162 32299 32446 32572 32640 32619 32531 32416 32368 32416 32512 32510 32513 32382 32327 32286 32261 32205 32148 31946 31735 31534 31261 31618 32181 32648 33051 33403 33610 33684 33668 33700 33718 33725 33518 33323 33187 33083 32995 32859 32680 32488 32312 32170 32114 31998 31923 31863 31677 31493 31363 31307 31273 31321 31316 31331 31401 31447 31546 31630 31687 31728 31633 31482 31429 31195 31157 31119 31091 31062 31031 30960 31041 31013 31020 31026 31000 30887 30696 30588 30532 30532 30562 30588 30639 30689 30740 30797 30860 30927 30929 30889 31116 31322 31514 31650 31755 31811 31895 31949 31980 32002 32073 32098 32148 32049 31957 31872 31805 31817 31804 31783 31785 31818 31803 31911 31890 31965 32051 32034 31974 31888 31814 31813 31828 31830 31888 31924 31936 31877 31912 31903 31963 31921 31981 31959 31932 31893 31889 31913 31955 31951 31930 31942 32017 32013 32050 32099 32097 32050 32008 31953 31912 31907 31880 31877 31845 31817 31806 31793 31785 31826 31844 31848 31827 31785 31776 31781 31826 31859 31921 31960 31979 32029 32103 32156 32200 32233 32193 32120 32061 32082 32084 32104 32118 32127 32152 32139 32180 32198 32267 32285 32297 32249 32149 32125 32066 32041 32049 32060 32095 32123 32154 32171 32161 32169 32177 32162 32067 31950 31872 31840 31789 31811 31779 31775 31796 31781 31799 31826 31824 31824 31811 31788 31676 31621 31585 31592 31636 31697 31746 31818 31852 31876 31941 32000 32072 32135 32064 32078 32099 32159 32220 32248 32266 32310 32362 32438 32489 32589 32629 32720 32750 32722 32709 32697 32678 32709 32687 32681 32680 32684 32686 32700 32707 32726 32711 32666 32604 32556 32542 32534 32539 32535 32525 32493 32505 32481 32475 32420 32318 32201 32033 31911 31856 31832 31818 31779 31768 31797 31765 31760 31763 31764 31746 31650 31520 31463 31386 31397 31384 31394 31419 31417 31438 31453 31418 31402 31372 31260 31160 31086 31041 31035 30988 30989 30981 30987 31024 31039 31107 31178 31265 31280 31224 31145 31132 31106 31137 31184 31184 31190 31239 31213 31260 31268 31309 31275 31153 31091 31014 31020 31050 31041 31069 31105 31098 31153 31155 31193 31227 31270 31239 31115 31048 30989 30935 30938 30933 30967 31008 31046 31049 31046 31088 31078 31089 31051 31027 30973 30939 30917 30898 31072 31552 32191 32700 33217 33497 33589 33637 33666 33551 33416 33372 33377 33389 33409 33419 33467 33472 33520 33518 33568 33618 33616 33596 33486 33415 33400 33393 33394 33411 33381 33366 33351 33378 33418 33413 33461 33457 33377 33272 33181 33109 33062 33008 32957 32925 32931 32914 32930 32886 32899 32900 32914 32801 32723 32563 32550 32476 32492 32490 32466 32464 32386 32408 32385 32402 32426 32455 32309 32283 32198 32178 32153 32163 32162 32147 32137 32134 32141 32172 32187 32218 32215 32059 31974 31856 31819 31862 31903 31858 31854 31827 31891 31959 31998 31972 32083 32089 32038 31941 31932 31903 31926 31943 31963 32035 32010 32009 32073 32144 32186 32295 32369 32319 32256 32201 32191 32193 32233 32281 32298 32286 32283 32266 32144 32006 31980 32084 32155 32316 32518 32769 32921 33082 33273 33399 33384 33319 33294 33257 33239 33253 33192 33117 33042 32975 32960 32927 32907 32882 32833 32797 32795 32851 33029 33425 34226 34640 34765 34833 34936 35028 35126 35160 35226 35271 35290 35232 35200 35158 35162 35138 35067 34911 34801 34737 34691 34665 34645 34642 34612 34572 34577 34550 34536 34551 34525 34442 34334 34200 34135 34081 34066 34044 34027 33931 33909 33859 33780 33703 33697 33585 33382 33209 33152 33095 32939 32734 32606 32534 32524 32558 32533 32517 32511 32527 32371 32287 32237 32191 32178 32172 32162 32246 32287 32379 32456 32641 32824 32961 32981 32947 32946 32992 32939 32891 32819 32768 32773 32920 33088 33241 33365 33438 33438 33416 33373 33373 33409 33463 33533 33604 33693 33793 33884 34005 34223 34525 34774 35013 35140 35268 35427 35503 35595 35656 35680 35667 35626 35569 35526 35499 35462 35382 35243 35153 35151 35124 35143 35145 35117 35131 35132 35159 35201 35208 35231 35257 35218 35148 35073 35075 35205 35531 35769 35991 36132 36217 36212 36199 36219 36200 36191 36229 36270 36322 36331 36272 36156 36157 36215 36274 36317 36444 36762 37073 37183 37121 36866 36682 36514 36323 36122 35940 35783 35652 35604 35588 35584 35685 35795 35943 36023 36070 36092 36106 36145 36114 36066 36056 36087 36121 36120 36126 36138 36144 36169 36193 36211 36254 36248 36250 36270 36203 36124 36073 36013 35924 35806 35716 35649 35636 35596 35575 35550 35516 35541 35538 35543 35468 35369 35200 34991 34868 34733 34658 34564 34477 34423 34339 34279 34215 34173 34153 34102 34059 33955 33763 33552 33412 33323 33289 33194 33144 33074 33063 33034 33091 33141 33204 33281 33367 33424 33271 33111 33013 33032 33087 33136 33123 33235 33410 33686 34217 34382 34462 34553 34637 34575 34356 34167 34101 34118 34176 34216 34213 34219 34191 34169 34153 34116 34078 34046 34036 33998 33875 33721 33607 33521 33505 33467 33436 33373 33295 33252 33221 33232 33406 33745 34358 34741 35057 35268 35282 35066 34813 34642 34486 34427 34365 34313 34250 34183 34174 34121 34095 34032 33983 33793 33552 33246 32993 32826 32699 32618 32512 32424 32377 32402 32621 33051 33386 33646 33834 34032 34261 34346 34190 33944 33868 33871 33938 33985 34030 34014 34012 33919 33802 33747 33689 33670 33667 33619 33424 33190 33126 33113 33134 33127 33147 33117 33114 33082 33077 33073 33087 33125 33192 33218 33273 33253 33095 32971 32832 32570 32347 32160 31959 31817 31713 31656 31586 31525 31488 31459 31443 31378 31186 30959 30756 30623 30575 30489 30390 30283 30210 30148 30139 30138 30160 30202 30213 30253 30133 29897 29746 29628 29611 29629 29662 29747 29748 29774 29830 29890 29927 29988 30055 30121 30224 30171 30103 29956 29913 29849 29822 29837 29767 29719 29696 29686 29645 29621 29657 29768 29835 29901 29997 30021 29911 29835 29771 29784 29818 29808 29855 29880 29930 29962 30032 30101 30125 30186 30253 30211 30140 30057 30047 30037 30048 30046 30028 30029 30035 30084 30168 30128 30256 30291 30334 30277 30167 30060 30041 29990 29954 29971 29944 29927 29919 29920 29912 29913 29882 30035 30165 30178 30112 30006 29923 29889 29911 29995 29947 30027 30048 30134 30214 30315 30371 30483 30533 30573 30594 30518 30495 30421 30446 30439 30507 30528 30579 30600 30599 30595 30587 30587 30614 30629 30657 30643 30584 30513 30526 30547 30609 30615 30599 30635 30625 30642 30659 30679 30756 30791 30885 30954 30923 30845 30776 30779 30781 30854 30777 30757 30790 30805 30910 30929 31024 31080 31152 31224 31205 31174 31154 31088 31120 31116 31136 31135 31168 31183 31205 31176 31164 31186 31208 31229 31178 31119 31023 30984 30896 30859 30835 30816 30752 30771 30799 30805 30781 30764 30763 30781 30820 30809 30759 30700 30663 30663 30692 30710 30737 30721 30754 30781 30809 30818 30864 30914 30962 31016 31004 30922 30835 30783 30730 30698 30720 30717 30674 30726 30693 30740 30782 30824 30865 30953 31008 30965 30871 30789 30728 30696 30736 30759 30763 30772 30762 30752 30752 30746 30782 30803 30859 30896 30882 30822 30751 30707 30740 30779 30822 30874 30934 30962 31022 31097 31174 31226 31332 31446 31510 31559 31592 31587 31520 31487 31531 31557 31571 31575 31635 31630 31644 31686 31777 31811 31907 31926 32041 32024 32098 32131 32149 32146 32108 32183 32194 32213 32191 32220 32258 32273 32298 32309 32364 32423 32458 32531 32557 32483 32386 32346 32307 32260 32239 32193 32171 32157 32136 32101 32062 32066 32131 32239 32455 33054 34087 34626 34897 35031 35064 35084 35106 35063 35022 35140 35279 35359 35415 35415 35391 35377 35333 35263 35119 34986 34885 34835 34787 34761 34751 34710 34713 34734 34751 34779 34792 34828 34824 34837 34867 34845 34766 34711 34662 34638 34604 34595 34570 34499 34478 34467 34444 34447 34487 34531 34623 34663 34647 34562 34460 34363 34275 34199 34168 34151 34102 34068 34048 34060 34036 34052 34094 34123 34149 34147 34074 33973 33848 33768 33728 33654 33621 33556 33518 33453 33464 33430 33398 33358 33328 33352 33293 33182 32972 32827 32721 32691 32676 32676 32635 32679 32664 32653 32601 32552 32524 32509 32485 32524 32404 32290 32262 32238 32214 32199 32152 32179 32211 32273 32328 32395 32422 32479 32551 32530 32462 32352 32281 32228 32257 32275 32257 32266 32259 32221 32235 32264 32247 32313 32314 32318 32333 32310 32344 32382 32383 32471 32500 32546 32566 32535 32402 32352 32306 32254 32223 32157 32149 32106 32077 32108 32089 32049 32133 32196 32232 32278 32292 32320 32357 32361 32438 32477 32431 32350 32220 32161 32101 32020 31942 31913 31794 31764 31773 31654 31586 31651 31964 32058 32173 32241 32329 32396 32543 32682 32852 33002 33158 33398 33678 33975 34287 34674 34864 34919 34889 34890 34942 35089 35243 35377 35646 35855 36122 36473 36625 36713 36732 36666 36486 36270 36119 36051 35990 35896 35935 35930 35952 35990 36026 36032 36003 35978 35941 35901 35862 35828 35810 35682 35522 35355 35209 35134 35068 35000 34872 34895 34828 34816 34774 34794 34750 34710 34696 34671 34661 34625 34591 34418 34230 34040 33874 33760 33648 33529 33418 33312 33249 33185 33119 33109 33097 33074 33070 33034 33013 32995 32860 32693 32535 32452 32401 32335 32332 32283 32269 32237 32222 32183 32173 32161 32178 32181 32200 32253 32243 32123 31950 31753 31617 31528 31394 31282 31206 31185 31128 31137 31104 31119 31119 31138 31110 31098 31003 30802 30559 30450 30377 30345 30299 30227 30134 30061 30019 29988 29962 29948 29997 30036 30056 30044 30016 29862 29686 29589 29508 29521 29553 29505 29450 29524 29569 29593 29601 29613 29538 29559 29639 29726 29802 29799 29740 29709 29694 29772 29830 29870 29904 29984 30077 30114 30187 30255 30320 30411 30480 30520 30519 30444 30378 30316 30280 30289 30317 30305 30362 30383 30383 30411 30487 30469 30613 30575 30641 30682 30668 30677 30579 30539 30554 30582 30655 30650 30723 30771 30792 30942 30928 30979 31040 31059 31144 31118 31223 31221 31199 31175 31118 31127 31120 31143 31190 31160 31184 31274 31336 31422 31583 31773 31887 32093 32270 32426 32521 32602 32614 32678 32836 33647 34094 34523 34793 35037 35098 35037 35027 34986 34884 34858 34780 34759 34755 34747 34699 34609 34486 34357 34250 34206 34145 34033 33959 33882 33763 33748 33701 33663 33644 33593 33589 33588 33588 33413 33231 33091 33021 32914 32852 32777 32737 32653 32587 32594 32583 32571 32568 32557 32577 32607 32593 32481 32287 32089 31974 31873 31798 31764 31670 31651 31654 31609 31590 31592 31661 31666 31620 31631 31677 31668 31621 31569 31501 31456 31436 31443 31480 31449 31433 31435 31410 31418 31412 31494 31540 31597 31642 31675 31706 31669 31585 31495 31476 31461 31490 31474 31410 31372 31322 31338 31377 31376 31473 31592 31737 31828 31883 31845 31827 31796 31812 31830 31844 31905 31863 31901 31930 31962 32035 32119 32179 32225 32302 32301 32303 32245 32201 32182 32163 32204 32217 32237 32313 32313 32370 32417 32461 32498 32563 32594 32582 32498 32435 32413 32407 32440 32427 32409 32399 32370 32384 32349 32401 32372 32399 32383 32344 32313 32188 32072 31970 31896 31929 31785 31815 31819 31808 31822 31853 31877 31917 31929 31944 31985 31977 31981 31936 31935 31931 31904 31907 31910 31914 31925 31968 31985 32006 32050 32050 32109 32121 32130 32030 31914 31862 31820 31772 31803 31746 31828 31763 31743 31786 31848 31891 31850 31770 31687 31619 31504 31332 31120 31031 30981 31029 31047 31067 31019 31047 31032 31022 31077 31083 31126 31154 31162 31183 31078 30879 30786 30632 30594 30550 30490 30470 30427 30424 30416 30428 30410 30413 30446 30485 30540 30610 30591 30550 30415 30348 30288 30256 30290 30260 30259 30270 30283 30366 30401 30454 30525 30541 30605 30683 30733 30784 30794 30725 30718 30694 30676 30718 30730 30766 30798 30833 30853 30887 30948 31024 31080 31123 31224 31215 31232 31201 31143 31105 31110 31125 31116 31144 31163 31187 31216 31248 31302 31290 31312 31377 31421 31454 31496 31543 31588 31623 31560 31525 31516 31542 31573 31573 31636 31664 31721 31833 31939 32088 32223 32319 32428 32540 32640 32731 32820 32910 32979 33069 33126 33155 33200 33175 33203 33226 33246 33274 33373 33452 33567 33722 33919 34278 34606 34915 35122 35261 35434 35594 35802 36051 36333 36597 36813 37005 37120 37166 37226 37258 37304 37352 37396 37444 37484 37509 37536 37552 37578 37589 37622 37650 37712 37739 37765 37782 37806 37826 37868 37902 37934 37975 37973 37933 37920 37949 37998 38055 38076 38089 38140 38183 38248 38320 38384 38467 38540 38610 38617 38646 38699 38742 38758 38805 38844 38851 38837 38808 38700 38503 38328 38232 38184 38130 38102 38078 38054 38064 37997 37871 37701 37517 37378 37289 37228 37164 37069 36999 36955 36842 36687 36529 36364 36199 36013 35811 35533 35174 34833 34567 34352 34152 33997 33837 33667 33475 33328 33195 33104 33009 32893 32820 32768 32616 32313 32079 31804 31623 31502 31373 31260 31106 31031 30967 30958 31007 30899 30977 30908 30886 30871 30747 30584 30409 30353 30360 30335 30283 30383 30314 30458 30474 30401 30544 30607 30683 30773 30781 30747 30671 30533 30465 30417 30381 30384 30408 30440 30500 30562 30632 30725 30799 30868 30943 30994 30988 30955 30954 31003 31079 31196 31326 31430 31585 31835 32657 33131 33339 33498 33579 33682 33757 33821 33857 33928 34041 34153 34258 34344 34419 34468 34595 34698 34793 34879 34908 34984 35021 35072 35128 35217 35319 35485 35750 36031 36268 36480 36725 36986 37243 37425 37537 37591 37551 37535 37529 37526 37545 37517 37478 37427 37381 37362 37336 37330 37315 37319 37317 37308 37311 37316 37318 37322 37349 37342 37347 37346 37298 37212 37166 37147 37123 37116 37114 37073 37054 37061 37088 37088 37129 37156 37170 37250 37338 37423 37466 37482 37524 37644 37891 38112 38457 38289 38293 38393 38448 38542 38630 38704 38733 38784 38836 38871 38936 39052 39052 38888 38660 38483 38319 38172 38037 37923 37853 37892 37900 38030 38253 38451 38624 38757 38785 38721 38702 38731 38722 38748 38763 38786 38788 38833 38858 38870 38880 38895 38884 38896 38870 38855 38850 38839 38818 38789 38761 38741 38746 38733 38736 38725 38743 38736 38750 38746 38715 38694 38605 38470 38340 38303 38336 38413 38489 38593 38666 38722 38787 38833 38880 38920 38968 38989 38999 39018 39006 38977 38898 38723 38500 38257 38112 37980 37900 37886 37848 37840 37823 37830 37861 37825 37768 37761 37802 37872 37969 38004 38081 38139 38208 38288 38365 38436 38475 38548 38649 38726 38773 38874 38970 38890 38614 38147 37770 37434 37186 36980 36824 36682 36552 36449 36341 36140 35841 35533 35255 35031 34832 34650 34485 34305 34151 34039 33925 33840 33740 33644 33548 33450 33266 33019 32778 32552 32353 32211 32079 31994 31887 31789 31753 31745 31785 31847 31920 32080 32305 32487 32747 33099 33447 33789 34087 34303 34508 34718 34923 35128 35322 35474 35650 35803 35976 36140 36256 36429 36556 36681 36805 36896 36980 37068 37137 37239 37316 37382 37415 37439 37460 37484 37512 37536 37575 37598 37625 37649 37702 37742 37757 37803 37855 37897 37933 37953 38000 38009 38032 38067 38107 38133 38159 38177 38208 38244 38259 38277 38284 38293 38328 38331 38379 38410 38454 38519 38551 38627 38684 38711 38739 38762 38745 38744 38758 38759 38800 38811 38807 38833 38857 38886 38887 38923 38937 38941 38973 38978 39005 39015 39032 39035 39039 39058 39077 39082 39092 39104 39105 39069 39037 39001 39008 39032 39036 39055 39068 39078 39113 39110 39129 39152 39155 39165 39158 39105 39036 38977 38922 38888 38880 38859 38856 38865 38885 38900 38893 38920 38936 38937 38852 38729 38647 38590 38589 38590 38589 38564 38559 38571 38566 38568 38576 38607 38655 38694 38698 38728 38738 38744 38731 38731 38707 38686 38651 38659 38706 38744 38815 38894 38962 38997 39042 39107 39231 39363 39484 39573 39677 39806 39912 40074 40122 40079 39996 39963 39888 39760 39663 39466 39332 39246 39180 39167 39133 39131 39138 39073 39004 38944 38874 38700 38473 38288 38201 38178 38131 38087 38107 38132 38113 38110 38178 38336 38440 38521 38553 38593 38654 38721 38764 38846 38932 38931 38897 38800 38657 38370 38147 38002 37956 37922 37887 37738 37571 37337 37395 37675 37930 38123 38188 38095 38061 38031 38214 38481 38676 38749 38778 38661 38486 38316 38201 38198 38198 38175 38206 38224 38267 38313 38355 38382 38425 38443 38394 38269 38165 38103 38049 38006 37977 37955 37962 37987 37985 37974 37937 37865 37779 37738 37608 37383 37088 36787 36493 36287 36169 36212 36579 36925 37232 37461 37674 37744 37737 37693 37711 37751 37877 37962 37946 37835 37750 37717 37689 37671 37580 37522 37514 37709 37833 37916 37936 37944 37951 37991 38010 38029 38067 38136 38273 38393 38508 38601 38657 38686 38735 38718 38726 38758 38781 38891 38975 39011 38971 38844 38674 38480 38369 38377 38463 38525 38564 38581 38560 38497 38427 38334 38240 38404 38641 38753 38803 38774 38670 38531 38379 38326 38280 38231 38190 38186 38206 38196 38180 38124 38071 38005 37922 37797 37607 37410 37231 37041 36808 36636 36492 36368 36297 36270 36263 36237 36186 36180 36177 36214 36216 36089 35878 35679 35521 35457 35439 35445 35483 35482 35528 35590 35663 35733 35780 35828 35886 35916 35815 35654 35466 35284 35229 35195 35181 35155 35117 35085 35061 35040 35003 35007 34963 34961 34955 34875 34622 34372 34231 34202 34307 34317 34230 34056 33922 33874 33872 33838 33910 34031 34315 34238 34211 34035 33930 33939 33979 34045 34126 34145 34195 34210 34255 34298 34342 34401 34446 34518 34534 34409 34241 34042 34033 34085 34111 34166 34272 34311 34449 34508 34638 34701 34764 34828 34830 34769 34549 34430 34323 34253 34215 34163 34142 34133 34109 34063 34062 34053 34072 34090 34061 33986 33861 33782 33763 33768 33761 33800 33873 33952 34023 34066 34118 34151 34180 34177 34066 33885 33737 33626 33504 33432 33317 33205 33106 33042 32993 32961 32969 33005 33025 33062 32906 32647 32405 32280 32303 32357 32396 32410 32371 32359 32332 32345 32342 32327 32325 32315 32188 31977 31767 31606 31423 31369 31240 31150 31122 31148 31182 31206 31251 31249 31267 31236 31109 30842 30542 30331 30196 30145 30144 30106 30120 30158 30198 30237 30258 30312 30402 30508 30518 30388 30230 30140 30096 30119 30138 30124 30179 30213 30221 30294 30384 30496 30585 30656 30718 30740 30572 30499 30487 30492 30579 30647 30809 30917 31031 31133 31269 31322 31432 31376 31414 31263 31094 30981 30852 30780 30736 30711 30784 30585 30716 30743 30796 31018 31186 31333 31516 31391 31384 31393 31502 31579 31596 31669 31657 31722 31741 31814 31840 31925 31919 31939 31918 31794 31786 31715 31712 31733 31703 31699 31720 31732 31734 31793 31834 31908 31957 31956 31844 31755 31681 31648 31663 31702 31755 31712 31733 31763 31794 31859 31931 32002 31994 31966 31930 31929 31951 32023 32136 32206 32261 32284 32378 32434 32412 32421 32408 32391 32261 32092 31976 31793 31664 31627 31615 31655 31706 31760 31803 31770 31830 31878 31903 31892 31923 31990 31946 31944 31919 31887 31804 31749 31714 31658 31629 31565 31556 31508 31378 31168 30920 30772 30725 30644 30648 30634 30681 30759 30872 31082 31185 31366 31429 31445 31316 31116 30953 30788 30730 30661 30639 30622 30547 30536 30561 30580 30616 30654 30631 30496 30302 30287 30275 30264 30316 30349 30465 30509 30589 30615 30620 30654 30661 30567 30426 30275 30167 30132 30085 30125 30131 30134 30163 30203 30177 30347 30552 30629 30644 30504 30523 30472 30496 30521 30546 30539 30518 30545 30512 30534 30587 30587 30613 30615 30575 30496 30422 30387 30470 30438 30506 30588 30635 30698 30729 30795 30907 30940 30982 31000 30960 30936 30946 30991 31025 31093 31112 31188 31207 31226 31282 31284 31308 31405 31383 31284 31165 31093 31026 30963 31024 31046 31072 31052 31099 31135 31138 31161 31207 31198 31196 31204 31182 31268 31309 31353 31422 31478 31506 31609 31628 31662 31733 31764 31833 31873 31939 31950 31915 31952 31945 31966 31981 32037 32018 32062 32081 32097 32200 32198 32152 32126 32117 32071 32036 32062 32151 32142 32174 32304 32352 32410 32493 32584 32570 32493 32411 32327 32293 32244 32201 32189 32134 32141 32118 32115 32154 32122 32128 32111 32111 32023 31933 31993 32018 32082 32110 32254 32314 32310 32315 32306 32275 32267 32232 32090 31912 31840 31770 31734 31749 31721 31759 31812 31908 32018 32108 32234 32353 32387 32456 32497 32659 32706 32678 32664 32633 32559 32454 32463 32436 32421 32452 32464 32378 32223 32051 31915 31816 31750 31736 31715 31799 31942 32093 32256 32375 32539 32544 32483 32395 32326 32247 32295 32228 32261 32237 32331 32487 32559 32563 32654 32677 32567 32452 32326 32205 32291 32361 32451 32423 32445 32445 32433 32389 32352 32333 32208 32026 31828 31656 31486 31386 31336 31310 31222 31128 31138 31127 31080 31150 31196 31148 31149 31124 31172 31147 31128 31133 31111 31079 31045 31060 31076 31104 31175 31110 31020 30906 30794 30736 30718 30751 30788 30788 30843 30892 30959 31078 31231 31264 31290 31193 31152 31098 31071 31092 31152 31132 31142 31184 31229 31286 31359 31493 31419 31303 31228 31105 31018 31011 31052 31082 31162 31223 31283 31362 31411 31428 31388 31336 31227 31147 31118 31089 31084 31090 31065 31178 31193 31211 31230 31348 31443 31558 31570 31610 31652 31732 31823 31880 31907 31942 32014 32048 32085 32139 32182 32203 32164 32171 32130 32130 32102 32148 32133 32172 32181 32229 32258 32338 32388 32450 32466 32447 32359 32341 32288 32266 32269 32232 32247 32208 32145 32227 32258 32301 32303 32238 32120 31997 31900 31855 31808 31863 31935 32005 32019 32069 32080 32068 32062 31952 31817 31629 31510 31390 31348 31312 31300 31214 31210 31225 31217 31247 31297 31252 31298 31244 31239 31269 31330 31450 31557 31611 31622 31596 31597 31564 31576 31570 31474 31273 31044 30923 30841 30818 30841 30839 30849 30902 30990 31143 31290 31436 31568 31601 31571 31574 31576 31527 31564 31577 31623 31596 31576 31614 31622 31677 31684 31606 31544 31482 31457 31489 31557 31722 31889 32020 32089 32185 32292 32347 32390 32296 32167 32073 31914 31835 31747 31696 31660 31606 31589 31579 31620 31628 31593 31530 31387 31317 31302 31344 31417 31528 31695 31803 31901 31969 31987 31966 31932 31876 31758 31675 31636 31601 31616 31698 31687 31791 31820 31850 31813 31793 31746 31775 31686 31625 31603 31583 31606 31582 31567 31575 31544 31532 31514 31512 31498 31436 31242 31060 30849 30767 30736 30722 30703 30670 30759 30785 30757 30849 31014 31160 31201 31248 31310 31305 31298 31341 31293 31281 31223 31209 31226 31211 31242 31305 31306 31219 31145 31137 31099 31124 31142 31165 31148 31163 31221 31286 31344 31319 31248 31185 31023 30876 30790 30737 30719 30711 30726 30703 30720 30719 30785 30806 30704 30609 30504 30459 30441 30474 30631 30756 30975 31196 31356 31460 31655 31586 31636 31588 31518 31604 31535 31513 31528 31561 31532 31533 31538 31595 31623 31697 31700 32014 32368 32462 32631 32701 32749 32806 32821 32828 32834 32887 32982 32980 32957 32910 32918 32940 32934 33015 33031 33074 33053 33161 33211 33309 33477 33510 33562 33587 33652 33722 33803 33811 33808 33816 33828 33806 33808 33811 33799 33699 33636 33536 33448 33446 33397 33468 33490 33586 33700 33936 34233 34466 34638 34517 34360 34303 34343 34435 34572 34709 34829 34847 34848 34872 34957 35060 35099 35092 34987 34852 34826 34823 34987 35006 35053 35116 35165 35072 35039 35031 34995 34991 34771 34849 35056 35392 35743 35886 35791 35540 35266 34979 34730 34603 34628 34442 34155 33838 33633 33411 33123 32848 32543 32257 31960 31743 31621 31508 31226 30769 30324 30053 29807 29621 29455 29338 29291 29382 29558 29828 30079 30111 30165 29956 29985 29923 29729 29728 29696 29605 29564 29441 29413 29373 29424 29341 29226 29094 28785 28724 28710 28622 28619 28813 28869 28994 29125 29307 29482 29669 29747 29781 29821 29821 29850 29927 30036 30209 30360 30495 30658 30822 31014 31077 31274 31305 31500 31548 31606 31782 31841 31872 31897 31984 32003 32107 32223 32251 32325 32330 32437 32534 32606 32720 32849 33042 33167 33216 33282 33434 33388 33434 33372 33361 33316 33275 33306 33333 33351 33400 33419 33316 33356 33348 33323 33266 33241 33113 33119 33163 33177 33136 33121 33121 33149 33161 33160 33127 33085 33099 33123 33313 33531 33651 33718 33756 33812 33870 33906 33858 33793 33732 33664 33625 33671 33587 33631 33658 33689 33683 33729 33763 33836 33851 33858 33875 33884 33894 33836 33780 33699 33595 33515 33370 33315 33294 33191 33008 32787 32618 32521 32465 32475 32531 32576 32671 32730 32872 32878 32888 32731 32475 32155 31894 31693 31550 31427 31334 31244 31192 31152 31098 31063 30926 30722 30562 30477 30461 30415 30340 30299 30365 30471 30635 30658 30658 30551 30434 30218 30044 30049 29919 29892 29837 29872 29946 30045 30167 30306 30361 30286 30214 30163 30091 30116 30173 30182 30136 30177 30136 30051 29997 29988 29919 29831 29770 29639 29655 29714 29801 29934 30070 30271 30511 30779 30704 30775 30802 30806 30717 30826 30795 30783 30752 30691 30641 30652 30570 30526 30465 30345 30180 30025 29874 29754 29676 29510 29478 29395 29431 29420 29499 29530 29475 29389 29305 29261 29332 29408 29427 29470 29547 29561 29619 29640 29703 29691 29638 29551 29452 29422 29446 29564 29724 29877 30036 30174 30370 30597 30806 30985 31100 31169 31213 31248 31261 31252 31243 31240 31220 31208 31193 31127 30974 30817 30623 30443 30318 30262 30286 30282 30339 30369 30447 30522 30597 30589 30554 30554 30519 30554 30575 30636 30672 30697 30753 30832 30871 30959 30904 30940 30925 30952 31024 31057 31141 31128 31160 31156 31184 31210 31197 31215 31030 31013 30963 30935 30867 30885 30877 30893 30937 30972 31016 31105 31020 30984 30780 30766 30877 31035 31230 31342 31443 31561 31593 31622 31583 31565 31520 31389 31327 31245 31180 31138 31103 31073 31045 31077 31093 31130 31052 30907 30806 30712 30582 30483 30463 30434 30394 30416 30384 30346 30322 30337 30220 30057 29968 29889 29804 29733 29721 29777 29855 29892 29854 29858 29860 29855 29807 29745 29714 29698 29709 29715 29720 29708 29738 29798 29867 29963 29953 29923 29867 29932 29942 30041 30071 30103 30167 30074 30041 30043 30086 30029 29911 29810 29602 29444 29284 29118 29112 29199 29236 29260 29315 29422 29380 29318 29272 29321 29332 29301 29379 29283 29197 29330 29483 29577 29570 29494 29348 29271 29327 29432 29414 29340 29244 29167 29144 29137 29133 29142 29165 29187 29152 29077 28976 28935 28899 28929 28941 28968 29025 29066 29095 29112 29081 29054 29047 29078 29102 29116 29157 29237 29312 29363 29391 29426 29403 29326 29258 29167 29114 29067 29084 29110 29084 29135 29163 29196 29258 29241 29230 29205 29181 29187 29228 29284 29331 29389 29511 29517 29660 29731 29802 29665 29547 29481 29488 29534 29586 29622 29616 29611 29579 29624 29624 29572 29468 29386 29373 29298 29321 29343 29429 29397 29453 29591 29728 29783 29632 29582 29523 29487 29453 29437 29377 29299 29248 29258 29315 29281 29271 29363 29269 29204 29175 29158 29166 29107 29299 29354 29388 29371 29289 29283 29248 29201 29145 29083 29019 29025 29047 29106 29160 29248 29309 29368 29337 29237 29106 29013 28970 29024 29158 29189 29273 29284 29245 29268 29342 29327 29261 29247 29181 29171 29134 29165 29182 29215 29250 29259 29301 29347 29302 29218 29152 29125 29115 29179 29316 29311 29392 29309 29303 29382 29395 29350 29255 29132 29064 29014 29035 29060 29028 29050 29135 29177 29262 29317 29281 29167 29078 28958 28868 29018 29171 29350 29351 29367 29416 29494 29496 29428 29280 29134 29029 29017 29076 29111 29140 29169 29206 29249 29277 29246 29210 29188 29164 29246 29382 29443 29551 29402 29428 29456 29421 29417 29451 29373 29298 29219 29221 29269 29296 29389 29408 29477 29511 29517 29508 29449 29365 29310 29344 29413 29498 29574 29595 29503 29551 29553 29568 29567 29489 29410 29333 29278 29272 29342 29372 29435 29463 29527 29558 29590 29511 29394 29323 29393 29478 29582 29674 29684 29672 29690 29771 29872 29857 29736 29533 29587 29805 30158 30393 30421 30398 30256 30235 30207 30214 30192 30224 30236 30220 30204 30171 30234 30331 30437 30439 30605 30739 30810 30766 30707 30575 30470 30422 30487 30455 30390 30279 30257 30307 30385 30397 30385 30340 30328 30382 30410 30521 30686 30790 30934 31045 31221 31402 31433 31349 31383 31467 31604 31731 31714 31772 31756 31855 31913 31997 32061 32085 32078 31970 31817 31704 31634 31634 31686 31769 31859 31988 32052 32097 32055 31962 31884 31786 31713 31632 31599 31576 31547 31534 31520 31474 31401 31226 31072 30949 30848 30786 30776 30722 30741 30796 30759 30944 31016 30971 30892 30747 30665 30596 30582 30544 30550 30529 30565 30607 30588 30579 30357 30098 29896 29718 29717 29657 29696 29717 29812 29887 30043 30172 30178 30171 30078 29997 29989 30055 30044 30071 30118 30152 30207 30283 30204 30119 29922 29770 29679 29599 29509 29575 29583 29576 29704 29668 29700 29713 29676 29658 29611 29598 29601 29581 29511 29512 29476 29395 29388 29315 29214 29030 28871 28818 28809 28779 28722 28777 28823 28890 29006 29119 29231 29191 29277 29336 29439 29522 29646 29755 29832 29855 29843 29873 29895 29773 29618 29426 29308 29269 29203 29144 29134 29139 29192 29174 29210 29205 29137 29292 29417 29581 29796 29965 30135 30254 30458 30539 30386 30465 30362 30241 30054 29929 30125 29845 29908 29892 29963 29782 29870 29977 29881 29919 29996 30173 30299 30437 30638 30819 30987 31052 31165 31272 31216 31146 31040 31005 30913 30844 30802 30805 30793 30811 30790 30838 30872 30855 30676 30622 30397 30382 30440 30442 30609 30664 30776 30745 30741 30703 30519 30446 30417 30327 30345 30352 30267 30252 30244 30159 30193 30140 29847 29659 29418 29455 29484 29731 29849 30177 30344 30557 30683 30710 30551 30466 30282 30124 30081 30051 30136 30144 30188 30288 30342 30335 30249 30187 30073 30040 30169 30182 30171 30133 30188 30307 30400 30471 30474 30296 30196 30089 30080 30061 29995 29841 29896 29861 29784 29761 29565 29396 29270 29193 29126 29125 29147 29042 29196 29322 29256 29383 29501 29426 29415 29491 29519 29536 29530 29460 29435 29413 29354 29441 29389 29268 29133 29084 29094 29151 29149 29180 29238 29294 29328 29383 29307 29262 29273 29316 29438 29624 29743 29827 29842 29892 29968 30041 30001 29881 29804 29716 29687 29611 29636 29635 29609 29635 29604 29665 29725 29672 29584 29485 29384 29381 29437 29565 29634 29723 29854 29948 30017 29983 29848 29764 29716 29691 29677 29596 29340 29386 31155 32102 33197 34092 34669 35188 35542 35703 35825 35801 35785 35881 35992 36135 36282 36445 36557 36604 36533 36375 36377 36407 36400 36426 36461 36545 36576 36611 36483 36350 36278 36258 36332 36438 36550 36638 36709 36785 36847 36904 36898 36728 36662 36653 36685 36805 37005 37201 37274 37345 37324 37288 37278 37244 37047 36925 36873 36887 36894 36930 36935 36956 36988 36992 37018 36902 36747 36630 36571 36535 36519 36513 36506 36522 36536 36531 36546 36463 36292 36147 36024 35922 35830 35759 35675 35546 35489 35457 35427 35362 35171 34859 34590 34410 34276 34191 34098 34014 33918 33859 33745 33694 33452 33187 32859 32669 32522 32439 32416 32403 32372 32350 32365 32375 32335 32199 32002 31896 31820 31793 31795 31860 31922 32034 32101 32170 32208 32120 32003 31930 31897 31882 31884 31851 31819 31775 31743 31700 31696 31620 31414 31283 31204 31232 31258 31334 31368 31439 31458 31444 31469 31398 31372 31411 31462 31510 31550 31604 31588 31641 31716 31860 32118 32354 32498 32495 32446 32434 32442 32462 32455 32433 32436 32505 32658 32757 32859 32815 32758 32696 32644 32603 32599 32626 32670 32685 32707 32733 32765 32688 32587 32465 32361 32262 32199 32172 32187 32184 32206 32182 32212 32350 32608 32945 33334 33359 33676 33662 33385 33147 32851 32655 32877 33146 33178 33082 33211 33335 33393 33485 33596 33821 34258 34656 34999 35287 35458 35518 35558 35612 35668 35709 35747 35782 35854 35922 35961 36004 36020 35975 35863 35729 35680 35636 35627 35610 35627 35639 35667 35680 35680 35547 35356 35219 35384 35767 36382 36577 36786 37089 37237 37159 36885 36642 36199 35911 35697 35585 35604 35679 35710 35757 35834 35921 36026 36128 36150 35962 35753 35683 35710 35796 35839 35920 36002 36109 36188 36225 36148 35899 35712 35603 35549 35532 35562 35581 35621 35599 35595 35612 35613 35532 35431 35372 35350 35415 35459 35493 35482 35463 35448 35437 35358 35113 34783 34439 34129 33944 33855 33820 33847 33892 33913 33953 34017 34046 34064 34087 34187 34365 34561 34874 35502 36093 36124 36088 36100 36147 36085 35855 35660 35534 35542 35539 35515 35463 35460 35435 35388 35324 35068 34738 34400 34119 33937 33751 33619 33490 33356 33197 33013 32838 32627 32329 31969 31726 31631 31586 31621 31679 31700 31760 31831 31870 31880 31689 31367 31397 31447 31414 31316 31236 31234 31222 31197 31099 31092 31013 30848 30544 30320 30189 30122 30130 30176 30186 30239 30363 30496 30636 30744 30772 30935 31178 31449 31656 31826 31963 32071 32202 32356 32497 32614 32673 32613 32601 32640 32709 32819 32944 33120 33302 33460 33592 33709 33842 33922 33820 33746 33733 33738 33788 33837 33831 33822 33876 33945 34022 34091 34136 34114 34118 34112 34150 34187 34260 34321 34393 34452 34549 34638 34764 34898 34981 35018 35078 35154 35261 35349 35388 35427 35481 35627 35798 35909 35983 35995 35933 35880 35909 36001 36123 36186 36219 36188 36124 36065 36079 36103 36043 36025 35978 35952 35934 35937 35967 35973 35997 36036 36055 36113 36121 36048 35902 35736 35545 35324 35204 35179 35071 35034 34992 34931 34815 34743 34632 34397 34235 34112 34011 33963 33922 33902 33900 33909 33930 33922 33918 33772 33574 33362 33184 33078 32996 32980 32943 32889 32826 32822 32771 32741 32515 32253 32043 31924 31823 31790 31801 31764 31764 31809 31786 31792 31725 31450 31179 30912 30780 30728 30648 30677 30767 30859 30863 30971 31058 31099 30938 30769 30666 30598 30532 30498 30457 30377 30263 30149 30042 29898 29783 29547 29320 29104 28979 28878 28788 28827 28900 28919 29048 29141 29216 29232 29338 29470 29612 29897 30057 30125 30338 30586 30797 30973 31119 31208 31393 31830 32279 32825 33380 33602 33772 33936 34051 34003 33976 34048 33863 33767 33806 33870 33922 34049 34187 34306 34446 34666 34946 35098 35304 35449 35686 35834 35944 35951 35853 35778 35693 35714 35693 35746 35819 35857 35837 35908 36076 36414 36578 36694 36770 36871 37007 37152 37288 37401 37457 37506 37514 37530 37560 37586 37623 37708 37780 37732 37769 37749 37729 37610 37530 37449 37431 37399 37405 37416 37405 37346 37246 37097 36971 36722 36398 36091 35897 35847 35921 36016 36041 36047 36001 35912 35684 35478 35266 34963 34699 34519 34337 34230 34114 33981 33842 33735 33756 33619 33661 33769 33738 33693 33682 33709 33755 33821 33888 33930 33953 33966 34075 34089 34042 33905 33728 33551 33446 33315 33214 33180 33188 33161 33124 33115 33069 32897 32754 32734 32793 32854 33021 33178 33275 33365 33415 33417 33388 33256 33014 32749 32590 32453 32549 32612 32730 32905 32970 33010 33019 33017 33021 32966 32984 33000 33178 33394 33564 33665 33749 33773 33841 33813 33824 33757 33709 33657 33594 33761 33817 33782 33710 33652 33730 33806 33862 33681 33455 33256 33120 33046 32986 32957 32897 32932 32955 32951 32992 32855 32590 32352 32149 31973 31827 31738 31596 31478 31355 31265 31180 31070 30850 30547 30330 30160 30088 30065 30040 30037 30038 30032 30034 30045 29946 29738 29560 29466 29438 29407 29365 29324 29228 29184 29135 29129 29079 28955 28756 28657 28615 28682 28683 28776 28888 29008 29146 29251 29341 29338 29240 29133 29001 28899 28843 28742 28670 28629 28646 28593 28589 28539 28368 28155 28072 28019 28053 28093 28248 28281 28374 28488 28613 28754 28748 28745 28669 28666 28730 28796 28872 28986 29025 29007 28950 28929 28824 28633 28462 28382 28367 28317 28352 28395 28435 28521 28613 28731 28751 28786 28772 28788 28892 28922 28983 29051 29098 29098 29115 29154 29151 29087 28879 28758 28752 28719 28742 28740 28754 28775 28802 28853 28788 28679 28655 28640 28692 28743 28842 29200 29521 29821 30056 30257 30402 30472 30532 30581 30575 30580 30617 30533 30522 30494 30517 30578 30669 30757 30823 30849 30925 30995 31050 31194 31292 31353 31417 31479 31521 31546 31569 31526 31533 31526 31519 31535 31471 31369 31263 31075 30902 30788 30588 30442 30266 30121 30065 30131 30255 30338 30786 31374 31936 32600 33063 33385 33476 33759 34430 35064 35385 35487 35380 35326 35294 35255 35240 35144 34938 34744 34706 34670 34681 34682 34662 34725 34793 34886 34995 34853 34628 34457 34302 34179 34020 33921 33927 34023 34125 34213 34262 34167 33973 33722 33501 33333 33174 33049 32968 32902 32878 32864 32861 32798 32655 32457 32311 32239 32193 32180 32109 32043 31996 31923 31892 31810 31540 31262 31011 30837 30695 30599 30511 30433 30325 30270 30293 30265 30161 29950 29851 29825 29849 29916 30036 30113 30140 30244 30283 30261 30151 29939 29772 29675 29634 29728 29794 29884 29955 30014 30047 30065 29946 29768 29621 29533 29504 29535 29674 29787 30134 30625 31063 31381 31753 31763 31725 31769 31810 31658 31860 31612 31604 31582 31551 31437 31455 31211 31101 30945 30790 30689 30675 30579 30686 30844 31081 31372 31610 31937 32265 32476 32606 32645 32713 32761 32762 32791 32736 32789 32779 32791 32690 32613 32465 32428 32465 32526 32568 32704 32795 32913 32943 33033 33030 33074 33098 33108 33141 33149 33160 33191 33180 33172 33149 33019 32961 32981 32900 32960 32950 32843 32967 33007 33265 32980 33213 33255 33364 33465 33657 33717 33786 33919 33837 33813 33776 33740 33745 33581 33335 33118 32996 32876 32810 32710 32624 32552 32380 32282 32123 31863 31569 31317 31157 31060 30989 30984 30971 31017 31082 31178 31247 31213 31064 30931 30826 30821 30890 30915 30993 31001 31003 30995 30924 30654 30323 30105 29948 29921 29903 29915 29894 29911 29843 29874 29939 29868 29839 29664 29651 29834 30012 30238 30491 30785 31083 31453 31738 31867 31908 31915 32015 32059 32129 32220 32332 32468 32514 32613 32635 32721 32875 33293 34046 34924 35883 36543 36878 36622 36495 36431 36577 36704 36808 36837 36871 36908 36949 36941 37002 36908 36933 37032 37080 37093 36962 36859 36906 36943 36917 36944 36928 36930 36934 36950 36950 36923 36809 36730 36727 36726 36754 36779 36821 36835 36859 36912 36976 36966 36872 36785 36716 36678 36662 36625 36610 36606 36630 36667 36711 36658 36521 36363 36264 36203 36174 36142 36146 36193 36261 36332 36378 36357 36145 35954 35779 35711 35622 35609 35552 35531 35479 35418 35357 35313 35248 35102 34945 34925 34983 35053 35016 34939 34909 34929 34937 34929 34947 35010 35084 35236 35492 35832 36199 36406 36670 36921 37183 37337 37519 37603 37649 37633 37545 37394 37197 36978 36875 36821 36763 36710 36720 36714 36555 36406 36342 36311 36319 36358 36357 36326 36286 36296 36304 36373 36289 36213 36151 36117 36156 36131 36120 36108 36109 36160 36208 36237 36094 35851 35701 35646 35627 35664 35695 35646 35563 35475 35444 35560 35810 36060 36259 36461 36547 36564 36585 36589 36583 36598 36632 36647 36710 36634 36531 36482 36506 36580 36648 36713 36766 36816 36803 36789 36655 36348 36000 35751 35576 35483 35407 35311 35233 35155 35089 35073 35037 34862 34663 34452 34302 34216 34198 34170 34187 34186 34181 34151 33993 33738 33521 33344 33282 33252 33289 33383 33485 33580 33669 33739 33733 33717 33753 33828 33922 34006 34118 34227 34321 34421 34477 34564 34588 34445 34349 34334 34379 34466 34522 34530 34539 34560 34632 34785 34912 34979 35041 35150 35332 35442 35489 35515 35545 35604 35674 35771 35755 35633 35537 35488 35511 35576 35613 35650 35687 35735 35802 35875 35886 35754 35672 35637 35682 35621 35612 35632 35680 35740 35843 35979 36031 35939 35890 35878 35855 35833 35779 35750 35737 35771 35854 36026 36157 36254 36473 36578 36675 36803 36919 37054 37152 37215 37225 37269 37340 37402 37422 37472 37551 37626 37708 37808 37882 37990 38086 38198 38285 38371 38321 38303 38340 38397 38467 38549 38633 38718 38787 38833 38879 38931 38941 38977 39004 39039 39072 39085 39101 39086 39068 39057 39010 38941 38906 38638 38309 38189 38211 38300 38391 38436 38469 38483 38473 38359 38221 37761 37254 36855 36676 36516 36446 36379 36311 36236 36184 36216 36220 36120 35966 35808 35761 35774 35837 35867 35939 36004 36081 36191 36277 36301 36242 36162 36119 36101 36086 36112 36122 36119 36137 36167 36190 36197 35994 35755 35628 35582 35534 35434 35341 35284 35241 35212 35203 35357 35553 35685 35827 36031 36279 36620 36771 36758 36640 36570 36449 36381 36517 36790 36405 35961 35616 35403 35289 35225 35138 35046 34999 34929 34861 34660 34219 33762 33422 33181 33049 32912 32801 32675 32540 32442 32380 32311 32004 31565 31273 31155 31265 31660 31880 32066 32187 32306 32376 32510 32725 33192 34135 34929 35342 35390 35311 35190 35068 34923 34801 34709 34633 34377 33990 33623 33371 33221 33130 33069 33063 33016 32920 32824 32694 32419 31931 31433 31008 30720 30526 30410 30312 30221 30132 30043 29981 29896 29626 29335 29146 29050 29068 29315 29560 30345 30869 31250 31485 31933 32303 32672 32406 32212 32604 32840 32880 32905 33025 33019 33283 33159 32988 32853 34004 33058 33288 33411 33641 33802 34043 34224 34339 34413 34435 34406 34207 34062 33784 33743 33657 33798 33761 33947 34096 34380 34352 34472 34771 34671 34643 34560 35227 35480 35477 35519 35500 35482 35577 35572 35507 35191 34939 34742 34590 34499 34419 34301 34304 34295 34338 34364 34474 34384 34090 33782 33544 33394 33209 33032 32837 32694 32570 32517 32437 32319 32106 31881 31694 31503 31410 31325 31266 31228 31269 31271 31394 31474 31566 31488 31436 31420 31424 31615 31935 32182 32424 32683 32908 33041 33197 33249 33179 33115 33018 32852 32725 32688 32846 32913 32904 32886 32864 32824 32752 32604 32466 32350 32326 32322 32273 32428 32555 32665 32857 32970 32768 32536 32458 32403 32358 32357 32284 32173 32037 31934 31854 31716 31608 31403 31253 31027 30930 30855 30838 30745 30804 30892 30927 30951 31054 30985 30916 30866 30825 30867 30861 30868 30999 31140 31255 31411 31575 31750 31772 31833 31858 31888 32009 32105 32142 32236 32327 32421 32557 32606 32622 32565 32609 32650 32676 32752 32845 32883 32966 32976 33113 33206 33180 33134 33191 33207 33187 33254 33302 33351 33392 33383 33474 33489 33555 33515 33441 33398 33417 33556 34070 34692 35226 35618 36258 36673 36993 37022 36943 36904 36840 36676 36803 36904 36881 36887 36913 37037 37123 37112 37100 36988 36697 36468 36322 36169 35988 35996 36026 36076 36153 36147 36167 36102 35913 35813 35723 35675 35643 35593 35547 35447 35438 35422 35405 35293 35121 34956 34806 34736 34678 34683 34668 34644 34606 34551 34515 34506 34374 34216 34085 33954 33944 33813 33754 33710 33683 33690 33687 33635 33499 33334 33069 32842 32761 32711 32663 32639 32630 32619 32659 32720 32652 32431 32269 32130 32054 31971 31955 31956 31934 31963 31957 31974 31988 31938 31829 31823 31780 31824 31898 31965 32004 32055 32142 32229 32292 32388 32353 32299 32272 32318 32383 32434 32483 32556 32599 32679 32744 32814 32786 32730 32634 32629 32630 32660 32712 32747 32804 32828 32897 32928 32926 32857 32801 32755 32711 32687 32676 32672 32638 32663 32727 32784 32914 32934 32930 32918 32981 33080 33234 33368 33472 33528 33574 33706 33804 33809 33730 33690 33712 33722 33742 33760 33796 33764 33804 33831 33815 33827 33755 33669 33590 33554 33566 33563 33542 33605 33620 33598 33573 33589 33479 33358 33209 33077 33030 33028 33114 33213 33382 33565 33623 33623 33664 33465 33344 33176 33131 33056 33003 32970 32996 33045 33114 33180 33234 33161 32996 32787 32665 32484 32448 32477 32486 32429 32452 32439 32484 32528 32548 32557 32596 32647 32709 32725 32696 32652 32665 32707 32777 32831 32868 32711 32486 32306 32169 32114 32038 31975 31942 31929 31917 31959 31978 32009 31923 31732 31658 31605 31501 31519 31524 31523 31545 31579 31610 31650 31660 31560 31457 31335 31336 31424 31537 31631 31789 31972 32078 32205 32362 32497 32479 32492 32511 32502 32570 32612 32602 32620 32640 32669 32740 32765 32740 32677 32559 32512 32540 32502 32495 32530 32523 32560 32518 32479 32506 32459 32295 32062 31814 31488 31517 31572 31635 31864 32181 32198 32004 31969 32018 32172 32346 32382 32265 32333 32454 32560 32700 32860 33071 33313 33509 33665 33781 33866 33946 34040 34132 34263 34369 34434 34654 35050 35602 36110 36220 36202 36179 36156 36278 36177 36146 36236 36325 36446 36529 36642 36725 36864 36927 36912 36772 36775 36919 37012 37121 37162 37277 37365 37528 37449 37582 37819 37905 37953 37988 38033 38116 38131 38178 38191 38228 38273 38294 38275 38214 38119 38066 38041 38056 38065 38073 38090 38105 38149 38187 38189 38155 37967 37831 37723 37711 37722 37751 37788 37823 38035 38270 38452 38562 38626 38743 38807 38806 38525 38180 38095 38358 38095 38054 38067 38015 38051 37980 37922 37797 37684 37561 37597 37715 37747 37762 37806 37823 37889 37880 37713 37404 37187 36907 36953 36988 36964 36986 36995 37054 37054 37094 37121 36878 36697 36646 36555 36535 36473 36543 36560 36529 36462 36458 36478 36385 36106 35734 35461 35245 35106 35048 34992 34913 34816 34833 34835 34826 34850 34727 34582 34303 34238 34105 34025 34060 34073 34134 34143 34038 34177 34213 34263 34175 34215 34191 34292 34281 34242 34241 34302 34315 34351 34378 34456 34272 34141 33892 33705 33604 33494 33428 33354 33383 33400 33387 33443 33625 33438 33282 33255 33116 32999 33096 33160 33149 33117 33247 33288 33255 33353 33411 33256 33160 33109 33036 32992 33010 33005 32891 32877 32795 32835 32792 32743 32576 32354 32179 32058 31933 31917 31879 31834 31865 31875 31916 31914 31988 31754 31727 31572 31386 31382 31359 31439 31446 31443 31466 31571 31657 31606 31571 31436 31311 31250 31228 31161 31139 31092 31008 30977 30914 30915 31053 31099 30980 30898 30720 30416 30246 30193 30103 30134 30240 30445 30566 30703 30903 30902 31081 31155 31211 31161 31173 31194 31250 31241 31257 31336 31330 31415 31458 31479 31524 31642 31595 31529 31493 31481 31432 31461 31527 31506 31547 31526 31542 31599 31635 31659 31692 31671 31661 31665 31687 31706 31726 31783 31700 31728 31791 31758 31752 31822 31953 31846 31904 31898 31828 31868 31835 31897 31877 31910 31997 32030 32120 32195 32234 32302 32285 32315 32341 32448 32498 32721 32524 32767 32942 32989 33053 33111 33250 33293 33313 33310 33284 33286 33365 33411 33430 33407 33435 33460 33446 33518 33467 33488 33436 33346 33316 33205 33223 33111 33078 33039 32985 32938 32896 32874 32853 32704 32568 32378 32226 32126 32025 31977 31896 31856 31823 31789 31771 31807 31778 31643 31578 31501 31379 31324 31297 31246 31221 31298 31307 31309 31261 31238 31189 31019 30849 30837 30702 30800 30732 30762 30786 30805 30844 30817 30806 30769 30610 30462 30335 30279 30192 30231 30191 30224 30279 30354 30415 30461 30526 30501 30471 30350 30242 30239 30359 30091 30182 30170 30123 30155 30139 30241 30234 30217 30184 30135 30103 30059 30140 30150 30294 30148 30078 30292 30263 30310 30357 30527 30404 30329 30292 30239 30286 30281 30340 30363 30468 30381 30483 30510 30478 30507 30547 30477 30432 30318 30299 30382 30434 30449 30518 30583 30581 30681 30750 30792 30818 30859 30886 30873 30873 30916 30895 31014 30956 31045 31033 31083 31109 31175 31166 31120 31147 31119 31180 31147 31133 31134 31262 31284 31324 31349 31390 31454 31429 31421 31436 31403 31413 31425 31471 31524 31541 31592 31573 31638 31678 31803 31781 31764 31703 31632 31638 31611 31559 31568 31598 31610 31735 31555 31643 31647 31663 31576 31556 31279 31229 31162 31296 31185 31113 31190 31187 31222 31274 31254 31340 31281 31282 31216 31179 31163 31198 31212 31229 31318 31328 31419 31381 31452 31589 31568 31444 31480 31336 31324 31351 31309 31282 31251 31317 31354 31247 31378 31404 31403 31405 31349 31137 31213 31285 31250 31154 31227 31320 31317 31350 31389 31499 31582 31471 31368 31391 31388 31353 31393 31364 31322 31337 31328 31438 31305 31400 31518 31421 31359 31156 31123 31117 31064 31115 31111 31073 31149 31101 31200 31212 31293 31271 31247 31091 31089 31115 31148 31168 31268 31350 31359 31430 31368 31451 31481 31399 31357 31282 31281 31387 31416 31454 31526 31601 31707 31777 31834 31958 31906 31965 31837 31861 31855 31951 31939 32066 32048 32154 32241 32250 32273 32269 32312 32277 32228 32106 32082 32036 32045 32069 32033 32077 32126 32101 32170 32236 32223 32146 32029 31992 31934 31928 31887 31911 31879 31863 31929 31950 31863 31917 32016 31957 32114 32268 32427 32568 32595 32585 32492 32546 32591 32664 32670 32729 32731 32655 32492 32550 32479 32373 32235 32151 32144 32300 32439 32608 32942 33628 33764 34412 34569 34744 34519 34266 34052 33898 33777 33692 33694 33641 33616 33634 33635 33591 33478 33287 33167 33069 32939 32814 32745 32657 32597 32566 32510 32457 32411 32422 32124 32192 31948 31918 31902 31892 31901 31972 32110 32376 32647 32903 33182 33376 33539 33771 34056 34280 34405 34374 34238 34201 34222 34193 34233 34292 34297 34314 34257 34229 34186 34185 34200 34245 34220 34213 34203 34298 34347 34405 34481 34524 34473 34425 34401 34372 34396 34458 34438 34475 34488 34551 34602 34633 34652 34651 34669 34555 34496 34451 34359 34308 34238 34183 34180 34131 34082 34032 33992 33978 33912 33801 33687 33574 33482 33435 33381 33338 33315 33291 33238 33170 33135 33082 33046 32970 32848 32747 32633 32565 32531 32414 32223 32005 31846 31800 31692 31621 31576 31255 31064 30853 30673 30557 30429 30200 30133 30030 30015 30050 30001 29949 29950 29833 29713 29678 29607 29566 29641 29657 29837 29651 29691 29784 29786 29945 30051 29908 29922 29997 30040 30039 30168 30181 30278 30337 30422 30533 30634 30782 30750 30793 30689 30709 30627 30678 30685 30617 30697 30595 30675 30638 30706 30677 30955 30744 30804 31013 30794 30992 30987 31120 31092 31285 31199 31286 31398 31541 31618 31567 31650 31612 31725 31725 31785 31800 31821 31934 31894 31932 31903 31959 32006 32048 32035 32044 32097 32152 32164 32269 32241 32159 32250 32249 32407 32414 32446 32468 32479 32420 32493 32392 32312 32254 32236 32329 32143 32100 32157 32197 32171 32257 32130 32128 32153 32150 32201 32232 32307 32299 32244 32208 32300 32390 32457 32486 32493 32445 32259 32281 32149 32087 32127 32208 32226 32318 32332 32380 32391 32479 32514 32359 32242 32187 32132 32180 32266 32223 32310 32374 32364 32501 32474 32472 32589 32513 32445 32239 32194 32199 32232 32263 32357 32310 32398 32446 32443 32552 32539 32559 32482 32263 32056 31934 31879 31773 31809 31919 32229 32358 32568 32837 33280 33563 33780 33902 33961 34034 34119 34268 34421 34480 34457 34460 34509 34540 34538 34604 34624 34573 34469 34426 34390 34397 34443 34406 34435 34395 34254 34382 34332 34301 34349 34261 34067 33990 33970 33833 33892 33802 33865 33837 33756 33708 33758 33740 33736 33654 33450 33383 33235 33168 33154 33098 33047 33007 33019 32975 33034 33031 32992 33047 32856 32754 32639 32671 32694 32691 32682 32792 32806 32723 32702 32762 32945 32710 32849 32885 32860 32968 33065 33268 33503 33726 34124 34335 34426 34599 34831 34904 34934 34895 34774 34704 34674 34640 34758 34725 34730 34851 35008 35070 35084 35133 35165 35137 35014 34873 34804 34815 34861 34916 34956 34978 34990 34981 34984 34974 34997 34909 34815 34752 34700 34704 34735 34754 34797 34861 34912 34999 35083 35146 35213 35285 35327 35320 35325 35361 35435 35541 35645 35744 35987 36297 36721 37163 37463 37718 37810 37882 37762 37617 37539 37480 37403 37353 37309 37259 37236 37255 37287 37350 37384 37340 37298 37289 37261 37290 37362 37358 37227 37069 37004 37007 37133 37335 37467 37578 37566 37543 37617 38078 38796 39575 39800 40123 40871 40927 40843 40623 40252 39919 39569 39181 38785 38540 38378 38291 38253 38190 38170 38157 38182 38207 38302 38387 38403 38243 38078 37986 38016 38027 38048 38092 38082 38097 38176 38214 38237 38247 38273 38299 38308 38334 38234 38027 37894 37808 37742 37641 37569 37545 37524 37538 37541 37406 37204 36952 36725 36542 36444 36379 36316 36268 36185 36110 36039 35983 35921 35850 35707 35533 35357 35196 35052 34884 34723 34583 34432 34315 34205 34132 34061 33965 33786 33611 33407 33261 33128 33030 32916 32822 32814 32844 32927 33060 33209 33306 33328 33276 33242 33275 33368 33404 33449 33487 33530 33582 33636 33683 33717 33695 33560 33480 33455 33443 33469 33471 33440 33438 33463 33484 33501 33554 33621 33643 33553 33423 33337 33280 33244 33225 33156 33114 33288 33495 33610 33610 33560 33503 33436 33368 33278 33209 33132 33081 33021 32994 32965 32942 32933 32940 32956 32945 32794 32649 32519 32426 32380 32353 32317 32256 32235 32218 32244 32259 32267 32173 31982 31777 31627 31519 31456 31398 31352 31320 31287 31275 31264 31258 31245 31137 30892 30659 30481 30402 30407 30474 30544 30654 30709 30751 30860 31000 31166 31180 31192 31435 32053 32935 33969 34541 34964 34975 35004 34977 34971 34914 34874 34685 34562 34577 34270 33305 33436 33889 33900 34004 33977 34051 34188 34237 34324 34266 33978 33562 33223 32922 32774 32617 32392 32249 32079 31975 31970 32024 32136 32291 32370 32421 32480 32565 32663 32775 32928 33002 33023 33067 33113 33166 33213 33182 33105 32966 32905 32919 32952 32965 32869 32774 32770 32739 32647 32634 32561 32506 32309 32028 31785 31580 31441 31344 31310 31283 31260 31275 31268 31281 31290 31269 31322 31235 31057 30909 30772 30653 30566 30526 30532 30538 30626 30676 30815 30953 31145 31417 31711 31889 32120 32433 32631 32747 32675 32588 32552 32550 32543 32603 32640 32644 32768 32851 33169 33015 32962 32922 33009 33097 33333 33380 33330 33215 33130 32937 32567 32937 33159 33246 33531 33626 33894 34006 34361 34535 35002 35508 35858 36199 36375 36531 36724 36810 36782 36693 36599 36556 36511 36455 36359 36235 36149 36148 36121 36186 36222 36305 36365 36456 36564 36624 36707 36763 36881 37068 37130 37244 37321 37345 37325 37332 37264 37057 36775 36603 36545 36478 36463 36399 36421 36426 36466 36601 36790 36878 36970 37023 36992 36798 36599 36489 36466 36441 36399 36385 36315 36267 36202 36163 36161 36100 36007 35787 35554 35373 35238 35155 35064 34987 34880 34746 34639 34533 34426 34310 34217 34001 33760 33628 33520 33418 33355 33300 33237 33155 33169 33233 33251 33321 33426 33421 33320 33221 33120 32980 32844 32764 32750 32649 32498 32441 32354 32240 32097 31989 31771 31528 31214 30961 30756 30710 30770 30747 30681 30604 30537 30517 30549 30508 30448 30333 30237 30135 30097 30037 30064 30074 30115 30207 30332 30359 30416 30463 30520 30466 30400 30268 30140 30128 30080 30066 30071 30060 30051 30075 30040 30053 30145 30127 30058 29897 29901 29861 29844 29837 29887 29890 29879 29904 29927 29976 30006 30108 30098 30064 30089 30080 30076 30085 30151 30200 30230 30231 30279 30320 30418 30502 30508 30549 30621 30592 30581 30599 30677 30744 30659 30721 30788 30838 30853 30832 30855 30956 30898 30863 30815 30841 30733 30913 30923 30965 31012 30972 31038 31065 31076 31056 31052 31009 31021 31150 31180 31234 31246 31242 31325 31287 31254 31332 31298 31255 31205 31190 31124 31082 31088 31104 31097 31079 31066 31115 31069 31153 31091 31109 31066 31010 30968 30911 30897 30902 30858 30822 30875 30851 30842 30836 30822 30832 30736 30647 30600 30504 30419 30425 30402 30373 30397 30348 30398 30415 30400 30316 30226 30128 30150 30091 30031 30778 31930 33611 34942 36292 36974 37416 37782 37948 38123 38248 38188 37964 37646 37342 37134 37023 37026 36841 36816 36750 36627 36568 36391 36133 35966 35825 35706 35565 35481 35336 35185 35144 35070 34977 34933 34768 34538 34121 33912 33672 33510 33379 33338 33173 33076 32944 32865 32749 32684 32519 32277 31992 31763 31553 31442 31260 31220 31013 30959 30911 30877 30869 30819 30767 30571 30210 29796 29388 29281 29258 29285 29430 29575 29650 29650 29594 29637 29647 29636 29454 29439 29428 29363 29418 29393 29410 29442 29562 29676 29820 29974 30117 30169 30124 30079 30063 30053 29991 30046 30119 29898 30229 30040 30182 30195 30378 30231 30250 30343 30225 30241 30252 30288 30393 30403 30390 30568 30685 30792 30758 30965 30946 31011 31029 31026 31038 31132 31133 31153 31243 31290 31146 31361 31408 31433 31509 31500 31464 31406 31311 31325 31393 31397 31308 31337 31313 31380 31410 31433 31426 31396 31359 31203 31123 31192 31192 31185 31144 31095 31145 31159 31194 31200 31169 31110 31155 31005 30984 30975 30859 30900 30880 30918 30836 30916 30914 30913 30897 30891 30706 30712 30647 30552 30634 30540 30583 30551 30670 30686 30689 30738 30808 30756 30631 30588 30558 30533 30546 30518 30511 30568 30628 30601 30738 30726 30739 30735 30641 30589 30457 30556 30386 30422 30433 30535 30539 30619 30492 30604 30563 30594 30596 30385 30451 30334 30317 30348 30311 30374 30421 30416 30486 30500 30373 30401 30311 30293 30170 30279 30212 30308 30494 30413 30464 30530 30525 30580 30643 30730 30512 30562 30502 30397 30474 30425 30464 30343 30409 30513 30446 30607 30623 30631 30625 30492 30437 30450 30381 30393 30383 30361 30436 30506 30382 30474 30509 30639 30556 30522 30487 30371 30371 30488 30236 30415 30459 30542 30536 30568 30633 30822 30847 30902 30927 30783 30833 30899 30832 30973 30982 30958 31013 30978 31163 31134 31213 31275 31233 31050 31019 31033 31083 30966 30990 30967 30926 31047 31042 31063 31231 31248 31215 31233 31234 31050 31076 31051 30891 30990 31001 31004 31042 31118 31118 31146 31253 31137 31114 31007 31007 30906 30889 30974 30900 31102 30991 31036 31107 31213 31105 31236 31270 31437 31373 31489 31367 31491 31483 31483 31417 31392 31365 31423 31462 31487 31444 31517 31297 31246 31139 31027 30966 30932 30974 30920 30951 30934 30958 30944 30847 30818 30671 30559 30457 30316 30217 30327 30378 30243 30352 30384 30257 30337 30412 30443 30469 30560 30547 30398 30482 30622 30676 30810 30955 30842 31198 31021 31212 31212 31303 31396 31353 31312 31386 31285 31334 31280 31312 31389 31358 31373 31340 31489 31359 31524 31486 31511 31439 31065 31103 31154 31226 31121 31201 31217 31222 31303 31319 31393 31395 31452 31462 31436 31392 31363 31291 31305 31338 31209 31342 31343 31290 31183 31271 31133 31361 31338 31373 31378 31452 31368 31414 31419 31464 31454 31395 31357 31367 31293 31297 31361 31370 31316 31350 31355 31466 31525 31590 31660 31687 31801 31847 31714 31802 31896 31749 31912 31872 32052 31962 31996 32206 32488 32734 32915 33063 33169 33392 33253 33357 33259 33294 33253 33131 33038 32994 32963 32802 32856 32717 32664 32799 32621 32907 33391 33640 33848 33881 34061 34118 34193 34136 34092 34102 34012 34015 33921 33861 33843 33631 33729 33671 33575 33472 33313 33213 33206 33130 33018 33075 33008 32976 32904 32886 32950 32822 32791 32767 32607 32418 32343 32146 32015 32052 31998 31864 31888 31844 31660 31726 31747 31695 31682 31515 31404 31200 31149 31063 31032 30930 30870 30864 30791 30769 30697 30826 30831 30884 30801 30728 30617 30447 30407 30318 30327 30273 30411 30292 30315 30272 30318 30230 30213 30305 30366 30299 30225 30284 30108 30178 30188 30269 30223 30298 30359 30497 30730 30801 30971 31067 31370 31578 31946 32389 32726 33005 33123 33226 33295 33387 33537 33737 34070 34371 34651 34793 34921 34771 34679 34597 34586 34539 34581 34537 34491 34482 34561 34434 34407 34487 34344 34445 34325 34256 34166 34152 34077 34060 33986 33980 33838 33792 33840 33707 33765 33665 33715 33522 33546 33398 33349 33078 33161 33083 32963 33044 32996 32874 32746 32787 32799 32885 32827 32757 32555 32408 32298 32237 32200 32116 32085 32059 31938 31890 31884 31938 31849 31951 31790 31699 31714 31313 31552 31474 31408 31400 31333 31341 31346 31287 31330 31397 31392 31498 31308 31287 31145 31072 31122 30935 30917 30862 30846 31044 31383 31733 31760 32091 32100 32090 32149 32036 31958 31837 31821 31799 31901 31690 31733 31810 31775 31800 31757 31784 31577 31512 31450 31358 31286 31415 31358 31123 31286 31258 31328 31277 31329 31364 31396 31331 31276 31342 31272 31266 31205 31301 31295 31352 31370 31322 31384 31310 31400 31339 31262 31243 31199 31211 31125 31187 31179 31047 31039 31047 31170 31045 31137 31149 31010 31024 31086 30991 30944 30916 30972 30965 31007 31037 30956 31000 31037 31138 31120 31090 31239 31246 31257 31300 31181 31264 31268 31129 31130 31252 31167 31245 31038 31048 31097 31001 31079 30978 30972 31061 31071 31184 31139 31222 31087 31216 31271 31281 31098 31191 31249 31169 31185 31250 31434 31269 31230 31260 31502 31356 31298 31299 31229 31252 31165 31190 31172 31143 31070 30913 31010 30797 30751 30889 30692 30910 31155 31444 31642 31824 32159 32689 33235 33652 33960 33825 33915 33828 33864 33902 34107 34194 34271 34271 34298 34426 34439 34455 34507 34522 34535 34617 34627 34682 34780 34792 34843 34791 34651 34637 34531 34545 34487 34460 34555 34748 34746 34828 34920 34978 35154 35238 35239 35169 35095 35106 35092 35142 35196 35362 35498 35404 35431 35431 35546 35534 35487 35427 35425 35232 35048 34957 34809 34803 34653 34582 34523 34496 34453 34403 34325 34362 34291 34280 34133 33865 33771 33601 33546 33428 33330 33231 33255 33105 33054 33109 33010 33097 33054 33036 32933 32869 32581 32553 32534 32640 32515 32505 32589 32564 32704 32646 32651 32803 32821 32811 32761 32695 32617 32578 32537 32543 32565 32561 32531 32678 32652 32683 32888 32741 32830 32784 32661 32541 32449 32420 32212 32174 32260 32058 32100 31937 31974 32023 31943 32090 32244 32120 31874 32001 32108 32129 32050 32021 32002 31946 31964 32006 32102 32262 32127 32009 32076 32044 31878 31857 31805 31770 31758 31708 31770 31697 31725 31732 31754 31899 31860 31804 31842 31759 31634 31633 31539 31629 31671 31649 31642 31652 31647 31580 31483 31646 31513 31444 31295 31214 31115 31090 31021 30843 30867 30729 30757 30864 30770 30810 30910 30905 30926 30853 30733 30724 30759 30658 30712 30763 30765 30739 30793 30708 30632 30635 30593 30606 30506 30366 30403 30554 30590 30678 30718 30759 30861 30889 30887 30960 31098 31059 30908 30889 30723 30774 30782 30738 30766 30789 30855 30833 30974 30955 30963 30961 30856 30744 30688 30658 30519 30503 30509 30592 30770 30683 30749 30829 30937 31016 30968 31071 31023 30998 30789 30772 30774 30698 30744 30586 30712 30636 30635 30583 30672 30703 30722 30677 30609 30534 30575 30607 30650 30688 30638 30703 30633 30750 30758 30743 30811 30797 30630 30324 30153 30062 30091 30085 30049 29945 30024 30075 30165 30179 30348 30362 30390 30307 30295 30080 29992 29955 29834 29925 29865 30003 29971 30137 30124 30301 30373 30399 30523 30482 30382 30288 30130 30186 30081 30067 30185 30210 30322 30362 30284 30516 30535 30477 30633 30496 30575 30591 30382 30533 30541 30589 30810 30766 30728 30823 30875 30953 30997 31116 31435 31680 31990 32259 32577 32915 33206 33455 33718 33930 34149 34276 34365 34551 34679 34879 34867 34939 34902 34909 34984 34949 34933 35012 35015 35031 35004 35076 35111 35163 35230 35239 35329 35326 35383 35246 35216 35211 35295 35293 35366 35379 35390 35467 35485 35558 35644 35749 35833 35951 36085 36157 36067 36053 36006 36048 36027 35996 35923 35932 36015 36282 36574 36922 37200 37440 37611 37983 38382 38612 38503 38398 38224 37949 37783 37671 37620 37585 37532 37481 37444 37374 37245 37005 36785 36641 36528 36413 36336 36219 36070 35942 35835 35759 35721 35690 35671 35652 35491 35237 35066 34948 34881 34830 34796 34618 34718 34690 34590 34678 34629 34623 34648 34629 34539 34404 34314 34254 34173 34187 34184 34214 34188 34214 34240 34246 34288 34353 34373 34294 34107 33991 33872 33789 33753 33714 33620 33519 33456 33488 33543 33938 35063 35774 35984 35936 35378 35216 35083 35001 35110 35159 35122 35152 35282 35433 35514 35502 35563 35614 35642 35710 35783 35839 35797 35833 35871 35930 36056 36049 35985 35907 35872 35865 35835 35866 35733 35593 35531 35480 35365 35447 35509 35524 35528 35557 35557 35661 35732 35855 35908 35998 36176 36398 36400 36234 36055 35795 35576 35409 35292 35179 35062 34973 34925 34785 34438 34011 33642 33283 33010 32782 32560 32341 32080 31908 31806 31668 31561 31360 