22891 23563 23605 23573 23568 23549 23533 23516 23530 23524 23532 23531 23537 23544 23538 23565 23557 23563 23554 23583 23595 23552 23516 23499 23486 23469 23467 23474 23479 23482 23458 23483 23505 23518 23527 23535 23545 23556 23566 23539 23501 23477 23448 23436 23429 23436 23431 23452 23443 23456 23469 23486 23505 23507 23537 23561 23602 23597 23589 23555 23538 23538 23533 23529 23539 23525 23547 23550 23564 23566 23572 23574 23589 23606 23627 23644 23647 23614 23581 23555 23540 23539 23555 23542 23562 23558 23580 23581 23603 23639 23630 23664 23685 23697 23702 23708 23657 23629 23621 23608 23589 23598 23609 23613 23616 23618 23619 23623 23655 23649 23666 23692 23686 23714 23697 23664 23623 23604 23580 23584 23595 23600 23591 23617 23619 23640 23647 23666 23670 23681 23686 23706 23714 23700 23661 23626 23601 23576 23578 23579 23583 23575 23572 23593 23609 23598 23607 23630 23624 23641 23664 23677 23654 23630 23605 23597 23589 23600 23607 23612 23605 23610 23619 23614 23621 23620 23614 23611 23590 23535 23504 23413 23231 23082 22997 23030 23145 23151 23165 23162 23084 23079 23141 23175 23178 23190 23211 23216 23207 23274 23368 23429 23423 23360 23468 23487 23511 23532 23566 23600 23746 23799 23671 23695 23660 23631 23607 23589 23602 23532 23489 23474 23575 23614 23620 23741 23761 23575 23446 23465 23461 23410 23419 23406 23395 23429 23420 23397 23367 23436 23452 23450 23419 23403 23406 23420 23351 23292 23233 23211 23208 23171 23097 22996 22880 22775 22716 22666 22612 22617 22610 22622 22626 22631 22661 22653 22702 22702 22726 22737 22722 22706 22679 22659 22658 22651 22642 22667 22669 22674 22692 22710 22713 22731 22750 22760 22768 22750 22730 22718 22701 22702 22713 22721 22721 22742 22762 22760 22783 22779 22779 22791 22782 22766 22735 22698 22652 22631 22560 22501 22390 22278 22181 22076 21969 21900 21842 21800 21764 21706 21568 21357 21150 20971 20804 20631 20455 20349 20252 20190 20153 20104 20048 19994 19947 19897 19843 19696 19547 19444 19354 19272 19203 19151 19122 19062 18989 18957 18935 18899 18834 18770 18754 18691 18592 18534 18473 18463 18456 18444 18416 18413 18391 18369 18373 18386 18387 18398 18414 18375 18289 18180 18128 18093 18043 17989 17952 17960 17986 18009 18038 18086 18099 18136 18153 18114 18034 17980 17943 17920 17932 17957 17977 18005 18006 17989 17991 17977 17971 17927 17861 17797 17735 17710 17703 17713 17734 17736 17750 17781 17815 17821 17819 17829 17867 17898 17908 17852 17766 17661 17609 17587 17545 17482 17457 17467 17515 17576 17627 17689 17725 17765 17784 17775 17712 17604 17505 17449 17440 17474 17489 17523 17514 17520 17531 17559 17603 17594 17564 17548 17515 17464 17440 17427 17429 17453 17489 17520 17538 17572 17599 17615 17601 17613 17630 17664 17604 17503 17442 17410 17396 17384 17368 17314 17208 17142 17160 17210 17251 17295 17334 17379 17339 17220 17125 17125 17154 17198 17274 17316 17347 17361 17360 17417 17466 17500 17546 17573 17574 17400 17181 17082 17070 17097 17118 17152 17177 17185 17143 17160 17247 17322 17404 17459 17512 17459 17333 17197 17154 17152 17145 17157 17193 17226 17188 17127 17127 17182 17246 17318 17381 17393 17298 17200 17168 17211 17238 17293 17285 17317 17342 17377 17419 17463 17476 17491 17526 17523 17430 17273 17132 17096 17123 17163 17211 17274 17315 17347 17363 17363 17412 17473 17543 17596 17573 17475 17359 17328 17348 17395 17444 17467 17482 17476 17491 17457 17446 17448 17480 17507 17536 17463 17367 17284 17252 17264 17330 17384 17447 17486 17551 17586 17636 17674 17736 17786 17806 17829 17752 17603 17420 17308 17313 17354 17425 17481 17560 17630 17672 17700 17736 17792 17838 17849 17796 17717 17640 17628 17638 17658 17678 17686 17702 17690 17649 17600 17587 17604 17658 17708 17625 17499 17398 17347 17355 17437 17504 17594 17643 17656 17676 17668 17698 17721 17742 17763 17772 17660 17478 17321 17260 17257 17322 17381 17448 17470 17500 17510 17508 17542 17600 17646 17662 17607 17552 17525 17529 17558 17594 17626 17631 17625 17623 17561 17489 17455 17472 17483 17432 17332 17257 17217 17197 17208 17247 17285 17308 17320 17351 17424 17494 17578 17638 17678 17633 17500 17356 17246 17132 17087 17122 17187 17246 17324 17369 17428 17482 17514 17547 17592 17568 17454 17348 17322 17347 17380 17420 17483 17516 17543 17547 17547 17509 17475 17478 17498 17461 17372 17310 17277 17290 17321 17351 17405 17465 17508 17539 17595 17632 17706 17752 17798 17760 17642 17572 17507 17454 17377 17330 17354 17401 17465 17518 17573 17627 17674 17695 17729 17681 17591 17526 17488 17513 17555 17590 17639 17675 17723 17751 17769 17784 17782 17733 17728 17646 17543 17493 17512 17543 17580 17607 17620 17649 17695 17724 17752 17792 17869 17877 17880 17811 17709 17668 17659 17632 17604 17559 17553 17568 17623 17677 17768 17835 17898 17944 17921 17882 17810 17782 17746 17751 17822 17866 17896 17905 17899 17898 17891 17875 17894 17864 17736 17614 17574 17574 17587 17628 17684 17727 17780 17791 17848 17907 17945 17964 17993 18045 18021 17968 17952 17990 18065 18172 18297 18343 18324 18284 18282 18292 18321 18322 18332 18279 18141 18010 17927 17879 17896 17899 17901 17924 17957 17997 18014 18025 18046 18071 18072 17979 17840 17676 17571 17545 17559 17626 17720 17777 17843 17874 17889 17892 17929 17968 17956 17852 17756 17686 17707 17718 17740 17756 17761 17737 17725 17719 17680 17664 17701 17754 17760 17696 17642 17606 17595 17593 17639 17669 17692 17699 17732 17790 17848 17928 18110 18290 18405 18460 18507 18548 18549 18581 18669 18775 18832 18827 18804 18730 18686 18643 18622 18580 18461 18382 18342 18322 18313 18324 18323 18326 18311 18294 18269 18253 18208 18198 18197 18172 18092 18023 18005 17987 17974 17973 17993 18022 18039 18049 18073 18131 18204 18241 18284 18258 18189 18112 18041 17991 17933 17875 17879 17926 17952 17989 18025 18055 18061 18086 18113 18083 18012 17933 17917 17940 17972 18021 18039 18062 18082 18099 18091 18086 18079 18036 18038 17969 17905 17894 17925 17934 17939 17942 17949 17977 18000 17978 17975 18012 18041 18093 18097 18021 17944 17895 17850 17843 17821 17763 17740 17772 17822 17860 17929 17978 18030 18027 17959 17902 17881 17860 17830 17853 17893 17930 17958 17988 18018 18051 18067 18088 18097 17998 17829 17749 17753 17800 17843 17902 17951 17994 18013 18053 18089 18121 18156 18160 18100 18018 17977 17972 17994 18043 18076 18092 18088 18096 18080 18029 18009 18041 18047 18002 17970 17967 17966 17980 17989 18018 18045 18059 18059 18067 18130 18174 18230 18219 18142 18057 18007 17982 17941 17904 17904 17931 17981 18012 18074 18129 18157 18204 18163 18103 18056 18041 17983 18016 18051 18094 18120 18153 18165 18183 18200 18229 18231 18123 17981 17928 17924 17952 17971 18027 18060 18061 18084 18101 18145 18162 18181 18196 18143 18079 18030 18024 18041 18058 18059 18038 18023 18007 17978 17948 17980 18034 18099 18119 18106 18111 18139 18154 18193 18207 18291 18372 18441 18509 18525 18542 18521 18359 18200 18071 18060 18115 18269 18467 18621 18732 18830 18899 18982 19041 19029 18917 18815 18750 18740 18775 18818 18919 18980 19005 18993 18980 18946 18948 19094 19260 19412 19557 19685 19812 19944 20027 20115 20200 20279 20351 20426 20492 20567 20681 20823 20921 20989 21101 21307 21399 21431 21478 21500 21498 21450 21382 21269 21149 21029 20917 23411 23799 23878 23919 23944 23935 23979 23978 23967 23906 23796 23681 23425 23177 23045 22953 22908 22868 22788 22739 22699 22656 22648 22600 22579 22551 22426 22302 22177 22092 21995 21917 21847 21796 21727 21708 21665 21609 21555 21499 21491 21486 21486 21404 21209 21125 21068 21038 21037 21047 21026 21001 20966 20935 20883 20830 20786 20759 20729 20706 20651 20587 20572 20569 20574 20612 20641 20619 20584 20531 20526 20532 20539 20586 20628 20610 20573 20502 20446 20390 20372 20379 20373 20366 20421 20488 20536 20601 20638 20645 20638 20693 20684 20662 20624 20589 20567 20531 20485 20485 20498 20535 20561 20564 20579 20619 20662 20703 20719 20714 20732 20737 20739 20760 20769 20803 20774 20773 20757 20750 20730 20748 20750 20759 20780 20773 20747 20732 20734 20766 20790 20779 20763 20778 20766 20785 20776 20793 20815 20813 20821 20818 20809 20803 20783 20789 20766 20787 20781 20805 20797 20815 20830 20835 20868 20882 20907 20923 20920 20912 20914 20922 20921 20923 20938 20941 20949 20954 20949 20966 20976 20989 20989 20992 20985 20967 20991 20991 21003 21019 21032 21058 21063 21067 21075 21086 21099 21113 21127 21126 21123 21123 21102 21102 21108 21093 21093 21083 21072 21084 21101 21116 21133 21164 21181 21195 21228 21222 21204 21219 21210 21225 21238 21242 21248 21257 21259 21281 21279 21288 21272 21303 21294 21283 21278 21276 21284 21303 21307 21317 21339 21344 21362 21353 21375 21375 21393 21398 21392 21371 21378 21364 21371 21360 21375 21377 21376 21381 21374 21380 21382 21380 21394 21407 21423 21415 21420 21408 21403 21395 21408 21407 21415 21407 21417 21436 21440 21439 21448 21450 21431 21433 21401 21384 21387 21370 21385 21395 21416 21418 21430 21449 21455 21448 21463 21478 21466 21464 21444 21447 21440 21430 21449 21443 21443 21441 21445 21430 21423 21419 21427 21427 21420 21412 21406 21411 21395 21412 21391 21396 21418 21411 21425 21415 21430 21430 21438 21462 21454 21442 21410 21398 21397 21375 21381 21378 21391 21404 21423 21430 21441 21437 21461 21461 21461 21458 21463 21480 21476 21468 21492 21497 21503 21496 21493 21489 21479 21468 21481 21458 21497 21485 21490 21486 21512 21509 21512 21512 21526 21525 21523 21538 21549 21552 21577 21580 21568 21564 21560 21570 21564 21552 21543 21539 21525 21542 21559 21570 21576 21591 21608 21608 21622 21620 21603 21610 21619 21618 21619 21614 21636 21640 21630 21631 21631 21623 21635 21620 21625 21619 21632 21627 21630 21630 21656 21656 21658 21661 21658 21671 21672 21676 21682 21703 21709 21716 21729 21731 21705 21693 21694 21704 21702 21707 21707 21695 21709 21714 21706 21732 21719 21728 21732 21712 21700 21693 21687 21677 21659 21660 21681 21680 21707 21713 21708 21735 21754 21748 21735 21724 21694 21672 21653 21632 21636 21623 21620 21606 21597 21588 21594 21597 21607 21602 21610 21617 21587 21580 21551 21532 21517 21507 21486 21482 21456 21462 21461 21469 21466 21458 21475 21472 21450 21426 21415 21384 21373 21365 21347 21351 21344 21323 21315 21316 21322 21319 21315 21312 21302 21267 21244 21215 21204 21207 21191 21207 21210 21187 21190 21175 21192 21197 21194 21187 21203 21182 21170 21123 21116 21105 21097 21075 21071 21043 21039 21033 21053 21047 21064 21092 21104 21111 21088 21063 21042 21034 21012 21024 21030 21046 21040 21046 21037 21030 21017 21016 21017 21013 20997 20964 20960 20956 20948 20942 20965 20960 20958 20972 20954 20967 20978 20988 20989 21005 20991 20966 20939 20927 20919 20907 20906 20895 20877 20889 20881 20876 20894 20891 20918 20916 20929 20916 20883 20873 20871 20856 20850 20864 20870 20862 20870 20874 20866 20863 20877 20871 20865 20844 20828 20802 20800 20813 20808 20792 20819 20822 20828 20818 20830 20817 20839 20830 20851 20846 20831 20826 20798 20767 20761 20743 20736 20727 20708 20708 20714 20702 20703 20720 20727 20732 20759 20755 20727 20709 20679 20669 20666 20667 20662 20679 20669 20661 20647 20661 20660 20646 20636 20643 20605 20595 20568 20562 20568 20576 20573 20593 20599 20589 20583 20571 20605 20594 20605 20624 20613 20586 20573 20546 20529 20513 20507 20492 20480 20474 20474 20491 20515 20515 20532 20554 20548 20537 20518 20506 20508 20494 20491 20487 20494 20472 20457 20473 20478 20466 20479 20456 20421 20394 20377 20373 20387 20414 20449 20465 20473 20509 20515 20512 20518 20541 20553 20548 20526 20496 20476 20463 20454 20469 20478 20451 20444 20431 20428 20423 20431 20455 20461 20476 20468 20463 20452 20428 20423 20417 20420 20405 20407 20408 20404 20407 20403 20401 20418 20420 20412 20371 20343 20326 20315 20309 20312 20338 20346 20367 20387 20398 20413 20422 20429 20422 20421 20414 20372 20350 20350 20351 20377 20371 20400 20422 20425 20409 20419 20419 20414 20428 20428 20448 20430 20439 20424 20417 20441 20448 20468 20484 20464 20467 20451 20452 20456 20472 20500 20530 20545 20545 20518 20533 20496 20484 20481 20488 20486 20495 20518 20531 20555 20586 20620 20633 20671 20686 20704 20703 20681 20688 20672 20676 20688 20676 20678 20680 20679 20676 20661 20660 20673 20681 20679 20665 20651 20670 20670 20671 20680 20693 20712 20713 20728 20739 20742 20734 20744 20749 20746 20721 20702 20666 20661 20662 20653 20646 20633 20618 20619 20636 20654 20655 20672 20696 20715 20722 20693 20674 20674 20660 20653 20643 20641 20645 20630 20645 20629 20622 20613 20618 20608 20593 20551 20553 20529 20543 20550 20543 20547 20555 20565 20565 20558 20551 20557 20558 20561 20564 20558 20523 20515 20496 20484 20467 20454 20436 20439 20419 20422 20419 20442 20452 20469 20467 20472 20450 20427 20415 20406 20401 20384 20393 20388 20371 20372 20370 20383 20377 20368 20359 20347 20321 20282 20278 20268 20294 20280 20287 20295 20319 20332 20314 20310 20320 20311 20320 20310 20311 20294 20271 20265 20261 20241 20232 20217 20197 20188 20201 20186 20209 20227 20249 20261 20288 20311 20283 20265 20253 20254 20252 20224 20224 20231 20229 20235 20265 20287 20276 20271 20266 20270 20265 20243 20251 20244 20248 20248 20269 20284 20311 20306 20309 20297 20309 20313 20311 20314 20324 20315 20309 20290 20272 20253 20238 20228 20211 20209 20216 20213 20228 20247 20244 20267 20273 20317 20325 20315 20305 20262 20260 20265 20259 20253 20268 20265 20276 20298 20299 20291 20287 20301 20292 20298 20294 20293 20304 20281 20274 20265 20286 20296 20282 20267 20268 20265 20257 20254 20255 20264 20255 20287 20291 20264 20227 20211 20184 20169 20167 20182 20203 20204 20210 20220 20235 20260 20257 20245 20250 20264 20274 20266 20239 20224 20224 20200 20209 20194 20199 20182 20162 20163 20156 20144 20152 20164 20164 20178 20191 20204 20206 20163 20145 20151 20153 20136 20134 20135 20130 20126 20152 20161 20174 20166 20175 20182 20183 20189 20158 20177 20170 20157 20163 20194 20205 20208 20217 20211 20216 20224 20219 20221 20240 20248 20245 20271 20251 20231 20217 20213 20198 20187 20188 20213 20237 20247 20236 20275 20304 20323 20338 20340 20342 20309 20286 20281 20261 20269 20271 20270 20265 20263 20265 20249 20244 20230 20232 20236 20224 20242 20231 20217 20191 20177 20177 20175 20173 20165 20156 20154 20179 20175 20182 20202 20216 20228 20223 20209 20198 20182 20165 20146 20156 20137 20140 20133 20136 20165 20165 20165 20175 20187 20172 20193 20202 20203 20181 20168 20167 20147 20123 20143 20130 20124 20155 20245 20308 20348 20348 20380 20432 20420 20396 20379 20397 20429 20462 20508 20593 20648 20689 20720 20720 20679 20662 20674 20688 20666 20676 20674 20668 20675 20683 20676 20712 20728 20731 20743 20756 20764 20761 20787 20785 20786 20799 20801 20793 20779 20749 20745 20741 20710 20684 20697 20732 20743 20759 20789 20803 20827 20826 20840 20826 20781 20759 20750 20718 20716 20704 20702 20709 20681 20683 20674 20658 20652 20647 20641 20630 20620 20594 20574 20557 20561 20587 20584 20578 20563 20554 20550 20541 20553 20569 20574 20570 20566 20567 20521 20478 20446 20435 20424 20424 20423 20412 20435 20441 20434 20443 20461 20509 20519 20491 20446 20425 20415 20400 20398 20377 20378 20380 20388 20386 20373 20367 20368 20378 20380 20389 20367 20359 20346 20334 20323 20332 20345 20348 20353 20345 20337 20341 20365 20364 20384 20392 20381 20353 20334 20302 20268 20242 20252 20248 20254 20266 20280 20293 20297 20304 20340 20355 20341 20303 20271 20258 20245 20239 20223 20242 20248 20244 20251 20237 20248 20244 20237 20233 20238 20227 20197 20188 20181 20170 20174 20199 20222 20193 20200 20212 20207 20208 20191 20216 20204 20208 20164 20151 20118 20096 20098 20096 20078 20071 20074 20082 20084 20090 20072 20090 20105 20109 20084 20045 20025 20018 20003 20014 20038 20065 20088 20111 20142 20148 20158 20157 20146 20125 20109 20070 20057 20043 20052 20064 20089 20108 20137 20183 20217 20205 20210 20217 20218 20230 20204 20149 20102 20090 20088 20094 20110 20102 20098 20093 20084 20091 20097 20105 20133 20137 20161 20159 20158 20163 20144 20141 20150 20146 20149 20142 20157 20143 20134 20117 20141 20149 20153 20128 20099 20058 20033 20018 19998 20007 20018 20065 20122 20147 20155 20146 20159 20156 20149 20157 20125 20092 20058 20031 20026 20022 20004 20009 20012 20001 20012 20001 20010 20027 20011 20039 20078 20104 20078 20071 20027 20014 20005 20008 20015 19995 19982 19982 19993 20006 20011 20008 20014 20008 19978 19946 19932 19927 19931 19921 19917 19957 19982 19962 19977 19961 19971 19968 19986 19979 19969 19940 19901 19908 19918 19920 19925 19950 19967 19983 19993 20003 20040 20053 20071 20078 20111 20128 20119 20096 20069 20067 20040 20022 20016 20016 19985 19978 19983 19982 20006 20007 20004 20029 20013 19975 19935 19938 19942 19947 19935 19953 19972 20001 20017 20004 19995 19991 19992 20010 20004 19966 19891 19876 19846 19837 19847 19844 19823 19843 19871 19860 19870 19881 19904 19904 19909 19893 19881 19866 19830 19807 19807 19816 19819 19837 19838 19857 19842 19845 19853 19866 19884 19911 19947 19935 19917 19916 19923 19937 19970 19983 20010 20029 20042 20034 20035 20040 20043 20045 20070 20062 20051 20016 20003 19966 19956 19934 19936 19930 19952 19949 19944 19979 19982 19969 19982 20011 20001 19998 19957 19972 19998 20060 20162 20285 20411 20517 20631 20723 20820 20932 21007 21071 21149 21186 21190 21164 21149 21144 21124 21149 21157 21142 21125 20996 20963 20934 20950 20923 20916 20883 20838 20718 20614 20551 20477 20461 20483 20497 20508 20478 20478 20464 20432 20441 20418 20426 20406 20333 20230 20172 20133 20113 20105 20112 20119 20151 20279 20598 20902 21043 21124 21212 21250 21312 21300 21224 21146 21095 21081 21075 21101 21082 21049 21002 21018 21025 21041 21038 21038 21013 20992 20933 20885 20825 20811 20775 20771 20782 20795 20784 20777 20767 20779 20761 20787 20813 20795 20728 20677 20641 20614 20612 20608 20615 20629 20616 20633 20643 20665 20681 20715 20761 20782 20816 20809 20770 20737 20707 20724 20727 20743 20744 20736 20728 20758 20770 20775 20779 20764 20774 20770 20742 20706 20678 20664 20660 20694 20726 20750 20781 20776 20798 20811 20837 20839 20856 20847 20857 20825 20774 20749 20728 20714 20712 20708 20686 20689 20671 20674 20671 20681 20684 20688 20682 20676 20645 20600 20571 20539 20531 20522 20524 20508 20479 20466 20441 20432 20423 20400 20398 20406 20369 20323 20312 20282 20276 20275 20303 20324 20322 20329 20317 20306 20324 20332 20339 20343 20340 20343 20287 20251 20218 20193 20169 20172 20163 20148 20148 20177 20179 20185 20235 20249 20275 20269 20279 20243 20228 20206 20183 20191 20196 20185 20189 20193 20185 20198 20200 20209 20224 20227 20227 20190 20153 20125 20100 20089 20093 20109 20122 20118 20144 20177 20208 20222 20226 20234 20251 20257 20219 20202 20186 20165 20174 20173 20171 20174 20170 20171 20178 20183 20195 20208 20209 20239 20263 20242 20212 20206 20210 20217 20221 20222 20237 20226 20230 20221 20234 20253 20271 20273 20283 20287 20268 20238 20199 20191 20169 20170 20172 20168 20170 20167 20170 20162 20167 20189 20202 20195 20195 20150 20123 20087 20050 20044 20031 20033 20033 20005 19986 19995 19984 19989 20009 20004 19989 19924 19854 19822 19792 19764 19798 19834 19858 19877 19885 19883 19882 19875 19867 19863 19865 19832 19747 19697 19672 19663 19677 19683 19679 19672 19678 19688 19679 19697 19723 19728 19748 19791 19792 19759 19718 19703 19690 19665 19661 19669 19656 19659 19677 19678 19676 19710 19720 19742 19764 19743 19700 19658 19665 19678 19696 19723 19755 19805 19845 19875 19899 19917 19933 19948 19956 19976 19970 19969 19951 19947 19946 19950 19958 19963 19983 19973 19995 20008 20009 20024 20043 20059 20077 20116 20136 20149 20145 20162 20177 20165 20174 20179 20191 20197 20217 20234 20258 20251 20284 20280 20303 20303 20291 20277 20263 20256 20276 20266 20286 20301 20335 20351 20359 20354 20368 20384 20391 20419 20426 20433 20412 20403 20403 20411 20402 20407 20401 20408 20397 20399 20395 20406 20413 20422 20452 20455 20459 20437 20413 20375 20342 20321 20311 20296 20299 20290 20280 20271 20271 20266 20254 20262 20262 20268 20247 20191 20162 20153 20132 20137 20153 20155 20165 20144 20144 20143 20122 20112 20114 20104 20113 20115 20082 20009 19962 19920 19915 19888 19891 19883 19878 19887 19914 19933 19957 19967 20001 20019 20039 20038 20000 19942 19891 19880 19870 19864 19872 19886 19868 19867 19878 19888 19911 19927 19972 20002 20015 20015 19990 19996 19980 19958 19939 19937 19945 19941 19916 19926 19923 19929 19934 19946 19959 19984 19978 19961 19933 19912 19906 19904 19899 19920 19928 19926 19947 19963 19962 19974 19982 19996 20000 20000 19991 19969 19931 19914 19906 19892 19910 19904 19910 19896 19912 19911 19901 19921 19909 19908 19917 19942 19937 19910 19900 19869 19881 19880 19874 19867 19873 19859 19859 19861 19868 19869 19873 19892 19910 19899 19868 19834 19817 19796 19792 19794 19810 19825 19839 19892 19945 19973 19987 20000 19980 19981 19964 19905 19870 19830 19807 19786 19787 19809 19808 19804 19802 19807 19807 19798 19812 19839 19846 19850 19864 19896 19911 19929 19896 19904 19871 19858 19867 19866 19853 19855 19848 19866 19864 19883 19881 19838 19775 19734 19710 19693 19700 19718 19728 19732 19777 19820 19812 19843 19854 19854 19850 19838 19803 19767 19730 19705 19683 19679 19665 19668 19682 19710 19700 19713 19734 19768 19807 19840 19864 19856 19842 19841 19828 19817 19800 19801 19774 19778 19790 19793 19787 19788 19801 19809 19831 19831 19800 19758 19743 19724 19729 19758 19783 19794 19839 19879 19919 19932 19932 19932 19923 19920 19914 19877 19822 19776 19774 19769 19772 19773 19792 19794 19807 19835 19884 19937 19999 20028 20009 20011 19997 19961 19965 19938 19938 19932 19913 19922 19899 19912 19903 19896 19903 19905 19939 19949 19944 19910 19874 19846 19800 19813 19825 19863 19856 19898 19946 20019 20039 20049 20079 20077 20068 20045 19980 19960 19915 19883 19865 19895 19910 19934 19947 19962 19959 19976 19993 20005 20049 20054 20026 20001 19984 19983 19980 19982 19974 19950 19948 19930 19938 19966 19961 19949 19953 19970 19976 19936 19920 19878 19849 19859 19856 19856 19889 19928 19949 19947 19981 20001 20011 20022 20050 20058 20022 20048 20073 20136 20163 20199 20262 20333 20348 20285 20423 20818 21108 21224 21340 21514 21652 21755 21812 21786 21816 21861 21897 21956 21975 22011 22031 22052 22086 22120 22148 22131 22085 22022 21942 21911 21871 21847 21807 21799 21774 21743 21726 21737 21746 21721 21712 21718 21699 21601 21523 21451 21397 21371 21363 21360 21339 21286 21223 21169 21145 21150 21135 21119 21101 21031 20945 20877 20806 20810 20791 20778 20743 20732 20693 20696 20676 20685 20676 20655 20644 20607 20552 20475 20417 20369 20361 20375 20367 20369 20361 20370 20386 20397 20418 20435 20474 20463 20394 20326 20283 20243 20223 20231 20235 20230 20220 20228 20259 20261 20267 20240 20249 20220 20175 20132 20101 20079 20077 20068 20077 20095 20132 20182 20195 20223 20254 20266 20282 20297 20293 20279 20256 20245 20250 20260 20257 20232 20235 20243 20244 20254 20263 20272 20290 20305 20291 20272 20263 20263 20252 20262 20258 20270 20262 20249 20272 20287 20294 20312 20365 20370 20349 20281 20238 20200 20180 20182 20161 20153 20138 20130 20134 20151 20177 20196 20226 20236 20253 20242 20203 20137 20115 20078 20074 20056 20067 20066 20044 20038 20034 20034 20023 20018 20027 20004 19948 19872 19837 19815 19810 19804 19821 19845 19861 19861 19866 19855 19851 19846 19862 19869 19867 19828 19767 19724 19706 19680 19684 19660 19654 19661 19640 19617 19630 19641 19667 19671 19700 19691 19663 19610 19560 19553 19548 19530 19525 19543 19551 19553 19562 19556 19565 19584 19595 19597 19584 19531 19491 19452 19447 19477 19479 19486 19515 19562 19598 19627 19650 19656 19672 19671 19679 19647 19638 19599 19581 19563 19576 19571 19565 19555 19545 19539 19528 19539 19540 19564 19580 19581 19565 19540 19513 19473 19461 19442 19440 19430 19443 19442 19464 19461 19468 19478 19484 19490 19477 19450 19415 19392 19378 19372 19383 19399 19425 19419 19424 19447 19456 19480 19475 19481 19493 19459 19409 19379 19357 19352 19340 19344 19336 19325 19320 19310 19295 19277 19282 19293 19307 19343 19327 19304 19262 19265 19255 19253 19252 19246 19249 19259 19273 19274 19300 19311 19317 19315 19261 19227 19196 19173 19161 19164 19161 19180 19195 19244 19283 19332 19397 19454 19488 19515 19484 19426 19388 19376 19373 19383 19394 19392 19405 19394 19398 19390 19391 19399 19404 19382 19338 19291 19279 19277 19269 19277 19309 19358 19369 19371 19361 19361 19363 19370 19380 19381 19353 19310 19282 19264 19270 19279 19278 19289 19302 19300 19291 19323 19369 19411 19459 19486 19464 19439 19406 19378 19369 19359 19342 19346 19354 19372 19369 19372 19376 19394 19401 19410 19356 19319 19275 19268 19257 19269 19284 19269 19274 19326 19381 19377 19408 19406 19419 19419 19395 19374 19336 19313 19307 19296 19300 19296 19310 19338 19339 19342 19345 19353 19371 19387 19392 19357 19342 19319 19310 19313 19324 19329 19335 19335 19332 19352 19350 19356 19365 19368 19334 19296 19260 19247 19238 19227 19245 19261 19273 19294 19321 19359 19380 19409 19443 19459 19450 19421 19380 19361 19347 19324 19338 19347 19344 19357 19357 19367 19396 19425 19435 19439 19441 19413 19395 19384 19387 19418 19443 19454 19472 19457 19469 19477 19469 19462 19475 19483 19493 19448 19404 19373 19380 19393 19418 19421 19418 19411 19402 19421 19443 19447 19483 19525 19544 19523 19485 19433 19403 19372 19360 19373 19377 19374 19371 19379 19390 19393 19409 19418 19414 19375 19335 19283 19291 19302 19285 19305 19343 19339 19344 19331 19337 19330 19337 19337 19342 19312 19257 19233 19203 19197 19193 19185 19189 19181 19175 19181 19166 19190 19207 19236 19234 19262 19235 19219 19200 19183 19166 19146 19151 19149 19138 19174 19163 19164 19154 19165 19192 19234 19232 19202 19178 19179 19181 19206 19230 19254 19256 19288 19313 19333 19328 19335 19336 19346 19332 19295 19262 19247 19229 19225 19220 19227 19246 19254 19276 19277 19290 19291 19326 19347 19377 19398 19413 19429 19445 19440 19463 19434 19421 19398 19406 19429 19418 19422 19437 19438 19454 19463 19427 19386 19348 19331 19310 19296 19324 19312 19334 19348 19398 19432 19446 19475 19470 19457 19431 19394 19347 19321 19300 19289 19282 19292 19291 19303 19296 19306 19331 19308 19313 19336 19378 19397 19352 19315 19324 19310 19300 19296 19293 19277 19268 19256 19261 19276 19283 19276 19284 19296 19308 19259 19221 19190 19183 19183 19199 19227 19272 19278 19282 19303 19347 19349 19359 19357 19368 19327 19278 19233 19198 19216 19208 19201 19198 19196 19209 19260 19267 19308 19318 19339 19352 19389 19401 19374 19338 19312 19321 19325 19312 19311 19331 19318 19312 19321 19335 19363 19371 19384 19396 19394 19340 19307 19291 19282 19270 19274 19264 19302 19332 19367 19396 19398 19420 19443 19463 19459 19439 19403 19364 19345 19302 19327 19328 19333 19323 19332 19350 19375 19404 19440 19455 19452 19481 19504 19503 19469 19462 19465 19478 19466 19476 19475 19486 19476 19468 19470 19503 19507 19505 19534 19522 19505 19478 19438 19438 19456 19468 19489 19488 19501 19499 19484 19496 19538 19588 19613 19654 19677 19671 19637 19596 19577 19570 19564 19570 19568 19594 19580 19585 19594 19646 19672 19704 19735 19763 19806 19807 19759 19717 19688 19673 19667 19663 19685 19713 19726 19762 19814 19839 19844 19840 19870 19910 19935 19944 19920 19890 19869 19867 19905 19966 20007 20040 20051 20033 20018 20003 19995 19996 19999 19973 19973 19933 19884 19823 19778 19758 19770 19784 19791 19782 19771 19756 19733 19724 19712 19731 19755 19772 19789 19791 19744 19676 19644 19643 19627 19620 19627 19626 19626 19610 19603 19604 19624 19669 19688 19730 19735 19711 19673 19654 19641 19656 19637 19630 19649 19665 19676 19667 19683 19689 19690 19678 19705 19725 19679 19637 19619 19639 19671 19688 19701 19695 19676 19664 19664 19698 19724 19732 19751 19765 19781 19783 19742 19685 19652 19634 19615 19617 19623 19622 19608 19622 19617 19621 19619 19633 19627 19625 19588 19557 19526 19500 19492 19502 19530 19554 19581 19579 19559 19548 19542 19540 19548 19570 19559 19560 19525 19469 19430 19421 19397 19394 19372 19378 19383 19414 19447 19463 19486 19500 19540 19556 19556 19497 19444 19386 19353 19327 19331 19323 19324 19328 19341 19361 19386 19393 19407 19405 19406 19429 19416 19384 19355 19352 19375 19387 19391 19416 19443 19452 19428 19405 19401 19422 19422 19411 19393 19331 19286 19264 19251 19260 19276 19296 19308 19309 19352 19400 19429 19472 19501 19531 19570 19593 19600 19528 19467 19426 19384 19377 19349 19357 19352 19360 19379 19407 19420 19437 19447 19481 19524 19597 19579 19566 19577 19625 19642 19661 19705 19697 19716 19675 19668 19670 19681 19640 19604 19600 19601 19604 19600 19630 19676 19723 19721 19678 19649 19618 19632 19659 19722 19757 19781 19808 19799 19790 19783 19725 19639 19538 19486 19471 19493 19499 19507 19516 19533 19516 19513 19527 19589 19625 19642 19689 19751 19765 19724 19706 19685 19668 19655 19654 19649 19645 19619 19584 19591 19583 19591 19588 19598 19598 19532 19467 19421 19422 19422 19433 19451 19470 19491 19494 19531 19558 19563 19582 19636 19634 19610 19566 19486 19428 19393 19362 19356 19333 19319 19317 19346 19393 19428 19437 19486 19513 19558 19602 19657 19675 19654 19646 19723 19813 19906 19929 19933 19931 19950 19951 19973 20004 19983 19969 19984 20049 20153 20201 20220 20187 20181 20197 20209 20212 20224 20244 20257 20272 20281 20263 20220 20189 20161 20164 20195 20212 20207 20212 20264 20338 20416 20492 20538 20606 20645 20641 20624 20637 20661 20682 20707 20714 20738 20703 20633 20573 20525 20470 20448 20449 20463 20457 20428 20426 20409 20394 20401 20393 20397 20401 20374 20331 20258 20229 20191 20178 20147 20136 20125 20114 20103 20086 20066 20059 20059 20064 20069 20056 20021 19955 19888 19844 19826 19805 19799 19761 19760 19733 19719 19697 19702 19688 19680 19690 19673 19624 19565 19494 19466 19448 19442 19454 19471 19499 19519 19552 19556 19582 19609 19651 19658 19637 19590 19550 19513 19504 19512 19534 19530 19523 19512 19507 19502 19515 19500 19516 19514 19505 19496 19466 19439 19436 19449 19457 19479 19513 19540 19591 19625 19660 19655 19668 19669 19701 19728 19718 19681 19641 19612 19617 19625 19623 19624 19607 19622 19625 19633 19636 19643 19627 19656 19657 19648 19626 19587 19573 19559 19533 19553 19562 19548 19536 19537 19546 19551 19566 19570 19572 19533 19494 19443 19409 19405 19401 19378 19379 19366 19390 19422 19421 19412 19407 19406 19423 19413 19353 19288 19268 19245 19239 19240 19235 19216 19226 19217 19225 19244 19281 19285 19270 19249 19229 19214 19183 19174 19166 19189 19230 19261 19284 19289 19289 19287 19292 19310 19312 19277 19212 19134 19117 19090 19086 19089 19094 19089 19073 19108 19156 19172 19189 19214 19239 19245 19186 19117 19064 19031 19008 19000 19026 19024 19015 18981 18964 18968 18975 18979 18996 18948 18876 18792 18770 18774 18766 18741 18736 18784 18859 18903 18941 18949 18948 18955 18963 18908 18859 18793 18776 18802 18895 19007 19094 19180 19240 19290 19327 19351 19336 19379 19412 19355 19372 19582 19662 19770 20003 20182 20325 20493 20618 20737 20857 20958 21049 21131 21174 21175 21172 21173 21201 21262 21283 21328 21373 21421 21452 21479 21501 21533 21573 21611 21618 21611 21609 21627 21627 21656 21682 21722 21729 21759 21787 21804 21832 21856 21924 21973 21972 21964 21929 21869 21836 21779 21734 21695 21654 21596 21539 21517 21506 21520 21553 21521 21417 21314 21229 21144 21074 20997 20929 20851 20799 20746 20727 20744 20710 20680 20672 20645 20560 20443 20347 20241 20158 20116 20105 20095 20066 20013 19988 19969 20003 20012 20023 20052 20006 19968 19930 19942 19965 19937 19891 19856 19870 19872 19868 19874 19885 19891 19920 19922 19919 19810 19682 19653 19654 19663 19691 19718 19709 19702 19700 19749 19824 19910 19967 20032 20055 20012 19964 19938 19936 19946 19968 20001 20025 20009 19973 19955 19971 19980 19978 19988 19991 19932 19883 19845 19875 19906 19915 19900 19905 19920 19918 19927 19954 19976 20041 20094 20092 20016 19943 19925 19918 19909 19936 19934 19944 19941 19935 19953 19971 19990 20015 20039 20007 19953 19919 19903 19902 19893 19920 19950 19991 20026 20022 20024 20021 20028 20039 20013 19960 19916 19880 19849 19823 19820 19842 19877 19898 19923 19929 19935 19942 19947 19930 19876 19831 19806 19791 19757 19751 19748 19740 19725 19712 19710 19691 19695 19695 19708 19672 19628 19609 19593 19597 19622 19643 19672 19672 19695 19761 19827 19871 19909 19860 19769 19683 19632 19615 19576 19560 19536 19504 19485 19481 19520 19561 19591 19650 19715 19720 19680 19622 19594 19569 19579 19600 19585 19568 19531 19520 19518 19514 19521 19520 19538 19529 19461 19405 19423 19433 19416 19397 19427 19452 19431 19433 19428 19440 19456 19461 19479 19470 19411 19366 19323 19308 19310 19309 19313 19314 19314 19315 19333 19358 19387 19396 19391 19377 19355 19298 19271 19261 19251 19269 19273 19282 19271 19247 19230 19245 19255 19269 19263 19250 19211 19149 19126 19109 19108 19093 19070 19082 19090 19080 19072 19097 19202 19311 19410 19456 19443 19431 19422 19451 19467 19499 19486 19460 19426 19403 19392 19432 19496 19513 19504 19468 19399 19357 19307 19293 19277 19272 19258 19254 19246 19214 19200 19198 19202 19189 19138 19068 19033 18985 18962 18957 18969 18966 18960 18961 18958 18952 18956 18989 19009 18989 18919 18868 18818 18782 18763 18779 18785 18797 18786 18788 18774 18743 18755 18771 18797 18781 18752 18775 18797 18816 18828 18866 18892 18889 18847 18819 18786 18756 18712 18681 18659 18633 18630 18672 18723 18756 18794 18812 18882 18915 18941 18947 18979 19004 19052 19056 19004 18982 18971 18950 18950 18956 18946 18947 18951 18977 19026 19044 19089 19138 19221 19279 19318 19342 19331 19347 19396 19427 19434 19421 19417 19417 19419 19444 19461 19473 19473 19444 19419 19398 19385 19357 19340 19344 19323 19313 19297 19309 19302 19292 19334 19356 19387 19347 19294 19249 19212 19160 19143 19127 19106 19067 19052 19062 19061 19071 19056 19051 19046 18993 18957 18942 18917 18899 18920 18956 18970 18970 18961 18963 18959 18962 18954 18962 18971 18915 18865 18820 18784 18764 18750 18739 18736 18729 18767 18820 18853 18868 18889 18934 18968 18951 18908 18870 18852 18837 18828 18838 18837 18829 18810 18798 18801 18821 18829 18818 18821 18794 18745 18764 18784 18773 18836 18911 18959 18994 18984 18987 19003 19025 19027 19038 19033 18983 18935 18915 18911 18887 18884 18888 18862 18844 18847 18866 18882 18888 18913 18973 19001 18955 18931 18933 18923 18915 18927 18940 18950 18937 18929 18926 18927 18937 18950 18906 18866 18819 18800 18817 18855 18874 18893 18943 18980 18985 18977 18973 18991 19003 18994 18979 18932 18885 18889 18892 18946 18994 19021 19019 18999 19013 19119 19265 19369 19433 19484 19480 19500 19490 19491 19517 19514 19502 19513 19511 19485 19453 19440 19449 19423 19358 19282 19217 19171 19120 19083 19076 19073 19049 19057 19052 19053 19045 19051 19044 19006 18942 18887 18840 18790 18760 18725 18732 18723 18717 18713 18698 18690 18695 18715 18750 18738 18700 18647 18630 18620 18630 18640 18654 18690 18665 18669 18722 18758 18737 18704 18645 18597 18607 18598 18581 18573 18566 18577 18636 18694 18727 18770 18877 18958 19001 19014 19028 19031 19068 19085 19106 19110 19060 19024 19011 18994 18987 18988 18963 18944 18940 18939 18958 18955 18944 18951 19008 19071 19111 19118 19144 19141 19140 19146 19179 19188 19194 19173 19164 19133 19118 19105 19134 19103 19104 19129 19181 19234 19258 19260 19294 19330 19350 19341 19336 19279 19229 19194 19181 19169 19139 19134 19149 19190 19259 19386 19509 19554 19583 19564 19564 19552 19507 19514 19571 19635 19671 19723 19736 19723 19730 19742 19740 19742 19734 19756 19859 19947 19995 20048 20089 20103 20064 20042 20022 20011 20002 20021 20034 20026 20026 20039 20059 20048 20010 19973 19925 19873 19829 19831 19862 19886 19930 19961 19959 19953 19941 19942 19972 19991 19957 19908 19868 19841 19832 19842 19861 19850 19858 19860 19853 19838 19788 19785 19779 19811 19781 19745 19671 19647 19582 19559 19581 19578 19570 19606 19631 19644 19620 19631 19642 19656 19622 19577 19477 19356 19291 19283 19306 19336 19361 19403 19385 19355 19309 19329 19381 19433 19482 19454 19402 19333 19305 19307 19319 19309 19310 19339 19381 19426 19467 19585 19720 19834 19918 19953 19899 19859 19842 19893 19981 20056 20143 20210 20268 20300 20320 20350 20350 20368 20393 20369 20311 20229 20122 20060 20019 20016 20040 20037 20028 19978 19943 19921 19897 19910 19893 19883 19858 19828 19761 19719 19690 19680 19696 19711 19729 19727 19738 19733 19714 19717 19728 19721 19733 19698 19659 19600 19580 19579 19590 19596 19544 19529 19528 19510 19502 19512 19497 19485 19492 19487 19463 19394 19338 19359 19370 19396 19409 19404 19390 19395 19428 19480 19551 19601 19602 19585 19540 19488 19442 19413 19391 19379 19376 19380 19399 19438 19425 19380 19408 19452 19482 19491 19424 19363 19278 19229 19199 19224 19248 19222 19218 19263 19306 19316 19334 19362 19335 19356 19369 19364 19336 19250 19213 19218 19232 19251 19255 19257 19230 19233 19251 19276 19338 19328 19344 19364 19306 19247 19213 19200 19187 19169 19168 19168 19178 19162 19132 19144 19166 19212 19245 19248 19191 19106 19046 19007 18998 19015 18990 18972 18974 18988 18970 18971 18968 18981 18992 19001 18974 18907 18825 18777 18746 18735 18751 18766 18778 18799 18795 18804 18789 18823 18873 18913 18893 18865 18858 18843 18818 18831 18864 18865 18851 18857 18878 18875 18852 18849 18848 18870 18828 18760 18709 18660 18629 18603 18633 18657 18653 18654 18679 18720 18725 18719 18723 18713 18696 18652 18601 18565 18530 18506 18519 18518 18544 18536 18541 18516 18506 18544 18593 18697 18753 18806 18816 18825 18809 18780 18763 18766 18780 18796 18825 18834 18815 18825 18855 18900 18943 18977 18922 18862 18799 18771 18820 18876 18930 18972 19035 19060 19063 19059 19066 19072 19084 19103 19115 19062 18987 18957 18985 19000 19033 19054 19054 19036 19026 19037 19131 19208 19277 19342 19393 19420 19378 19336 19322 19319 19306 19314 19318 19305 19276 19279 19300 19355 19402 19430 19422 19376 19315 19275 19298 19297 19298 19343 19431 19495 19535 19588 19638 19706 19795 19890 19929 19915 19849 19796 19781 19761 19749 19737 19733 19719 19718 19794 19926 20030 20115 20158 20196 20151 20092 19980 19802 19751 19767 20152 20368 20555 20629 20644 20392 20353 20371 20427 20502 20531 20498 20519 20594 20704 20745 20808 20998 21114 21146 21149 20960 21145 21282 21349 21380 21448 21554 21618 21545 21433 21346 21269 21247 21217 21197 21148 21134 21147 21170 21220 21276 21348 21450 21517 21563 21529 21537 21477 21407 21265 21283 21401 21557 21716 21855 21931 22061 22143 22194 22177 22167 22114 22114 22173 22226 22143 22009 22021 22055 22106 22149 22228 22286 22355 22393 22414 22420 22373 22300 22234 22190 22174 22151 22138 22141 22126 22140 22165 22166 22169 22142 22116 22099 22056 22007 21962 21923 21951 21967 21977 21987 22015 22031 22036 22058 22046 22029 22031 22006 21902 21837 21752 21711 21692 21690 21689 21698 21691 21687 21679 21701 21739 21771 21801 21793 21781 21755 21720 21691 21699 21707 21722 21704 21693 21681 21726 21741 21737 21748 21735 21697 21638 21556 21482 21412 21383 21401 21435 21445 21468 21496 21505 21517 21570 21578 21597 21536 21452 21367 21340 21344 21354 21376 21419 21450 21458 21432 21410 21376 21349 21311 21302 21241 21118 21002 20924 20861 20814 20787 20724 20684 20645 20617 20609 20628 20641 20662 20678 20666 20650 20638 20641 20636 20642 20646 20670 20667 20679 20669 20668 20656 20632 20642 20635 20595 20532 20455 20375 20353 20354 20365 20389 20400 20413 20410 20420 20441 20490 20549 20579 20570 20511 20450 20418 20381 20363 20365 20367 20361 20346 20330 20316 20321 20307 20289 20249 20185 20124 20080 20077 20070 20071 20089 20115 20105 20114 20163 20205 20238 20254 20296 20290 20254 20206 20187 20167 20141 20139 20144 20145 20148 20161 20167 20185 20222 20235 20257 20238 20208 20154 20141 20116 20099 20114 20114 20104 20110 20113 20109 20106 20119 20129 20135 20087 20033 19980 19956 19936 19930 19902 19922 19912 19923 19906 19929 19929 19932 19936 19954 19953 19893 19858 19827 19821 19823 19796 19791 19803 19786 19792 19815 19839 19845 19855 19845 19849 19830 19829 19793 19793 19803 19813 19817 19832 19847 19861 19886 19910 19938 19961 19981 19979 19978 19962 19948 19942 19926 19942 19948 19946 19957 19970 19965 19970 19981 20008 20017 20023 20008 19994 19985 19997 19999 20033 20037 20059 20066 20069 20084 20085 20087 20082 20091 20069 20043 20001 19981 19966 19936 19933 19932 19945 19935 19931 19951 19944 19949 19953 19975 19980 19953 19911 19858 19847 19819 19791 19775 19763 19735 19709 19696 19676 19673 19656 19652 19657 19632 19561 19501 19476 19454 19446 19441 19452 19422 19407 19392 19385 19384 19381 19387 19390 19348 19271 19202 19153 19110 19082 19082 19084 19081 19054 19032 19037 19038 19043 19045 19045 19035 18969 18925 18867 18880 18879 18885 18907 18920 18930 18921 18935 18965 18948 18980 18988 18998 18973 18934 18888 18883 18863 18888 18884 18885 18886 18893 18887 18884 18906 18931 18964 19006 19025 19000 18952 18924 18904 18913 18901 18924 18943 18942 18960 18986 19002 19037 19048 19064 19068 19054 19013 18987 18990 19009 19030 19062 19098 19130 19145 19160 19160 19173 19181 19198 19225 19243 19226 19202 19194 19202 19214 19219 19233 19241 19244 19258 19258 19272 19286 19294 19310 19279 19246 19198 19169 19131 19137 19150 19138 19147 19159 19174 19162 19175 19163 19180 19182 19196 19134 19083 19047 19054 19072 19099 19120 19149 19141 19111 19070 19050 19035 19023 19032 19026 18991 18917 18859 18826 18810 18814 18828 18820 18817 18815 18790 18822 18861 18908 18960 19017 19028 19012 18954 18919 18898 18895 18882 18880 18890 18871 18856 18854 18868 18870 18891 18908 18846 18766 18699 18672 18684 18705 18746 18814 18851 18842 18837 18822 18814 18807 18815 18834 18841 18792 18721 18701 18691 18685 18706 18717 18730 18729 18740 18754 18777 18835 18889 18925 18942 18925 18874 18858 18832 18850 18849 18885 18905 18930 18937 18955 18976 18991 18998 19013 19010 18980 18920 18885 18895 18918 18945 18951 18982 18980 18981 18973 18960 18948 18949 18959 18976 18963 18921 18893 18897 18906 18914 18934 18954 18951 18934 18936 18941 18959 18965 19010 19043 19029 18985 18938 18894 18863 18863 18869 18860 18869 18860 18860 18886 18904 18916 18930 18932 18906 18842 18794 18774 18754 18757 18800 18814 18842 18823 18812 18804 18800 18794 18802 18830 18799 18740 18698 18673 18662 18679 18700 18714 18711 18718 18696 18719 18721 18720 18759 18762 18747 18695 18649 18617 18588 18579 18589 18576 18561 18560 18543 18555 18582 18603 18658 18681 18717 18672 18627 18598 18598 18614 18634 18690 18686 18690 18660 18659 18651 18657 18673 18678 18712 18683 18653 18608 18608 18607 18628 18647 18643 18641 18659 18665 18699 18738 18755 18764 18790 18795 18751 18703 18672 18652 18639 18655 18685 18673 18673 18664 18664 18667 18692 18708 18733 18717 18675 18631 18649 18680 18689 18698 18711 18708 18720 18697 18696 18689 18699 18688 18712 18725 18698 18659 18598 18608 18601 18609 18621 18642 18656 18645 18667 18670 18720 18744 18780 18815 18810 18787 18727 18694 18646 18660 18656 18656 18684 18686 18682 18682 18706 18721 18725 18757 18729 18703 18654 18665 18696 18713 18731 18756 18765 18757 18744 18731 18728 18740 18734 18753 18732 18684 18627 18597 18588 18593 18585 18601 18603 18596 18589 18598 18632 18667 18686 18720 18714 18681 18632 18605 18589 18572 18571 18579 18591 18580 18572 18567 18566 18595 18604 18632 18606 18561 18523 18519 18513 18569 18560 18588 18616 18630 18621 18607 18601 18588 18591 18584 18567 18521 18504 18471 18485 18494 18509 18518 18514 18517 18508 18517 18512 18518 18537 18532 18519 18495 18481 18444 18418 18418 18394 18385 18410 18403 18424 18429 18422 18436 18443 18428 18392 18374 18369 18358 18361 18366 18391 18413 18432 18465 18504 18528 18535 18537 18524 18491 18460 18416 18398 18380 18395 18409 18391 18411 18414 18435 18444 18451 18458 18454 18439 18407 18371 18364 18397 18442 18465 18459 18446 18441 18424 18441 18459 18485 18493 18488 18449 18416 18401 18404 18386 18379 18369 18351 18375 18373 18413 18446 18488 18519 18552 18533 18487 18458 18433 18427 18444 18458 18491 18507 18506 18523 18528 18541 18522 18525 18527 18467 18421 18420 18431 18421 18429 18468 18509 18522 18507 18505 18494 18509 18511 18532 18500 18475 18434 18440 18457 18469 18481 18487 18495 18503 18509 18529 18545 18572 18578 18599 18574 18530 18495 18462 18462 18478 18567 18703 18797 18847 18836 18825 18816 18793 18765 18703 18638 18594 18547 18528 18519 18514 18508 18515 18532 18571 18546 18546 18542 18531 18503 18471 18435 18417 18407 18378 18372 18382 18415 18380 18360 18348 18339 18339 18335 18316 18296 18257 18277 18329 18354 18365 18390 18433 18511 18580 18618 18638 18647 18646 18641 18602 18540 18502 18477 18460 18462 18439 18434 18463 18476 18509 18563 18590 18632 18639 18596 18530 18481 18464 18449 18448 18467 18452 18432 18450 18472 18488 18505 18527 18543 18542 18498 18469 18449 18452 18461 18488 18529 18538 18527 18512 18503 18521 18532 18556 18577 18570 18541 18502 18499 18501 18490 18501 18475 18479 18479 18486 18526 18542 18580 18602 18649 18670 18645 18602 18572 18556 18554 18559 18576 18598 18602 18589 18589 18603 18625 18641 18612 18559 18521 18505 18513 18545 18539 18542 18580 18639 18665 18683 18692 18691 18705 18663 18635 18615 18607 18578 18558 18582 18603 18599 18602 18607 18601 18614 18628 18618 18619 18565 18535 18552 18534 18538 18511 18519 18518 18536 18538 18538 18573 18599 18610 18560 18509 18490 18500 18538 18577 18607 18622 18641 18672 18727 18758 18777 18812 18819 18782 18723 18686 18661 18628 18627 18627 18640 18633 18614 18593 18600 18596 18586 18570 18521 18433 18387 18357 18366 18396 18397 18446 18484 18506 18503 18523 18527 18554 18565 18561 18533 18508 18492 18468 18458 18452 18459 18453 18471 18482 18477 18476 18483 18511 18519 18478 18461 18471 18478 18465 18446 18449 18429 18432 18448 18466 18474 18473 18456 18438 18400 18373 18351 18330 18300 18291 18275 18306 18359 18384 18409 18453 18520 18550 18595 18596 18570 18565 18544 18540 18540 18539 18546 18548 18581 18580 18572 18575 18581 18568 18576 18559 18535 18528 18538 18587 18641 18666 18688 18696 18694 18700 18704 18730 18754 18768 18726 18698 18667 18660 18652 18653 18682 18703 18720 18738 18771 18807 18810 18845 18868 18875 18823 18759 18733 18698 18712 18706 18720 18720 18742 18728 18736 18751 18747 18752 18755 18720 18682 18679 18680 18714 18747 18761 18797 18851 18874 18880 18887 18874 18889 18904 18920 18921 18899 18871 18834 18825 18818 18832 18822 18801 18805 18809 18808 18806 18837 18852 18828 18761 18697 18664 18640 18631 18632 18601 18609 18604 18602 18610 18590 18600 18613 18571 18505 18472 18465 18460 18473 18504 18530 18553 18600 18625 18657 18666 18652 18638 18598 18556 18527 18481 18457 18452 18426 18431 18444 18465 18459 18471 18472 18487 18492 18480 18443 18421 18401 18409 18432 18439 18429 18434 18406 18404 18420 18429 18461 18489 18485 18445 18411 18398 18386 18406 18409 18399 18374 18390 18424 18444 18495 18524 18562 18590 18557 18508 18469 18425 18450 18473 18514 18526 18529 18517 18497 18506 18501 18519 18580 18596 18608 18571 18542 18543 18535 18559 18594 18611 18617 18597 18594 18607 18612 18621 18644 18652 18674 18618 18592 18573 18582 18579 18609 18630 18651 18645 18649 18682 18701 18737 18778 18812 18809 18773 18710 18685 18657 18667 18675 18702 18734 18750 18751 18766 18779 18786 18792 18798 18780 18766 18726 18717 18722 18723 18726 18742 18746 18733 18712 18729 18741 18767 18816 18854 18860 18834 18804 18794 18789 18795 18806 18808 18806 18832 18872 18873 18883 18925 18977 18993 19023 19010 19017 19060 19087 19114 19099 19097 19131 19154 19153 19137 19121 19139 19109 19127 19098 19052 19017 19001 18997 18999 18998 18987 18983 18970 18937 18933 18934 18936 18952 18982 18988 18976 18932 18901 18871 18856 18854 18851 18867 18878 18883 18876 18889 18922 18955 18986 19001 18980 18927 18877 18853 18830 18828 18833 18827 18835 18846 18832 18822 18815 18832 18834 18831 18786 18743 18691 18666 18670 18676 18680 18716 18743 18760 18762 18747 18725 18750 18764 18776 18755 18715 18663 18621 18599 18616 18607 18613 18608 18598 18597 18603 18652 18713 18777 18819 18853 18848 18811 18784 18772 18768 18766 18756 18758 18771 18779 18796 18786 18785 18779 18778 18751 18710 18692 18654 18641 18630 18680 18767 18792 18842 18887 18920 18970 19021 19026 19037 19012 18994 18997 19005 19048 19061 19077 19072 19087 19099 19109 19119 19112 19132 19140 19147 19138 19104 19086 19073 19039 19017 19005 19003 18985 18994 19002 19015 19041 19062 19081 19076 19037 19001 18964 18957 18949 18952 18953 18947 18931 18939 18957 18971 18999 19011 19031 19003 18969 18917 18894 18880 18881 18887 18892 18908 18909 18906 18885 18881 18885 18876 18887 18838 18797 18764 18734 18748 18750 18733 18729 18701 18677 18665 18656 18649 18650 18672 18679 18661 18610 18578 18535 18553 18552 18576 18569 18585 18627 18643 18651 18679 18682 18734 18716 18673 18646 18633 18595 18599 18611 18628 18643 18659 18659 18656 18671 18659 18649 18656 18619 18576 18538 18519 18515 18510 18528 18516 18544 18548 18542 18578 18580 18575 18575 18585 18573 18541 18524 18512 18503 18494 18516 18529 18536 18530 18545 18528 18518 18534 18529 18555 18570 18577 18566 18569 18577 18584 18561 18560 18553 18575 18600 18619 18632 18673 18695 18700 18670 18647 18635 18610 18607 18636 18623 18616 18636 18647 18668 18666 18666 18676 18683 18679 18669 18655 18635 18650 18652 18645 18646 18646 18642 18639 18649 18665 18659 18670 18697 18709 18753 18744 18746 18754 18747 18754 18716 18716 18717 18709 18692 18687 18696 18716 18724 18747 18750 18710 18661 18635 18620 18617 18583 18590 18583 18600 18625 18655 18672 18682 18696 18739 18759 18734 18670 18617 18612 18608 18604 18601 18604 18583 18581 18569 18591 18605 18614 18593 18608 18587 18552 18516 18503 18515 18521 18536 18544 18561 18581 18569 18562 18570 18586 18612 18624 18661 18631 18606 18552 18546 18548 18560 18564 18578 18564 18555 18543 18549 18569 18558 18595 18636 18651 18630 18575 18550 18553 18540 18556 18579 18602 18622 18609 18616 18619 18641 18683 18706 18678 18650 18629 18597 18607 18634 18621 18632 18657 18664 18634 18635 18638 18648 18678 18704 18729 18708 18680 18672 18445 18712 18983 19143 19257 19325 19411 19463 19510 19658 19700 19774 19831 19808 19798 19831 19851 19875 19926 19954 19973 20002 20015 20069 20078 20104 20135 20172 20170 20159 20162 20139 20128 20110 20086 20062 20049 20049 20054 20042 19998 20025 20051 20048 20026 20004 19964 19953 19915 19883 19876 19881 19866 19831 19822 19811 19816 19798 19795 19775 19770 19811 20072 20470 20836 21090 21275 21311 21297 21179 21087 21070 21036 21023 20983 20915 20859 20834 20868 20863 20891 20895 20934 21004 21104 21328 21448 21526 21538 21521 21393 21261 21249 21444 21717 21827 21899 21962 22040 22043 22110 21858 21849 21897 22045 22411 22757 22919 23167 23349 23449 23404 23397 23423 23432 23421 23428 23411 23357 23226 22966 22880 22867 22765 22716 22583 22481 22451 22431 22417 22360 22322 22303 22330 22346 22366 22372 22295 22263 22232 22237 22334 22362 22121 22313 22190 22144 22119 22301 22350 22397 22409 22392 22354 22288 22133 22141 22076 21952 21892 21793 21721 21666 21612 21568 21533 21524 21446 21375 21326 21287 21291 21326 21354 21352 21377 21385 21391 21375 21360 21341 21263 21211 21122 21044 20980 20973 20949 20935 20926 20901 20902 20882 20896 20875 20865 20871 20886 20895 20869 20849 20831 20816 20818 20826 20847 20896 20959 21004 21079 21147 21212 21251 21280 21262 21237 21186 21136 21114 21107 21111 21131 21154 21175 21186 21195 21201 21188 21191 21201 21200 21158 21141 21130 21133 21130 21143 21151 21145 21135 21154 21162 21194 21231 21283 21331 21333 21351 21345 21354 21351 21356 21362 21386 21393 21388 21397 21431 21455 21477 21495 21487 21462 21418 21344 21305 21285 21301 21301 21322 21346 21392 21403 21432 21441 21463 21460 21419 21374 21312 21252 21236 21236 21250 21281 21291 21305 21297 21278 21263 21224 21214 21214 21208 21171 21151 21118 21104 21092 21080 21044 21008 20982 20967 20963 20974 21004 21053 21090 21113 21079 21035 20989 20952 20912 20911 20920 20916 20925 20930 20975 20983 21009 21020 21016 21008 20973 20897 20860 20858 20879 20911 20968 21028 21085 21124 21161 21161 21165 21149 21135 21136 21093 21059 21032 21039 21059 21077 21113 21129 21104 21088 21085 21079 21086 21104 21144 21193 21221 21223 21195 21165 21139 21119 21108 21096 21090 21099 21111 21143 21192 21229 21264 21270 21216 21139 21078 21033 20992 20953 20961 20956 20960 20971 20998 21022 21036 21061 21067 21045 20980 20900 20852 20815 20790 20802 20842 20865 20889 20913 20930 20946 20948 20983 20964 20978 20930 20875 20815 20812 20831 20847 20857 20868 20879 20876 20879 20897 20903 20921 20940 20965 20952 20933 20929 20941 20978 20990 20936 20901 20892 20924 20993 21039 21051 21106 21131 21143 21073 20903 20735 20585 20478 20393 20364 20386 20423 20500 20559 20608 20594 20598 20567 20542 20484 20373 20283 20213 20147 20143 20207 20303 20394 20421 20413 20412 20426 20448 20551 20594 20601 20600 20596 20612 20666 20782 20848 20867 20870 20846 20806 20763 20712 20669 20656 20644 20611 20508 20367 20252 20194 20156 20120 20104 20050 20016 19996 19987 19991 20015 20038 20049 20049 20005 19924 19887 19852 19800 19784 19802 19817 19802 19788 19801 19784 19809 19825 19840 19844 19790 19714 19643 19619 19619 19626 19644 19643 19635 19618 19630 19643 19635 19638 19646 19644 19610 19553 19501 19463 19466 19472 19489 19498 19479 19456 19473 19483 19576 19724 19894 20039 20131 20178 20284 20299 20351 20396 20469 20556 20665 20784 20895 21009 21111 21198 21280 21356 21425 21466 21483 21501 21529 21581 21613 21658 21704 21727 21787 21837 21889 21929 21980 22042 22093 22114 22089 22057 22037 22037 22042 22043 22062 22080 22074 22099 22113 22154 22168 22188 22220 22262 22230 22225 22228 22244 22237 22229 22235 22242 22247 22251 22267 22303 22312 22347 22370 22381 22326 22263 22207 22187 22170 22177 22204 22234 22245 22267 22234 22230 22175 22073 21966 21897 21765 21606 21443 21308 21159 21048 20974 20940 20866 20763 20669 20614 20614 20639 20680 20693 20652 20567 20498 20475 20485 20514 20527 20524 20519 20518 20481 20479 20472 20417 20388 20396 20358 20224 20069 19969 19931 19924 19949 19973 19986 19982 19969 19978 19988 20011 20000 20027 20052 20019 19934 19876 19870 19829 19813 19869 19879 19872 19852 19861 19888 19921 19976 20001 20032 20022 19964 19909 19915 19945 19941 19933 19961 19970 19969 19978 19990 20001 20015 20052 20104 20105 20069 20022 19990 19990 19981 19996 20030 20050 20059 20062 20057 20071 20089 20118 20129 20113 20082 20036 20004 20022 20023 20044 20084 20108 20121 20132 20130 20130 20140 20144 20166 20133 20091 20077 20058 20028 20026 20034 20034 20015 20023 20021 20007 20011 20031 20037 20063 20063 20030 19991 19967 19946 19923 19915 19911 19893 19894 19889 19874 19878 19867 19867 19848 19788 19722 19702 19681 19666 19645 19646 19646 19647 19658 19670 19692 19694 19701 19680 19606 19549 19485 19464 19440 19429 19416 19410 19419 19427 19435 19431 19430 19446 19457 19449 19394 19328 19305 19282 19285 19278 19291 19293 19281 19260 19254 19262 19259 19267 19292 19282 19228 19192 19152 19143 19133 19118 19104 19121 19114 19115 19097 19111 19134 19146 19163 19148 19110 19054 19028 19007 18984 18990 19006 19018 19029 19018 19045 19039 19045 19065 19086 19061 19044 19007 18970 18955 18956 18959 18963 18983 18996 19004 19013 19027 19052 19039 19037 19040 19005 18960 18955 18946 18936 18944 18933 18952 18944 18942 18930 18942 18981 18992 19008 19013 18952 18917 18886 18860 18869 18870 18867 18860 18880 18917 18951 18980 18975 18982 18979 18967 18931 18906 18872 18870 18918 18962 18958 18983 18978 18995 18994 19021 19041 19070 19096 19082 19051 18992 18963 18948 18941 18912 18907 18911 18922 18931 18930 18929 18964 19007 19017 19027 19036 19010 18989 18993 19000 19045 19085 19091 19148 19246 19301 19342 19346 19399 19577 19721 19852 19936 20047 20110 20183 20289 20402 20505 20659 20827 20901 20955 20962 20994 20997 21001 20981 20924 20861 20839 20815 20844 20834 20811 20777 20752 20740 20668 20660 20673 20659 20669 20666 20615 20550 20509 20472 20449 20409 20386 20372 20384 20370 20373 20379 20380 20377 20384 20364 20308 20245 20159 20150 20135 20133 20129 20128 20107 20107 20108 20113 20138 20164 20153 20128 20070 20011 19970 19931 19918 19926 19926 19908 19891 19891 19884 19901 19906 19931 19959 19955 19898 19824 19786 19765 19765 19777 19785 19805 19801 19798 19787 19792 19807 19803 19813 19797 19761 19690 19662 19646 19639 19632 19629 19630 19621 19612 19608 19607 19636 19653 19682 19695 19687 19651 19593 19557 19538 19544 19534 19537 19524 19522 19512 19527 19528 19527 19538 19589 19609 19585 19518 19492 19492 19518 19547 19561 19576 19599 19596 19597 19604 19611 19622 19626 19641 19617 19579 19554 19533 19516 19507 19507 19530 19523 19520 19530 19532 19515 19533 19528 19530 19519 19458 19406 19388 19363 19360 19359 19363 19346 19335 19311 19292 19312 19312 19308 19323 19370 19326 19260 19209 19174 19183 19202 19216 19229 19248 19242 19237 19214 19221 19236 19253 19261 19210 19146 19089 19077 19099 19113 19124 19141 19203 19221 19227 19232 19243 19233 19237 19236 19185 19151 19091 19074 19073 19065 19091 19114 19101 19119 19105 19105 19103 19119 19144 19147 19116 19091 19088 19052 19033 19035 19045 19050 19046 19055 19048 19069 19056 19061 19066 19077 19064 19016 19001 18992 18985 18990 19000 19017 19026 19021 19000 19042 19083 19107 19129 19129 19070 19057 19039 19044 19033 19043 19042 19037 19008 19024 19035 19048 19076 19133 19146 19162 19123 19079 19062 19039 19014 19005 19004 18994 18997 18984 19006 19025 19036 19047 19065 19068 19046 18992 18960 18949 18962 18975 18997 19022 19056 19075 19104 19128 19141 19166 19174 19156 19084 19047 18994 18972 18963 18956 18968 18967 18953 18975 18961 18968 18978 18957 18969 18958 18932 18887 18893 18896 18905 18921 18911 18923 18921 18892 18863 18861 18894 18919 18914 18907 18853 18788 18744 18714 18700 18691 18676 18688 18717 18757 18807 18868 18928 18974 19003 19034 19030 18982 18954 18925 18885 18873 18883 18898 18897 18890 18885 18867 18876 18880 18889 18898 18824 18750 18722 18700 18732 18759 18801 18840 18848 18860 18872 18896 18931 18933 18919 18924 18914 18837 18783 18758 18732 18738 18726 18751 18736 18740 18720 18712 18715 18723 18737 18760 18806 18804 18765 18735 18723 18734 18761 18758 18750 18747 18772 18791 18772 18775 18791 18788 18806 18790 18753 18710 18692 18652 18644 18656 18665 18679 18701 18740 18783 18835 18859 18910 18928 18909 18834 18776 18767 18740 18720 18721 18729 18720 18724 18743 18731 18742 18749 18759 18741 18728 18675 18637 18633 18655 18702 18744 18785 18807 18859 18922 18957 18965 18928 18970 18971 18957 18911 18870 18841 18816 18816 18829 18829 18841 18837 18810 18792 18820 18843 18883 18902 18920 18873 18809 18788 18823 18838 18859 18860 18887 18912 18888 18889 18879 18907 18907 18911 18935 18929 18882 18820 18791 18766 18779 18780 18779 18792 18806 18792 18787 18793 18829 18837 18850 18868 18871 18820 18766 18729 18712 18715 18724 18736 18752 18747 18759 18754 18758 18765 18788 18817 18827 18814 18769 18770 18781 18792 18835 18866 18875 18855 18868 18855 18839 18847 18859 18876 18886 18862 18819 18795 18775 18763 18755 18761 18772 18790 18821 18845 18836 18855 18841 18873 18922 18969 18937 18890 18882 18839 18820 18812 18816 18811 18803 18804 18818 18820 18826 18845 18836 18835 18819 18758 18746 18781 18807 18856 18893 18912 18943 18965 18978 18984 18965 18974 18986 18969 18951 18903 18863 18833 18811 18791 18792 18796 18781 18754 18780 18789 18806 18833 18888 18886 18894 18868 18826 18816 18780 18743 18741 18796 18827 18807 18798 18793 18811 18799 18822 18823 18818 18766 18697 18664 18654 18687 18722 18729 18716 18689 18704 18721 18760 18770 18789 18847 18892 18912 18867 18808 18762 18737 18729 18724 18735 18723 18701 18701 18691 18707 18711 18754 18786 18769 18720 18669 18654 18675 18666 18651 18684 18733 18765 18767 18760 18763 18775 18799 18798 18812 18804 18764 18722 18685 18691 18691 18719 18736 18756 18802 18833 18883 18928 18965 18983 18993 19003 18998 18972 18943 18937 18962 18982 19013 19043 19084 19101 19135 19131 19114 19126 19137 19143 19144 19119 19082 19040 19037 19057 19124 19171 19222 19274 19269 19277 19278 19299 19302 19310 19342 19358 19344 19328 19315 19301 19279 19283 19288 19275 19267 19263 19257 19273 19322 19360 19385 19396 19402 19359 19316 19318 19305 19314 19342 19342 19357 19372 19393 19392 19374 19371 19390 19389 19384 19337 19290 19231 19218 19239 19246 19283 19281 19289 19303 19282 19284 19297 19292 19316 19331 19303 19266 19220 19184 19131 19114 19114 19105 19094 19083 19078 19076 19067 19089 19118 19161 19166 19117 19067 19017 18982 18969 18973 18974 18965 18966 18967 18962 18960 18972 18967 18979 18980 18996 18976 18959 18939 18948 18955 18986 19036 19079 19057 19051 19061 19054 19039 19053 19068 19095 19080 19058 19022 18998 18987 18960 18970 18959 18968 18975 19003 19027 19052 19069 19100 19144 19137 19111 19083 19077 19078 19074 19068 19075 19095 19115 19120 19122 19146 19180 19167 19139 19077 19046 19011 18987 18990 18996 19010 19010 19004 19029 19023 19037 19088 19134 19170 19170 19161 19119 19109 19109 19115 19115 19145 19157 19147 19146 19143 19157 19175 19185 19187 19206 19181 19166 19170 19135 19100 19076 19069 19067 19064 19058 19066 19085 19097 19086 19123 19138 19124 19109 19057 19050 19033 19048 19040 19023 19027 19034 19044 19075 19120 19142 19189 19219 19242 19224 19181 19148 19139 19146 19144 19161 19174 19177 19179 19183 19205 19205 19193 19201 19212 19219 19203 19197 19216 19220 19236 19262 19276 19295 19286 19298 19285 19313 19329 19359 19380 19380 19371 19342 19304 19306 19311 19328 19362 19374 19384 19410 19444 19471 19494 19517 19559 19557 19584 19556 19507 19464 19443 19457 19447 19461 19478 19464 19472 19468 19460 19478 19494 19485 19485 19495 19488 19471 19466 19470 19470 19500 19503 19512 19507 19487 19494 19489 19497 19508 19512 19512 19511 19459 19400 19343 19328 19315 19317 19303 19323 19357 19378 19392 19431 19466 19478 19506 19521 19503 19440 19378 19341 19327 19319 19313 19315 19350 19385 19430 19448 19490 19490 19519 19543 19579 19545 19495 19463 19487 19498 19505 19504 19515 19518 19517 19536 19556 19583 19585 19582 19595 19600 19587 19535 19494 19455 19441 19445 19447 19469 19482 19479 19475 19495 19517 19531 19542 19569 19553 19529 19492 19467 19468 19438 19440 19441 19449 19461 19465 19474 19486 19502 19509 19535 19565 19577 19530 19484 19464 19435 19443 19448 19451 19447 19437 19450 19465 19465 19451 19440 19443 19462 19470 19430 19368 19327 19289 19292 19323 19361 19385 19388 19409 19436 19438 19447 19459 19462 19451 19425 19381 19313 19271 19228 19220 19221 19238 19225 19222 19225 19219 19218 19246 19296 19347 19373 19380 19376 19378 19350 19346 19341 19323 19326 19351 19346 19361 19349 19347 19352 19363 19380 19374 19388 19327 19294 19260 19275 19290 19315 19301 19294 19302 19314 19353 19335 19330 19319 19336 19337 19322 19274 19221 19190 19196 19215 19216 19230 19248 19250 19268 19295 19322 19385 19405 19409 19399 19375 19344 19320 19285 19292 19281 19284 19297 19317 19324 19325 19318 19326 19369 19383 19426 19445 19396 19364 19333 19327 19339 19355 19336 19325 19346 19340 19337 19331 19328 19325 19340 19356 19340 19280 19246 19226 19246 19260 19274 19268 19276 19274 19294 19288 19328 19346 19383 19359 19323 19281 19259 19233 19237 19242 19251 19275 19300 19300 19301 19309 19305 19335 19316 19280 19234 19208 19188 19164 19162 19177 19198 19209 19205 19216 19232 19244 19250 19226 19194 19154 19118 19103 19081 19068 19062 19069 19086 19094 19092 19098 19095 19114 19110 19092 19061 19058 19034 19022 19024 19033 19020 19012 19001 18994 18996 19009 19046 19064 19042 18980 18924 18891 18904 18922 18935 18949 18955 18954 18949 18994 19016 19031 19046 19076 19049 18989 18930 18903 18868 18869 18888 18905 18897 18874 18862 18859 18893 18920 18957 18994 18964 18905 18839 18858 18875 18872 18880 18901 18948 18961 18955 18960 18965 18973 18979 19006 19016 18964 18909 18861 18860 18880 18884 18914 18927 18924 18927 18944 18952 18993 19042 19064 19091 19081 19028 18982 18964 18953 18953 18959 18966 18969 18958 18971 18962 18960 18976 18995 19009 19046 19011 18962 18926 18908 18919 18945 18956 18981 19003 19043 19058 19068 19057 19061 19061 19068 19064 19037 18973 18943 18929 18943 18947 18971 18989 18984 18969 18966 18953 18971 19000 19008 19036 19065 19047 19021 19005 19001 18985 18973 18971 18952 18948 18941 18914 18918 18926 18944 18975 18980 18977 18938 18894 18892 18857 18890 18921 18906 18903 18936 18988 19020 19035 19052 19064 19068 19060 19053 18985 18922 18865 18829 18819 18848 18863 18890 18891 18895 18876 18860 18883 18917 18940 18945 18930 18885 18851 18853 18846 18847 18816 18801 18780 18775 18768 18764 18748 18725 18727 18744 18772 18787 18740 18680 18656 18649 18686 18761 18799 18844 18869 18936 18997 19039 19081 19105 19108 19097 19092 19077 18999 18915 18872 18870 18876 18891 18924 18966 18953 18939 18936 18950 18967 18962 18967 19005 19051 19019 18985 18963 18945 18915 18909 18903 18900 18867 18851 18904 18923 18963 19014 19041 19046 19024 18990 18962 18947 18951 18944 18955 18997 19026 19011 19003 19006 18997 19019 19027 19058 19054 19058 19033 18992 18967 18952 18949 18952 18948 18954 18951 18944 18960 18981 18973 18974 19007 19020 18998 18969 18911 18886 18855 18839 18848 18848 18836 18832 18831 18833 18838 18858 18897 18916 18933 18957 18946 18936 18900 18876 18844 18881 18901 18917 18916 18909 18899 18880 18878 18891 18898 18904 18914 18905 18863 18829 18806 18819 18863 18887 18894 18892 18893 18913 18899 18888 18881 18936 18973 19001 18991 18954 18871 18806 18777 18757 18736 18723 18701 18688 18680 18691 18698 18749 18788 18825 18854 18870 18842 18806 18766 18729 18696 18737 18771 18771 18784 18762 18744 18730 18726 18732 18725 18734 18715 18709 18655 18618 18630 18666 18704 18725 18762 18758 18756 18796 18815 18809 18818 18856 18899 18926 18922 18897 18820 18768 18733 18718 18729 18713 18719 18694 18690 18684 18707 18744 18791 18843 18873 18910 18917 18911 18901 18862 18823 18853 18871 18904 18919 18925 18921 18908 18906 18907 18915 18907 18904 18912 18895 18870 18878 18873 18872 18883 18891 18869 18875 18912 18908 18902 18923 18995 19045 19094 19133 19143 19079 19035 19004 18983 18985 18966 18962 18955 18952 18969 18994 19008 19035 19043 19062 19088 19106 19121 19090 19051 19038 19057 19107 19141 19162 19175 19168 19182 19184 19205 19223 19221 19225 19235 19198 19159 19129 19125 19111 19085 19074 19062 19053 19033 19009 19030 19061 19075 19075 19090 19072 19020 18958 18930 18899 18891 18849 18854 18853 18860 18860 18877 18880 18895 18930 18953 18997 19003 18939 18889 18855 18868 18860 18867 18841 18830 18821 18805 18801 18784 18786 18768 18781 18768 18726 18689 18660 18638 18633 18640 18670 18710 18702 18671 18662 18706 18765 18764 18763 18752 18717 18659 18625 18591 18589 18588 18574 18600 18641 18688 18710 18761 18774 18780 18808 18857 18872 18832 18786 18800 18850 18872 18870 18857 18882 18899 18916 18927 18940 18956 18985 19004 19024 19037 19044 19050 19068 19037 19060 19067 19102 19158 19184 19202 19245 19285 19270 19290 19325 19331 19348 19373 19399 19430 19497 19536 19561 19554 19547 19546 19491 19432 19489 19553 19558 19533 19607 19736 19909 20153 20316 20494 20641 20767 20876 20963 21019 21073 21136 21212 21284 21381 21539 21600 21599 21597 21575 21608 21574 21580 21654 21716 21654 21590 21610 21630 21650 21614 21595 21584 21861 22084 22134 22149 22179 22069 21998 21986 21951 21933 21888 21865 21822 21766 21690 21666 21751 21915 21936 21730 21745 21675 21678 21707 21710 21749 21780 21798 21767 21663 21557 21535 21536 21572 21598 21613 21633 21643 21643 21632 21695 21721 21657 21621 21599 21543 21498 21509 21603 21693 21733 21763 21800 21833 21833 21865 21875 21903 21925 21967 22016 22016 21961 21919 21891 21837 21748 21686 21654 21642 21607 21577 21540 21513 21493 21508 21409 21241 21074 21004 20968 20913 20879 20845 20800 20709 20671 20681 20715 20728 20724 20713 20664 20600 20529 20468 20401 20355 20353 20388 20373 20351 20333 20351 20372 20387 20405 20410 20355 20284 20228 20228 20289 20297 20312 20317 20337 20365 20373 20372 20373 20379 20394 20390 20343 20267 20217 20220 20215 20227 20239 20243 20262 20250 20267 20286 20323 20346 20357 20315 20261 20235 20202 20184 20164 20155 20177 20202 20203 20197 20177 20200 20217 20239 20224 20191 20133 20124 20112 20120 20156 20168 20155 20154 20176 20166 20182 20169 20178 20173 20117 20102 20066 20057 20042 20045 20054 20035 20044 20066 20067 20058 20090 20126 20134 20121 20072 20025 20008 19956 19950 19959 19980 19999 20034 20062 20076 20081 20055 20048 20000 19941 19897 19880 19872 19851 19851 19841 19832 19854 19846 19846 19845 19848 19841 19790 19736 19680 19653 19647 19647 19637 19640 19606 19583 19566 19568 19590 19605 19616 19568 19499 19472 19431 19410 19383 19400 19403 19404 19375 19384 19393 19417 19437 19454 19401 19306 19217 19210 19192 19204 19215 19198 19201 19182 19183 19183 19213 19209 19202 19118 19048 19009 18967 18952 18948 18958 18962 18976 18986 18966 18957 18965 18964 18972 18919 18865 18818 18785 18781 18786 18812 18842 18831 18832 18876 18896 18919 18913 18917 18889 18840 18788 18781 18754 18736 18722 18740 18745 18763 18793 18802 18820 18846 18863 18863 18839 18794 18753 18774 18801 18825 18801 18805 18800 18795 18813 18805 18809 18810 18773 18713 18665 18674 18686 18707 18710 18694 18689 18692 18705 18735 18723 18737 18757 18781 18735 18664 18646 18644 18647 18647 18657 18644 18634 18631 18660 18685 18717 18730 18720 18658 18599 18589 18592 18588 18574 18591 18593 18620 18619 18614 18629 18645 18655 18671 18647 18591 18555 18546 18560 18573 18587 18598 18600 18613 18613 18645 18655 18672 18671 18672 18686 18681 18660 18659 18666 18686 18701 18709 18726 18751 18741 18739 18768 18773 18742 18707 18692 18685 18673 18676 18696 18705 18662 18668 18730 18774 18778 18784 18788 18757 18711 18673 18656 18637 18622 18609 18636 18652 18636 18617 18608 18572 18562 18574 18548 18494 18459 18484 18543 18598 18612 18615 18623 18632 18624 18649 18647 18634 18632 18589 18526 18458 18428 18394 18353 18311 18310 18311 18317 18319 18293 18324 18372 18375 18318 18249 18201 18184 18178 18179 18217 18224 18193 18175 18193 18240 18292 18335 18327 18298 18251 18241 18252 18252 18237 18275 18352 18389 18377 18375 18373 18382 18403 18404 18412 18340 18280 18260 18291 18353 18415 18439 18436 18435 18431 18462 18498 18487 18498 18572 18596 18573 18529 18518 18492 18486 18498 18504 18483 18490 18503 18547 18580 18624 18610 18539 18478 18463 18493 18544 18569 18587 18626 18657 18660 18664 18660 18666 18687 18680 18619 18562 18499 18501 18496 18524 18552 18591 18593 18592 18601 18627 18689 18758 18778 18796 18784 18749 18713 18713 18713 18724 18731 18745 18754 18738 18748 18733 18737 18763 18746 18704 18664 18635 18620 18633 18662 18702 18691 18688 18733 18791 18777 18785 18788 18790 18750 18706 18655 18626 18603 18602 18607 18623 18649 18664 18687 18688 18723 18763 18844 18862 18821 18737 18684 18657 18653 18647 18627 18625 18628 18627 18636 18644 18644 18643 18658 18610 18576 18556 18529 18512 18506 18515 18559 18597 18610 18669 18732 18774 18799 18804 18761 18720 18679 18661 18639 18650 18632 18595 18608 18595 18597 18592 18608 18631 18637 18626 18616 18666 18748 18804 18881 18895 18907 18899 18900 18918 18947 18980 18994 18997 19012 18986 18930 18841 18789 18789 18770 18763 18774 18791 18794 18830 18878 18978 19048 19152 19189 19167 19082 19038 19030 19019 19043 19045 19058 19056 19070 19041 19009 18989 18979 18977 18939 18879 18824 18803 18809 18847 18908 18951 18972 18993 18990 18977 18973 18997 19026 19016 18972 18885 18838 18800 18762 18754 18747 18762 18769 18792 18813 18807 18819 18847 18894 18881 18842 18841 18818 18818 18805 18804 18793 18783 18768 18774 18763 18742 18746 18737 18705 18651 18614 18574 18527 18516 18524 18591 18624 18632 18670 18711 18758 18786 18818 18832 18777 18687 18623 18586 18557 18516 18503 18500 18536 18587 18621 18636 18625 18607 18583 18608 18580 18496 18442 18492 18546 18565 18594 18635 18616 18612 18622 18633 18660 18664 18647 18586 18513 18496 18523 18538 18515 18504 18505 18526 18584 18612 18617 18637 18674 18712 18719 18656 18596 18554 18547 18542 18530 18537 18529 18523 18538 18530 18527 18520 18527 18514 18499 18454 18448 18465 18468 18449 18464 18503 18526 18517 18509 18516 18549 18568 18604 18634 18600 18549 18511 18494 18499 18513 18512 18481 18473 18468 18503 18564 18607 18633 18701 18760 18752 18682 18639 18629 18645 18659 18697 18696 18715 18696 18691 18719 18735 18772 18782 18760 18718 18671 18628 18624 18643 18645 18664 18686 18712 18692 18677 18716 18719 18733 18736 18750 18721 18652 18599 18593 18575 18598 18634 18677 18705 18702 18684 18698 18728 18727 18742 18713 18659 18602 18527 18509 18518 18504 18531 18525 18525 18527 18540 18531 18532 18537 18554 18550 18497 18422 18389 18392 18453 18549 18611 18662 18708 18741 18756 18744 18727 18744 18739 18716 18683 18628 18605 18564 18546 18553 18563 18601 18619 18601 18592 18568 18572 18593 18647 18637 18578 18566 18587 18573 18575 18597 18592 18584 18598 18596 18608 18637 18635 18632 18636 18628 18587 18565 18557 18544 18545 18557 18615 18658 18670 18715 18786 18834 18808 18817 18859 18853 18828 18811 18768 18745 18738 18718 18713 18699 18710 18725 18728 18705 18698 18703 18707 18730 18688 18628 18599 18606 18619 18588 18580 18571 18563 18562 18576 18602 18605 18599 18594 18589 18586 18577 18566 18559 18530 18513 18514 18536 18552 18543 18563 18616 18672 18729 18746 18768 18748 18711 18669 18659 18664 18649 18660 18645 18661 18683 18715 18748 18763 18773 18792 18800 18821 18801 18730 18720 18703 18683 18652 18640 18642 18652 18670 18667 18682 18710 18727 18728 18725 18692 18639 18610 18620 18666 18713 18750 18756 18793 18812 18826 18793 18772 18761 18766 18793 18811 18784 18742 18729 18718 18709 18727 18748 18740 18752 18764 18789 18833 18863 18924 18985 19026 19022 18990 18954 18950 18928 18887 18871 18843 18845 18842 18827 18835 18839 18837 18837 18860 18880 18835 18764 18713 18699 18716 18758 18791 18828 18827 18850 18847 18862 18899 18912 18899 18916 18932 18898 18847 18786 18754 18733 18722 18718 18723 18684 18658 18646 18635 18653 18690 18757 18810 18832 18793 18776 18758 18746 18764 18766 18737 18708 18722 18787 18844 18857 18864 18852 18859 18845 18796 18706 18636 18632 18646 18655 18676 18693 18677 18661 18653 18668 18723 18777 18832 18884 18954 18932 18868 18807 18795 18780 18796 18790 18781 18783 18759 18754 18756 18750 18754 18757 18763 18727 18665 18615 18627 18632 18629 18633 18695 18721 18719 18702 18705 18715 18727 18731 18753 18723 18657 18620 18616 18644 18673 18703 18702 18676 18673 18682 18715 18779 18817 18830 18892 18927 18892 18826 18799 18797 18810 18813 18820 18817 18836 18828 18817 18808 18818 18810 18819 18830 18788 18718 18676 18663 18637 18626 18611 18645 18686 18685 18662 18665 18669 18696 18715 18727 18709 18647 18585 18563 18525 18498 18484 18479 18453 18440 18461 18494 18582 18668 18702 18723 18748 18719 18618 18568 18535 18536 18528 18531 18523 18539 18532 18522 18490 18491 18521 18552 18610 18590 18522 18448 18417 18404 18389 18356 18426 18536 18629 18669 18694 18691 18713 18712 18718 18727 18673 18569 18521 18527 18571 18610 18665 18673 18650 18632 18624 18648 18699 18695 18733 18811 18878 18856 18813 18798 18789 18799 18807 18815 18830 18817 18794 18810 18828 18859 18894 18934 18928 18890 18856 18844 18851 18860 18838 18886 18961 19031 19029 19030 19030 19036 19052 19063 19083 19029 18975 18924 18928 18963 19001 19009 18992 18976 18977 18990 19001 19009 18995 19017 19101 19172 19180 19147 19115 19109 19101 19111 19117 19129 19122 19105 19116 19126 19126 19133 19120 19060 18996 18926 18907 18895 18875 18858 18881 18927 18953 18929 18927 18923 18950 18968 18966 18954 18915 18860 18845 18823 18822 18807 18807 18784 18772 18775 18815 18835 18838 18820 18856 18844 18788 18735 18689 18685 18703 18705 18696 18695 18675 18673 18678 18740 18779 18814 18786 18716 18646 18626 18657 18655 18637 18659 18709 18755 18765 18766 18750 18782 18803 18840 18854 18813 18757 18709 18692 18702 18692 18715 18776 18781 18783 18755 18791 18865 18933 18969 18962 18882 18817 18776 18747 18733 18725 18746 18756 18757 18766 18771 18781 18767 18776 18793 18790 18785 18748 18708 18679 18672 18720 18760 18752 18720 18682 18679 18682 18672 18682 18687 18698 18673 18642 18626 18624 18625 18626 18614 18627 18678 18743 18777 18801 18832 18875 18873 18857 18850 18787 18726 18682 18667 18679 18685 18677 18679 18707 18730 18731 18754 18769 18779 18733 18677 18647 18630 18629 18618 18607 18594 18624 18660 18688 18675 18674 18721 18750 18753 18706 18664 18629 18627 18625 18633 18652 18644 18649 18664 18690 18724 18760 18768 18783 18787 18775 18802 18788 18744 18714 18687 18685 18679 18659 18648 18653 18666 18679 18709 18724 18726 18685 18638 18614 18618 18649 18667 18645 18629 18608 18608 18612 18636 18610 18626 18658 18690 18647 18596 18558 18552 18545 18555 18565 18586 18593 18579 18581 18619 18662 18699 18733 18732 18714 18641 18644 18623 18612 18596 18590 18616 18618 18632 18630 18642 18656 18689 18718 18748 18741 18698 18649 18652 18675 18679 18700 18690 18695 18668 18664 18673 18708 18741 18757 18750 18749 18713 18659 18644 18630 18635 18654 18661 18676 18673 18673 18657 18684 18729 18766 18767 18735 18673 18633 18585 18603 18593 18595 18576 18586 18610 18623 18609 18609 18626 18648 18670 18682 18664 18638 18605 18598 18613 18631 18691 18721 18729 18711 18707 18705 18735 18754 18768 18774 18783 18755 18719 18702 18716 18740 18752 18783 18794 18801 18818 18805 18817 18818 18827 18826 18788 18717 18683 18655 18638 18642 18682 18662 18641 18610 18599 18595 18581 18588 18600 18634 18625 18580 18553 18530 18493 18481 18475 18511 18553 18591 18612 18603 18600 18617 18626 18629 18571 18499 18472 18434 18404 18351 18342 18329 18331 18342 18331 18344 18359 18345 18341 18348 18321 18304 18285 18244 18244 18248 18269 18306 18324 18323 18346 18386 18419 18414 18407 18396 18354 18300 18266 18246 18253 18283 18247 18235 18274 18321 18373 18397 18409 18431 18453 18458 18442 18409 18367 18315 18299 18288 18269 18244 18243 18242 18242 18243 18265 18288 18317 18302 18251 18216 18235 18287 18345 18354 18350 18344 18355 18393 18433 18423 18436 18492 18568 18577 18542 18493 18485 18489 18484 18491 18509 18531 18533 18512 18509 18550 18623 18699 18729 18731 18678 18634 18640 18651 18644 18641 18691 18753 18780 18760 18768 18788 18787 18825 18838 18849 18829 18771 18755 18764 18774 18771 18768 18759 18759 18735 18724 18747 18741 18738 18788 18810 18801 18751 18697 18707 18709 18709 18718 18732 18733 18713 18713 18696 18705 18734 18724 18732 18715 18674 18628 18616 18608 18607 18586 18574 18569 18553 18527 18535 18552 18565 18563 18579 18586 18537 18466 18425 18417 18455 18509 18540 18545 18527 18516 18532 18538 18542 18523 18538 18545 18470 18401 18345 18318 18313 18293 18297 18288 18300 18282 18258 18259 18345 18419 18500 18521 18439 18359 18319 18354 18361 18389 18397 18437 18511 18515 18490 18478 18473 18473 18505 18495 18448 18380 18336 18316 18311 18353 18420 18462 18466 18470 18483 18489 18536 18614 18621 18621 18583 18556 18492 18454 18458 18445 18452 18452 18461 18459 18448 18451 18433 18449 18500 18528 18493 18425 18397 18367 18389 18471 18525 18533 18557 18576 18636 18628 18629 18651 18674 18669 18651 18622 18608 18573 18567 18550 18572 18609 18639 18630 18598 18579 18553 18573 18640 18644 18594 18608 18665 18701 18712 18696 18695 18691 18709 18718 18718 18725 18757 18734 18673 18612 18570 18592 18625 18629 18656 18627 18614 18652 18707 18723 18743 18753 18740 18684 18644 18592 18578 18567 18561 18578 18593 18568 18540 18548 18581 18641 18735 18803 18827 18796 18770 18797 18846 18847 18807 18823 18856 18863 18855 18832 18835 18833 18834 18834 18814 18761 18698 18660 18659 18670 18693 18715 18738 18727 18730 18743 18784 18845 18866 18859 18862 18853 18803 18758 18748 18755 18762 18768 18774 18765 18761 18735 18746 18764 18784 18820 18785 18737 18683 18666 18660 18705 18712 18705 18699 18743 18790 18788 18785 18779 18786 18799 18771 18725 18686 18684 18662 18665 18670 18670 18701 18725 18724 18721 18716 18725 18772 18811 18813 18769 18786 18779 18763 18761 18756 18760 18759 18772 18790 18806 18800 18809 18814 18790 18755 18724 18729 18716 18681 18674 18659 18678 18710 18714 18714 18761 18803 18824 18814 18787 18774 18738 18726 18696 18679 18671 18653 18648 18665 18657 18615 18539 18520 18565 18589 18648 18724 18882 19104 19292 19491 19685 19907 20096 20278 20436 20564 20677 20776 20862 20929 20978 21006 21069 21122 21186 21270 21345 21426 21494 21567 21626 21678 21719 21719 21705 21704 21725 21715 21750 21779 21802 21861 21908 21934 21917 21891 21904 21987 22087 22152 22185 22208 22238 22286 22308 22384 22414 22447 22505 22525 22548 22582 22631 22668 22721 22743 22798 22838 22813 22787 22775 22771 22748 22708 22706 22705 22722 22752 22786 22815 22805 22735 22597 22427 22245 22069 21915 21783 21656 21544 21454 21418 21376 21341 21243 21181 21148 21130 21089 21043 20892 20746 20631 20573 20525 20524 20505 20459 20430 20425 20403 20379 20358 20329 20296 20289 20211 20135 20030 19956 19948 19967 19965 19958 19965 19958 19955 19961 19969 20046 20082 20070 20022 19960 19895 19855 19838 19837 19826 19832 19851 19837 19830 19820 19856 19884 19896 19903 19862 19787 19739 19708 19713 19753 19790 19794 19825 19845 19853 19858 19886 19885 19902 19910 19884 19830 19784 19763 19753 19787 19808 19840 19850 19866 19872 19888 19928 19993 20038 20049 20030 20000 19973 19974 19976 19971 19968 19996 20004 20005 20008 19994 20015 20026 20048 20076 20039 19963 19923 19935 19944 20009 20036 20033 20058 20091 20116 20123 20130 20144 20154 20126 20086 20043 19993 19940 19940 19945 19971 19984 19980 19970 19965 19961 19974 20012 20029 20042 20010 19981 19964 19944 19942 19935 19932 19930 19939 19940 19921 19892 19874 19874 19912 19918 19882 19833 19771 19739 19742 19779 19832 19842 19866 19898 19912 19938 19933 19918 19919 19886 19825 19731 19643 19561 19539 19538 19548 19577 19575 19561 19548 19551 19586 19647 19673 19687 19700 19651 19593 19543 19519 19487 19462 19459 19457 19482 19453 19429 19388 19403 19409 19457 19466 19443 19370 19313 19301 19360 19426 19435 19426 19449 19482 19488 19491 19485 19501 19496 19501 19495 19425 19316 19270 19253 19268 19291 19312 19328 19298 19307 19319 19357 19409 19418 19425 19439 19421 19367 19309 19276 19255 19258 19273 19289 19282 19266 19247 19255 19282 19307 19338 19347 19300 19246 19222 19223 19265 19265 19259 19316 19348 19392 19388 19390 19400 19401 19430 19428 19401 19329 19284 19272 19289 19309 19328 19331 19325 19326 19330 19354 19409 19444 19464 19472 19447 19405 19377 19355 19375 19381 19397 19414 19419 19413 19407 19406 19436 19453 19416 19385 19361 19336 19330 19329 19375 19394 19366 19399 19429 19445 19437 19448 19438 19413 19361 19307 19255 19206 19174 19165 19175 19186 19190 19166 19176 19172 19168 19203 19184 19115 19035 19034 19058 19036 19032 19021 19006 19006 19006 19014 19002 18984 18981 18978 18940 18882 18833 18794 18771 18760 18770 18806 18890 18925 18962 19015 19067 19092 19113 19109 19049 18970 18914 18880 18856 18824 18786 18772 18769 18787 18809 18845 18862 18866 18874 18845 18835 18799 18756 18766 18817 18863 18883 18878 18863 18848 18859 18863 18864 18866 18832 18806 18774 18758 18761 18753 18739 18735 18751 18775 18819 18851 18872 18889 18911 18951 18958 18972 18914 18851 18815 18802 18797 18792 18777 18774 18790 18801 18827 18858 18887 18899 18920 18921 18915 18916 18866 18847 18899 18928 18964 18969 18973 18961 18963 18966 18980 19016 18989 18981 18946 18919 18887 18869 18875 18856 18845 18837 18842 18907 18894 18859 18882 18945 18994 19018 19006 18932 18882 18856 18829 18810 18803 18767 18762 18762 18764 18759 18763 18764 18756 18768 18778 18788 18737 18668 18638 18672 18701 18707 18690 18671 18646 18642 18654 18669 18666 18639 18599 18595 18560 18548 18546 18552 18528 18538 18537 18596 18646 18623 18626 18664 18718 18771 18777 18789 18730 18672 18587 18555 18529 18483 18462 18464 18481 18485 18489 18502 18517 18539 18563 18630 18698 18665 18566 18492 18487 18520 18554 18558 18560 18556 18540 18568 18599 18620 18591 18582 18579 18539 18503 18499 18501 18525 18559 18584 18665 18731 18740 18699 18732 18760 18785 18784 18795 18800 18761 18714 18669 18632 18605 18601 18618 18635 18681 18724 18783 18791 18804 18823 18860 18937 18917 18850 18799 18765 18755 18728 18738 18733 18750 18766 18782 18824 18826 18817 18808 18808 18814 18784 18719 18654 18637 18617 18649 18702 18753 18777 18791 18815 18818 18810 18792 18816 18822 18826 18792 18777 18776 18756 18734 18731 18739 18748 18772 18780 18796 18765 18760 18759 18806 18814 18783 18693 18657 18604 18576 18558 18564 18582 18600 18620 18632 18633 18632 18622 18622 18597 18542 18451 18390 18362 18419 18469 18521 18559 18570 18577 18596 18603 18604 18596 18603 18592 18569 18525 18513 18519 18487 18470 18444 18449 18461 18470 18454 18429 18420 18449 18455 18488 18429 18356 18316 18310 18310 18289 18278 18271 18285 18285 18329 18345 18351 18331 18326 18302 18267 18229 18220 18178 18123 18143 18215 18297 18354 18371 18403 18455 18525 18552 18537 18516 18456 18379 18347 18314 18285 18268 18248 18243 18221 18261 18272 18260 18210 18220 18250 18271 18261 18236 18213 18276 18322 18312 18316 18299 18303 18290 18308 18315 18322 18309 18318 18275 18199 18167 18175 18206 18204 18209 18228 18275 18312 18348 18363 18400 18437 18480 18479 18453 18379 18304 18265 18254 18271 18252 18251 18228 18244 18301 18326 18344 18319 18284 18306 18339 18329 18322 18275 18292 18372 18401 18406 18391 18389 18389 18392 18427 18450 18462 18448 18409 18343 18328 18334 18337 18317 18285 18318 18347 18375 18409 18450 18507 18594 18632 18645 18616 18548 18481 18428 18415 18386 18380 18371 18352 18381 18414 18483 18530 18524 18520 18545 18561 18516 18459 18488 18599 18721 18782 18809 18796 18764 18758 18759 18763 18752 18720 18711 18663 18619 18589 18588 18571 18548 18557 18559 18592 18631 18640 18651 18721 18773 18774 18760 18675 18615 18546 18513 18521 18494 18483 18448 18449 18480 18505 18541 18507 18475 18525 18537 18522 18479 18425 18412 18461 18553 18539 18512 18491 18483 18489 18507 18517 18502 18481 18402 18354 18367 18350 18349 18307 18291 18297 18361 18449 18508 18541 18618 18739 18818 18816 18764 18660 18610 18578 18569 18572 18557 18511 18477 18478 18494 18502 18504 18513 18489 18413 18361 18379 18393 18381 18391 18467 18539 18552 18542 18525 18536 18521 18539 18557 18539 18432 18319 18254 18268 18296 18321 18335 18292 18302 18317 18350 18392 18435 18428 18490 18529 18510 18414 18334 18304 18293 18298 18307 18281 18253 18240 18244 18286 18328 18354 18319 18182 18074 18019 18026 18033 18015 18017 18069 18159 18191 18190 18183 18194 18210 18231 18209 18141 18058 17995 17975 18013 18070 18102 18114 18076 18044 18057 18088 18161 18177 18162 18118 18078 18068 18037 18027 18028 18044 18044 18087 18089 18100 18080 18056 18083 18109 18069 18011 17972 17902 17905 17954 18030 18104 18113 18141 18199 18227 18207 18170 18155 18091 18019 17979 17985 17993 18007 17977 17948 17979 18017 18068 18088 18069 18060 18047 18013 17997 17970 18000 18061 18134 18169 18168 18155 18147 18157 18153 18178 18203 18213 18136 18053 18023 18066 18122 18176 18188 18160 18157 18192 18263 18321 18356 18408 18472 18409 18309 18239 18200 18174 18174 18173 18180 18190 18158 18157 18139 18194 18256 18313 18283 18174 18127 18141 18196 18243 18260 18254 18320 18369 18395 18347 18343 18331 18335 18322 18304 18229 18173 18140 18142 18174 18242 18307 18326 18285 18290 18251 18289 18338 18332 18289 18290 18286 18248 18231 18241 18218 18210 18209 18203 18217 18226 18210 18185 18221 18246 18235 18182 18102 18071 18081 18123 18168 18186 18213 18302 18357 18360 18360 18382 18382 18309 18268 18233 18209 18202 18175 18173 18211 18249 18258 18226 18185 18166 18159 18202 18167 18089 18090 18143 18199 18190 18213 18202 18223 18188 18201 18216 18252 18232 18233 18178 18094 18084 18092 18108 18071 18061 18050 18088 18118 18106 18152 18270 18388 18442 18456 18429 18345 18276 18243 18233 18219 18238 18208 18190 18174 18203 18242 18263 18247 18241 18216 18197 18190 18172 18185 18216 18309 18352 18370 18366 18359 18319 18322 18346 18344 18361 18282 18200 18158 18170 18220 18248 18239 18208 18187 18217 18263 18276 18300 18319 18416 18470 18433 18373 18327 18282 18254 18256 18278 18287 18295 18275 18263 18292 18338 18377 18375 18318 18233 18169 18172 18173 18184 18211 18289 18376 18399 18409 18431 18448 18466 18480 18486 18441 18385 18343 18324 18334 18379 18407 18388 18347 18319 18297 18323 18351 18355 18375 18433 18470 18460 18418 18392 18364 18378 18386 18389 18392 18417 18417 18415 18398 18380 18386 18383 18343 18282 18289 18295 18359 18371 18362 18352 18373 18408 18411 18411 18440 18440 18427 18394 18339 18307 18304 18279 18253 18230 18277 18333 18371 18387 18349 18349 18356 18414 18424 18351 18278 18290 18283 18254 18233 18223 18182 18187 18176 18188 18212 18222 18202 18170 18169 18169 18152 18174 18165 18109 18075 18099 18153 18182 18173 18225 18318 18393 18417 18438 18420 18328 18253 18185 18155 18161 18148 18100 18084 18120 18205 18284 18318 18307 18283 18270 18258 18223 18153 18116 18141 18237 18298 18287 18299 18293 18258 18247 18261 18284 18293 18281 18238 18164 18165 18207 18266 18279 18244 18236 18205 18224 18250 18246 18313 18417 18518 18567 18553 18511 18450 18436 18413 18418 18440 18432 18427 18408 18421 18484 18539 18551 18559 18555 18495 18454 18465 18430 18382 18432 18506 18525 18536 18555 18535 18534 18534 18555 18578 18571 18516 18472 18448 18466 18497 18479 18444 18429 18434 18465 18493 18500 18494 18540 18620 18657 18613 18553 18499 18473 18464 18465 18478 18476 18470 18440 18436 18448 18498 18541 18537 18444 18371 18335 18313 18310 18266 18304 18383 18442 18459 18455 18458 18438 18419 18430 18415 18349 18299 18248 18190 18179 18230 18290 18331 18307 18265 18262 18293 18331 18338 18328 18303 18309 18330 18314 18283 18256 18211 18204 18208 18226 18227 18222 18189 18170 18186 18170 18157 18149 18114 18102 18083 18123 18173 18166 18145 18177 18254 18317 18334 18319 18246 18138 18089 18091 18089 18092 18066 18048 18084 18138 18196 18245 18219 18194 18177 18123 18103 18076 18090 18169 18277 18392 18443 18460 18460 18437 18411 18412 18435 18440 18395 18323 18288 18320 18384 18442 18440 18392 18379 18367 18392 18400 18390 18396 18461 18515 18507 18453 18414 18398 18378 18397 18403 18424 18430 18431 18417 18423 18486 18519 18512 18451 18403 18393 18381 18401 18405 18381 18410 18508 18585 18619 18633 18621 18596 18553 18521 18512 18499 18499 18496 18483 18533 18581 18607 18598 18575 18564 18563 18528 18476 18423 18460 18542 18607 18610 18625 18604 18576 18584 18582 18609 18636 18621 18543 18479 18425 18433 18448 18429 18373 18380 18387 18445 18466 18474 18492 18542 18582 18520 18451 18378 18334 18316 18330 18331 18332 18302 18272 18297 18364 18449 18476 18394 18299 18263 18287 18321 18343 18339 18334 18415 18501 18575 18609 18604 18595 18550 18476 18386 18351 18322 18297 18316 18439 18570 18660 18717 18733 18715 18716 18772 18778 18733 18700 18691 18760 18790 18796 18769 18769 18721 18733 18738 18750 18748 18711 18630 18568 18556 18593 18640 18667 18606 18581 18583 18621 18647 18639 18666 18763 18831 18854 18814 18754 18729 18731 18760 18792 18807 18800 18785 18773 18772 18751 18722 18637 18566 18513 18549 18596 18620 18594 18605 18702 18802 18844 18829 18813 18802 18746 18718 18687 18664 18652 18644 18682 18756 18766 18783 18768 18750 18732 18754 18732 18668 18641 18717 18788 18827 18827 18825 18805 18774 18778 18786 18805 18815 18769 18727 18696 18691 18671 18659 18615 18598 18608 18654 18680 18685 18728 18804 18857 18832 18743 18684 18612 18573 18568 18558 18555 18532 18492 18488 18550 18633 18663 18620 18511 18436 18451 18477 18483 18461 18472 18551 18628 18632 18636 18617 18592 18585 18562 18494 18424 18370 18321 18361 18413 18467 18500 18467 18452 18432 18449 18481 18441 18371 18343 18377 18424 18448 18484 18488 18464 18444 18455 18441 18439 18414 18367 18312 18318 18314 18294 18254 18210 18196 18212 18210 18209 18232 18323 18438 18505 18490 18393 18304 18275 18259 18268 18277 18309 18311 18259 18316 18399 18457 18478 18463 18387 18329 18314 18311 18284 18292 18388 18511 18606 18645 18640 18635 18611 18594 18574 18508 18469 18449 18426 18450 18494 18568 18593 18557 18537 18528 18528 18547 18523 18450 18354 18382 18442 18508 18530 18552 18546 18557 18586 18633 18680 18702 18697 18636 18575 18582 18594 18580 18543 18510 18490 18549 18575 18599 18580 18583 18627 18637 18573 18520 18478 18479 18478 18491 18516 18532 18521 18526 18500 18535 18547 18484 18416 18357 18310 18307 18309 18319 18291 18323 18403 18511 18551 18566 18546 18493 18420 18382 18357 18348 18331 18332 18372 18433 18487 18501 18475 18462 18448 18391 18330 18297 18260 18288 18375 18426 18450 18467 18455 18423 18395 18392 18403 18371 18298 18237 18214 18255 18324 18360 18347 18309 18273 18247 18269 18279 18289 18332 18360 18360 18341 18339 18315 18277 18241 18234 18218 18220 18204 18201 18211 18280 18310 18296 18280 18233 18210 18182 18200 18220 18196 18238 18304 18379 18401 18399 18381 18302 18244 18205 18183 18200 18212 18180 18152 18197 18271 18342 18381 18371 18311 18223 18203 18232 18230 18206 18276 18367 18423 18444 18483 18535 18511 18487 18496 18455 18417 18395 18351 18349 18329 18376 18419 18445 18422 18406 18387 18416 18460 18467 18450 18426 18469 18476 18443 18445 18436 18428 18431 18411 18422 18459 18479 18467 18421 18379 18377 18401 18430 18447 18432 18432 18439 18447 18453 18441 18463 18517 18525 18491 18470 18427 18413 18403 18413 18432 18452 18461 18453 18440 18458 18491 18545 18555 18526 18477 18450 18464 18479 18469 18455 18459 18449 18424 18418 18403 18400 18419 18402 18379 18361 18328 18288 18266 18260 18312 18356 18371 18350 18323 18293 18314 18377 18426 18396 18357 18378 18346 18322 18307 18264 18248 18233 18210 18228 18254 18257 18230 18186 18177 18164 18175 18205 18198 18197 18192 18246 18317 18353 18341 18363 18406 18419 18414 18404 18335 18254 18202 18152 18147 18196 18195 18153 18116 18132 18180 18229 18302 18305 18306 18287 18277 18283 18265 18250 18276 18309 18314 18322 18307 18289 18285 18278 18289 18315 18326 18254 18169 18132 18183 18232 18263 18272 18280 18330 18391 18504 18614 18716 18838 18984 19153 19256 19395 19522 19549 19844 20051 20317 20421 20521 20696 20862 20996 21088 21179 21308 21363 21438 21522 21586 21651 21685 21723 21758 21817 21876 21934 22005 22102 22155 22191 22280 22362 22444 22457 22450 22432 22458 22520 22543 22545 22572 22602 22615 22614 22644 22662 22632 22532 22411 22350 22363 22373 22388 22423 22429 22445 22479 22468 22506 22558 22592 22572 22539 22512 22517 22534 22556 22588 22643 22647 22697 22756 22778 22778 22815 22856 22897 22898 22844 22825 22789 22809 22817 22852 22878 22881 22883 22874 22909 22934 22978 23008 22966 22936 22891 22849 22774 22745 22701 22679 22689 22704 22761 22797 22816 22821 22792 22746 22704 22645 22588 22562 22574 22550 22577 22634 22675 22706 22717 22755 22745 22707 22639 22547 22492 22457 22447 22444 22436 22445 22445 22436 22485 22543 22549 22553 22557 22568 22548 22488 22450 22425 22396 22411 22443 22457 22442 22418 22381 22391 22397 22423 22447 22448 22376 22302 22265 22254 22253 22224 22218 22205 22208 22229 22260 22284 22282 22305 22318 22268 22147 22033 22000 22014 22063 22094 22106 22136 22148 22119 22119 22137 22138 22141 22127 22054 22026 22011 21982 21929 21918 21932 21995 22034 22026 21973 21958 21997 22027 22060 22055 21982 21938 21922 21864 21843 21856 21897 21911 21927 21952 21973 21981 22025 22061 22018 21977 21982 21887 21809 21761 21749 21778 21780 21804 21820 21823 21842 21834 21872 21852 21772 21700 21633 21623 21656 21673 21699 21675 21685 21673 21681 21666 21660 21644 21673 21633 21565 21541 21560 21593 21605 21602 21591 21616 21639 21636 21656 21650 21678 21666 21610 21535 21510 21490 21488 21485 21485 21454 21432 21434 21433 21426 21448 21455 21477 21444 21362 21307 21276 21259 21253 21278 21306 21301 21333 21359 21376 21444 21558 21686 21667 21605 21506 21465 21418 21415 21444 21493 21545 21558 21587 21621 21616 21610 21586 21592 21553 21464 21400 21379 21354 21324 21326 21322 21234 21132 21049 20973 20906 20836 20788 20753 20689 20586 20457 20352 20236 20173 20157 20140 20136 20111 20091 20067 20053 20059 20069 20105 20064 19941 19840 19768 19730 19696 19662 19603 19559 19536 19565 19590 19587 19575 19571 19584 19525 19464 19414 19367 19364 19378 19415 19474 19480 19456 19439 19453 19461 19467 19475 19449 19346 19268 19219 19183 19153 19125 19114 19143 19194 19236 19278 19325 19351 19358 19406 19432 19379 19311 19271 19236 19217 19212 19214 19204 19216 19234 19267 19288 19296 19290 19292 19234 19180 19140 19135 19144 19141 19146 19139 19166 19185 19194 19202 19206 19191 19189 19193 19139 19089 19041 19014 19016 19005 18988 18982 18959 18969 18998 19015 19028 19063 19076 19081 19077 19041 19013 18990 18963 18953 18924 18920 18916 18905 18921 18934 18966 18995 18974 18937 18870 18825 18775 18763 18771 18744 18736 18730 18757 18801 18837 18843 18868 18880 18884 18837 18759 18686 18640 18625 18609 18606 18615 18611 18594 18554 18563 18571 18595 18633 18654 18629 18574 18548 18554 18563 18537 18534 18528 18515 18506 18506 18522 18524 18533 18537 18533 18512 18462 18379 18324 18322 18332 18373 18421 18434 18449 18450 18511 18587 18632 18627 18616 18553 18497 18431 18393 18390 18391 18391 18369 18377 18388 18390 18359 18335 18317 18336 18301 18235 18187 18139 18100 18111 18177 18239 18288 18360 18417 18448 18462 18496 18517 18475 18397 18310 18272 18211 18176 18160 18175 18200 18215 18232 18221 18192 18208 18210 18244 18216 18161 18173 18239 18287 18306 18311 18309 18308 18317 18325 18310 18320 18276 18277 18253 18198 18165 18187 18173 18158 18150 18153 18204 18228 18231 18279 18329 18343 18317 18308 18250 18226 18208 18172 18177 18182 18170 18196 18202 18235 18265 18291 18278 18276 18265 18246 18254 18208 18201 18265 18328 18343 18348 18353 18371 18368 18393 18395 18426 18454 18452 18438 18402 18389 18382 18380 18363 18367 18386 18403 18441 18452 18465 18493 18509 18476 18478 18475 18456 18444 18446 18464 18504 18487 18498 18501 18503 18523 18511 18502 18515 18510 18513 18505 18499 18495 18477 18506 18524 18539 18532 18518 18520 18521 18528 18554 18570 18568 18524 18465 18443 18446 18436 18422 18388 18370 18349 18367 18387 18379 18380 18404 18461 18456 18438 18378 18326 18299 18323 18347 18361 18372 18355 18352 18357 18380 18418 18460 18467 18457 18408 18387 18388 18383 18372 18390 18408 18395 18394 18403 18425 18425 18420 18442 18455 18429 18375 18324 18299 18328 18349 18408 18430 18408 18395 18412 18453 18513 18571 18595 18629 18617 18579 18535 18524 18520 18536 18577 18616 18626 18624 18645 18634 18639 18660 18700 18682 18642 18586 18587 18615 18666 18705 18717 18749 18769 18767 18768 18777 18774 18802 18821 18814 18800 18751 18732 18733 18725 18744 18759 18761 18741 18742 18732 18771 18808 18840 18875 18892 18885 18857 18845 18855 18858 18854 18885 18915 18926 18935 18903 18893 18908 18918 18955 18914 18856 18831 18823 18856 18904 18936 18953 18974 18995 19016 19022 19029 19024 19040 19062 19018 18962 18897 18835 18799 18795 18789 18784 18768 18767 18776 18767 18795 18837 18861 18849 18814 18798 18772 18764 18776 18779 18758 18773 18772 18779 18763 18732 18732 18722 18744 18742 18716 18667 18615 18620 18602 18639 18652 18639 18657 18705 18755 18779 18774 18797 18778 18754 18685 18643 18624 18602 18613 18630 18640 18673 18704 18725 18765 18779 18813 18827 18884 18875 18824 18783 18784 18785 18806 18825 18821 18813 18815 18825 18844 18833 18812 18814 18832 18819 18770 18738 18717 18709 18683 18695 18759 18823 18879 18878 18878 18894 18928 18945 18957 18928 18874 18806 18790 18781 18762 18730 18735 18745 18793 18796 18791 18771 18777 18760 18769 18776 18762 18722 18699 18702 18713 18719 18730 18733 18711 18710 18736 18750 18757 18738 18735 18708 18675 18657 18643 18613 18591 18597 18618 18689 18712 18715 18756 18789 18834 18827 18847 18815 18745 18706 18651 18636 18592 18581 18580 18574 18600 18595 18604 18607 18604 18596 18637 18634 18574 18506 18485 18535 18581 18571 18553 18550 18553 18568 18579 18592 18587 18581 18594 18603 18572 18523 18503 18492 18511 18561 18598 18646 18651 18604 18597 18637 18684 18730 18738 18702 18652 18619 18612 18620 18604 18595 18596 18627 18622 18637 18652 18657 18676 18713 18752 18786 18767 18718 18666 18667 18702 18702 18699 18711 18742 18760 18788 18810 18843 18854 18838 18827 18814 18816 18823 18844 18841 18847 18873 18887 18926 18945 18953 18979 18993 18995 18958 18931 18898 18892 18888 18879 18862 18849 18829 18826 18820 18840 18870 18873 18894 18899 18884 18896 18889 18866 18878 18876 18892 18906 18903 18911 18917 18933 18950 18945 18924 18866 18804 18754 18732 18700 18663 18632 18605 18645 18708 18759 18775 18782 18790 18779 18747 18681 18615 18565 18558 18537 18528 18513 18489 18469 18460 18477 18491 18495 18500 18496 18460 18426 18435 18446 18431 18445 18457 18455 18437 18441 18438 18417 18432 18432 18443 18372 18273 18223 18258 18320 18350 18333 18315 18304 18323 18375 18443 18498 18518 18563 18542 18489 18407 18373 18324 18328 18320 18326 18330 18301 18297 18279 18318 18335 18362 18359 18288 18241 18221 18260 18303 18288 18328 18417 18490 18518 18526 18528 18531 18547 18560 18532 18438 18367 18344 18343 18371 18390 18427 18443 18434 18446 18481 18531 18616 18620 18599 18569 18537 18539 18549 18534 18534 18532 18529 18531 18529 18502 18500 18530 18564 18594 18568 18540 18509 18487 18475 18501 18529 18522 18478 18519 18551 18576 18563 18565 18547 18531 18470 18432 18399 18380 18367 18377 18404 18433 18465 18474 18485 18492 18515 18550 18581 18537 18463 18423 18461 18486 18472 18472 18444 18432 18421 18425 18420 18414 18392 18381 18356 18341 18306 18323 18307 18296 18309 18350 18387 18405 18391 18406 18435 18427 18404 18349 18266 18230 18205 18207 18189 18168 18153 18208 18252 18281 18280 18269 18262 18240 18207 18224 18211 18187 18187 18238 18326 18348 18357 18346 18329 18322 18340 18336 18287 18209 18154 18151 18170 18212 18236 18262 18265 18292 18307 18353 18395 18394 18350 18292 18272 18295 18282 18283 18271 18260 18242 18255 18280 18276 18264 18266 18278 18292 18247 18224 18221 18218 18212 18245 18314 18361 18341 18309 18330 18369 18416 18453 18418 18337 18284 18239 18244 18267 18245 18218 18213 18263 18305 18347 18375 18393 18401 18347 18317 18323 18285 18249 18286 18383 18477 18489 18484 18459 18451 18458 18489 18481 18419 18326 18276 18253 18273 18319 18375 18433 18465 18524 18590 18677 18759 18872 18949 18995 19059 19236 19434 19650 19835 19971 20063 20151 20246 20350 20440 20529 20616 20722 20789 20808 20839 20852 20923 20979 21061 21124 21171 21203 21244 21300 21330 21394 21446 21488 21521 21516 21477 21471 21459 21462 21490 21520 21545 21566 21594 21640 21667 21672 21708 21762 21762 21709 21653 21628 21629 21643 21692 21732 21759 21782 21808 21831 21849 21902 21952 21976 21914 21848 21828 21813 21809 21890 21944 21993 22033 22057 22103 22186 22283 22351 22396 22439 22442 22314 22212 22116 22067 22034 21997 21988 21961 21957 21951 21974 21997 22036 22092 22099 22091 22024 21909 21770 21657 21604 21546 21475 21382 21301 21257 21237 21242 21205 21148 21036 20925 20864 20816 20778 20675 20571 20487 20484 20525 20492 20450 20421 20439 20451 20435 20344 20202 20107 20056 20054 20026 19987 19997 20069 20145 20162 20245 20392 20517 20657 20723 20759 20722 20610 20508 20439 20397 20369 20354 20350 20334 20372 20406 20427 20428 20419 20419 20397 20444 20545 20726 20935 21214 21681 22028 22280 22421 22511 22574 22559 22499 22402 22273 22111 21856 21708 21580 21466 21355 21205 21124 21080 21089 21099 21107 21099 21115 21115 21078 21009 20979 20921 20867 20831 20822 20808 20811 20828 20860 20862 20928 20977 21019 20990 20932 20879 20792 20726 20631 20549 20476 20426 20389 20408 20440 20449 20493 20645 20789 20903 20940 20969 20969 20937 20937 20913 20825 20737 20634 20579 20559 20525 20509 20516 20517 20487 20385 20278 20198 20168 20127 20126 20160 20157 20134 20133 20097 20052 20016 20012 19993 19891 19739 19633 19587 19575 19564 19561 19563 19544 19507 19482 19515 19527 19521 19526 19549 19539 19471 19406 19356 19320 19272 19240 19220 19191 19148 19101 19068 19066 19096 19134 19162 19123 19028 18936 18893 18912 18909 18914 18919 18951 18994 19027 19029 19031 19032 19022 19018 18984 18908 18830 18783 18778 18803 18831 18868 18902 18913 18923 18940 18956 19000 19036 19024 18967 18891 18848 18847 18853 18843 18843 18862 18859 18872 18880 18879 18899 18899 18910 18936 18885 18815 18781 18792 18794 18795 18840 18851 18855 18884 18927 18950 18968 18967 18989 19019 18971 18915 18849 18799 18755 18766 18760 18789 18786 18790 18811 18820 18828 18856 18892 18873 18795 18723 18677 18658 18663 18663 18669 18652 18659 18680 18704 18767 18816 18920 19066 19379 19607 19527 19415 19303 19298 19296 19301 19211 19136 19093 19081 19173 19393 19552 19810 20142 20337 20376 20325 20236 20128 20045 20015 19925 19907 19801 19582 19650 19727 19779 19780 19767 19710 19639 19591 19593 19618 19630 19640 19648 19643 19631 19672 19731 19800 19859 19965 20010 19997 19977 19954 19939 19912 19862 19832 19784 19748 19739 19727 19741 19761 19792 19821 19763 19676 19617 19546 19512 19504 19506 19498 19532 19545 19565 19587 19615 19632 19648 19682 19690 19655 19610 19532 19479 19413 19405 19416 19367 19394 19361 19344 19372 19413 19476 19921 20640 21096 21287 21368 21482 21642 21742 21626 21550 21541 21420 21457 21573 21583 21632 21630 21553 21436 21370 21325 21282 21245 21265 21256 21264 21299 21354 21370 21433 21486 21551 21575 21507 21442 21376 21330 21303 21264 21242 21233 21224 21209 21203 21200 21191 21173 21176 21100 20998 20910 20847 20801 20755 20736 20715 20686 20683 20649 20671 20673 20677 20692 20709 20662 20599 20484 20444 20413 20411 20396 20410 20414 20426 20431 20439 20444 20479 20499 20515 20403 20294 20232 20178 20172 20142 20144 20138 20153 20133 20144 20156 20171 20184 20197 20161 20088 20012 19952 19936 19909 19936 19912 19894 19879 19870 19878 19877 19885 19893 19888 19783 19715 19650 19631 19628 19633 19660 19655 19647 19632 19627 19627 19616 19610 19580 19511 19436 19384 19363 19367 19380 19403 19421 19435 19423 19438 19450 19455 19454 19482 19465 19412 19358 19325 19291 19282 19272 19286 19294 19295 19302 19290 19302 19308 19320 19331 19333 19282 19203 19157 19126 19124 19131 19129 19119 19108 19100 19098 19102 19100 19091 19084 19091 19000 18942 18879 18829 18829 18830 18817 18821 18803 18814 18798 18804 18814 18814 18838 18809 18744 18677 18609 18576 18556 18563 18557 18556 18531 18551 18557 18559 18589 18585 18597 18628 18594 18531 18452 18421 18408 18403 18404 18420 18412 18417 18417 18430 18442 18459 18466 18471 18488 18456 18369 18312 18275 18253 18248 18244 18249 18226 18233 18227 18240 18251 18254 18289 18294 18307 18236 18167 18118 18096 18091 18096 18089 18094 18096 18095 18098 18107 18104 18119 18145 18168 18183 18163 18099 18049 18023 18021 18027 18044 18044 18066 18070 18096 18108 18124 18170 18197 18212 18243 18257 18213 18157 18120 18107 18126 18160 18165 18180 18171 18175 18167 18180 18191 18197 18216 18217 18249 18220 18147 18082 18057 18032 18059 18070 18091 18120 18147 18163 18176 18189 18213 18238 18255 18288 18274 18223 18150 18108 18093 18099 18112 18121 18130 18124 18133 18134 18124 18160 18158 18181 18204 18220 18172 18116 18054 18048 18036 18039 18055 18057 18070 18075 18101 18126 18152 18184 18224 18264 18290 18321 18289 18228 18179 18162 18131 18134 18149 18186 18191 18194 18206 18220 18232 18226 18240 18254 18212 18161 18112 18110 18115 18148 18181 18197 18215 18208 18219 18216 18221 18229 18249 18285 18315 18254 18203 18134 18106 18090 18117 18128 18136 18160 18179 18215 18240 18270 18313 18367 18402 18387 18329 18249 18172 18145 18130 18165 18202 18223 18216 18209 18215 18225 18245 18307 18401 18441 18434 18376 18297 18214 18177 18160 18144 18123 18115 18108 18120 18117 18111 18141 18191 18220 18191 18131 18096 18108 18140 18194 18357 18578 18686 18777 18826 18871 18897 18922 18940 18991 18987 18928 18842 18756 18700 18673 18646 18612 18568 18548 18585 18631 18665 18705 18711 18730 18738 18676 18601 18559 18551 18553 18549 18567 18584 18596 18590 18603 18608 18606 18620 18635 18645 18636 18570 18472 18402 18362 18330 18309 18307 18295 18282 18288 18289 18310 18325 18374 18423 18502 18544 18535 18478 18434 18406 18415 18432 18482 18520 18531 18545 18564 18610 18658 18711 18758 18860 18918 18904 18893 18903 18937 18982 18993 18967 18918 18845 18794 18739 18685 18642 18598 18607 18625 18634 18576 18498 18433 18408 18385 18371 18363 18343 18338 18328 18352 18378 18417 18479 18528 18564 18530 18469 18397 18334 18283 18250 18237 18224 18222 18236 18223 18196 18168 18179 18157 18156 18159 18073 17939 17844 17756 17733 17756 17760 17792 17816 17847 17859 17876 17877 17861 17845 17823 17804 17790 17685 17593 17544 17503 17463 17485 17564 17624 17676 17718 17775 17789 17780 17737 17731 17689 17622 17599 17655 17714 17779 17788 17800 17779 17800 17776 17751 17774 17793 17758 17730 17714 17638 17552 17525 17584 17604 17597 17640 17640 17607 17540 17467 17475 17498 17554 17599 17621 17631 17602 17517 17498 17473 17434 17427 17437 17498 17529 17494 17498 17524 17531 17513 17504 17495 17495 17476 17419 17419 17452 17493 17495 17491 17482 17439 17433 17454 17479 17514 17522 17558 17629 17680 17697 17689 17713 17693 17679 17673 17688 17668 17640 17612 17582 17561 17550 17528 17515 17482 17460 17425 17411 17411 17401 17378 17374 17360 17328 17313 17285 17271 17265 17263 17261 17232 17214 17164 17114 17060 17028 17036 17017 17025 17009 17001 16994 17000 16999 17003 16996 16986 16986 16970 16911 16861 16828 16799 16796 16787 16780 16785 16757 16756 16738 16732 16763 16815 16841 16851 16778 16694 16663 16645 16633 16626 16648 16666 16681 16679 16658 16645 16679 16699 16736 16732 16693 16654 16656 16659 16680 16691 16695 16694 16734 16778 16817 16840 16883 16917 16950 16985 16935 16842 16806 16822 16832 16846 16824 16778 16764 16808 16866 16898 16870 16822 16806 16802 16800 16777 16749 16765 16762 16744 16738 16749 16762 16763 16754 16745 16742 16755 16745 16746 16763 16729 16675 16665 16668 16677 16720 16741 16776 16804 16824 16839 16833 16840 16849 16840 16832 16815 16749 16712 16710 16705 16719 16720 16686 16671 16664 16658 16665 16694 16723 16734 16737 16719 16668 16603 16588 16601 16646 16726 16768 16766 16738 16732 16750 16774 16772 16767 16770 16755 16741 16718 16671 16667 16651 16646 16710 16742 16754 16740 16736 16732 16746 16749 16783 16807 16813 16792 16706 16681 16673 16690 16689 16677 16673 16695 16731 16764 16775 16779 16771 16785 16808 16838 16853 16823 16796 16803 16831 16833 16839 16844 16845 16852 16855 16870 16872 16881 16897 16915 16939 16943 16910 16861 16845 16843 16853 16857 16857 16861 16867 16862 16869 16854 16874 16894 16902 16905 16891 16849 16813 16789 16818 16844 16862 16880 16885 16895 16899 16915 16935 16966 16983 17010 17031 17023 17021 16975 16955 16966 16963 16968 16958 16956 16964 16987 17006 17027 17036 17035 17062 17085 17097 17124 17129 17070 17040 17023 17023 17036 17041 17044 17058 17049 17073 17059 17045 17052 17068 17106 17116 17105 17075 17059 17021 16976 16961 16990 17015 17035 17047 17061 17060 17062 17079 17087 17107 17135 17135 17133 17143 17143 17103 17053 17040 17056 17094 17119 17137 17108 17102 17102 17102 17123 17122 17133 17141 17131 17135 17131 17112 17038 17019 17040 17055 17070 17067 17042 17045 17049 17075 17078 17087 17092 17107 17135 17135 17152 17161 17138 17095 17077 17090 17088 17097 17090 17076 17088 17101 17118 17147 17140 17155 17164 17156 17185 17203 17199 17181 17111 17091 17086 17091 17102 17098 17098 17106 17096 17097 17111 17108 17105 17130 17142 17145 17149 17153 17111 17062 17053 17075 17092 17102 17112 17119 17112 17108 17113 17134 17167 17161 17160 17159 17159 17176 17160 17126 17107 17100 17091 17086 17089 17111 17112 17141 17148 17144 17147 17157 17172 17168 17189 17190 17188 17118 17082 17068 17079 17099 17091 17100 17101 17088 17121 17130 17131 17146 17151 17154 17156 17169 17193 17171 17101 17043 17050 17060 17067 17061 17073 17079 17071 17069 17064 17072 17082 17094 17125 17140 17128 17119 17128 17087 17033 17021 17051 17091 17099 17096 17089 17066 17056 17053 17073 17080 17072 17100 17106 17116 17139 17160 17135 17087 17052 17064 17082 17087 17093 17117 17114 17113 17119 17140 17145 17151 17162 17176 17185 17189 17193 17185 17125 17098 17110 17127 17131 17144 17159 17155 17147 17152 17164 17166 17166 17196 17215 17212 17223 17229 17226 17191 17149 17150 17167 17188 17195 17165 17128 17101 17132 17181 17214 17228 17243 17251 17233 17231 17238 17271 17279 17248 17207 17198 17215 17205 17203 17193 17165 17170 17175 17180 17168 17148 17168 17198 17222 17244 17242 17220 17200 17150 17112 17110 17123 17130 17144 17147 17142 17151 17206 17232 17264 17307 17314 17319 17323 17338 17348 17344 17309 17340 17375 17412 17444 17415 17386 17385 17377 17379 17374 17399 17419 17456 17465 17480 17483 17424 17374 17364 17379 17401 17419 17440 17464 17498 17505 17535 17543 17554 17561 17575 17583 17567 17546 17468 17404 17364 17343 17322 17312 17315 17319 17328 17336 17367 17381 17401 17402 17402 17392 17377 17307 17239 17187 17139 17160 17166 17197 17182 17153 17152 17161 17177 17192 17202 17227 17248 17234 17171 17101 17098 17113 17121 17116 17118 17097 17090 17094 17098 17118 17108 17113 17132 17138 17124 17059 16997 16982 16987 16989 16989 17006 17005 17008 17013 16999 17010 17018 17017 17010 17016 17021 16989 16929 16894 16898 16909 16933 16923 16932 16905 16913 16941 16949 16962 16960 16941 16946 16947 16965 16972 16937 16887 16857 16861 16877 16888 16916 16924 16923 16923 16939 16928 16936 16952 16959 16971 16963 16982 16985 16950 16887 16883 16900 16906 16921 16933 16934 16937 16948 16945 16964 16978 16984 16990 17002 17013 17019 17023 16977 16941 16948 16946 16972 16983 16980 16995 16990 16999 17019 17032 17049 17059 17079 17088 17092 17098 17091 17054 17022 17037 17032 17026 17034 17027 17021 17037 17058 17070 17059 17069 17082 17094 17102 17105 17108 17123 17123 17070 17029 17038 17034 17043 17041 17055 17051 17048 17064 17049 17066 17082 17087 17097 17093 17104 17107 17114 17128 17121 17055 17012 17015 17018 17023 17026 17025 17027 17016 17010 17036 17036 17035 17034 17060 17065 17061 17080 17079 17084 17060 16990 16968 16988 16998 17004 17011 17010 17009 17001 17027 17046 17049 17032 17025 17027 17039 17060 17076 17092 17096 17078 17030 16990 16983 16983 16985 16987 16977 16971 16983 16979 17001 17032 17029 17013 17025 17053 17068 17058 17061 17057 17007 16978 16955 16980 17005 17003 16983 16995 16986 17003 17012 17019 17035 17049 17051 17051 17063 17076 17089 17085 17044 17021 17029 17046 17036 17033 17045 17057 17070 17076 17093 17104 17106 17107 17124 17132 17145 17131 17136 17133 17107 17073 17080 17097 17103 17113 17111 17100 17107 17134 17138 17135 17144 17148 17159 17169 17155 17170 17178 17163 17111 17095 17079 17110 17106 17084 17083 17089 17087 17101 17107 17106 17114 17124 17123 17115 17122 17117 17116 17088 17053 17045 17040 17045 17053 17065 17070 17056 17071 17074 17086 17090 17096 17109 17127 17134 17149 17158 17114 17062 17056 17049 17056 17055 17057 17052 17052 17037 17052 17069 17045 17048 17038 17065 17056 17053 17063 17039 16976 16965 16983 16992 16964 16966 16958 16943 16943 16942 16944 16947 16949 16961 16955 16944 16935 16927 16938 16914 16877 16848 16879 16904 16949 16962 16957 16980 17011 17006 16959 16963 17009 17032 17012 16978 16952 16947 16972 16941 16924 16934 16947 16943 16933 16947 16969 16970 16974 16982 16959 16960 16975 17010 17039 17056 17051 17074 17045 16991 16976 16988 17008 17017 17034 17030 17033 17046 17046 17045 17046 17058 17059 17090 17093 17089 17089 17070 17036 17028 17053 17070 17097 17101 17098 17100 17108 17126 17142 17157 17155 17164 17167 17181 17189 17202 17186 17151 17117 17126 17129 17133 17135 17130 17125 17135 17125 17124 17135 17134 17144 17143 17150 17149 17150 17129 17078 17070 17071 17072 17088 17099 17090 17080 17092 17106 17104 17086 17102 17121 17115 17128 17115 17085 17021 17021 17021 17013 17001 17003 16990 16995 16974 16980 16971 16977 16985 16991 16993 16985 16989 16964 16891 16859 16853 16843 16836 16841 16829 16809 16818 16821 16830 16829 16837 16827 16853 16846 16850 16857 16809 16745 16745 16742 16738 16740 16742 16742 16724 16728 16737 16743 16748 16754 16768 16767 16763 16773 16786 16749 16713 16725 16726 16748 16740 16754 16750 16744 16746 16778 16779 16791 16808 16811 16834 16861 16860 16870 16833 16808 16813 16833 16822 16824 16829 16827 16825 16846 16854 16876 16873 16883 16886 16887 16900 16924 16928 16883 16854 16866 16867 16871 16891 16887 16905 16908 16907 16916 16922 16927 16931 16923 16932 16929 16944 16940 16909 16876 16877 16886 16903 16920 16930 16930 16907 16893 16899 16914 16926 16947 16997 17044 17037 17016 17003 16986 16978 16971 16968 17003 17019 17027 17022 17017 17019 17023 17038 17060 17064 17065 17077 17074 17029 17020 17030 17041 17044 17045 17052 17080 17097 17094 17084 17078 17090 17091 17074 17038 16965 16927 16916 16878 16828 16845 16922 16964 16972 16999 17045 17079 17069 17083 17085 17103 17070 16998 16918 16875 16872 16903 16865 16834 16804 16806 16782 16766 16769 16809 16845 16877 16879 16805 16733 16701 16804 16981 17130 17180 17198 17225 17271 17283 17277 17284 17301 17267 17244 17205 17155 17101 17052 17026 17046 17067 17122 17166 17200 17188 17139 17119 17107 17184 17301 17358 17397 17465 17496 17513 17523 17529 17515 17505 17514 17493 17495 17514 17519 17492 17478 17523 17563 17623 17626 17576 17555 17536 17636 17715 17759 17786 17783 17794 17762 17739 17733 17734 17738 17731 17744 17749 17750 17753 17742 17716 17706 17699 17731 17809 17865 17898 17903 17982 18060 18082 18061 18048 17988 17954 17908 17897 17898 17887 17856 17840 17833 17830 17844 17817 17799 17770 17764 17778 17816 17821 17815 17781 17806 17798 17775 17774 17753 17739 17713 17697 17709 17707 17711 17701 17682 17671 17652 17627 17586 17547 17525 17468 17462 17447 17449 17441 17432 17426 17402 17401 17382 17387 17379 17379 17378 17354 17365 17332 17291 17241 17201 17185 17173 17171 17167 17184 17213 17212 17221 17214 17223 17216 17212 17201 17225 17221 17225 17208 17174 17177 17174 17190 17201 17197 17209 17213 17226 17223 17234 17239 17259 17258 17270 17270 17263 17279 17284 17281 17241 17234 17220 17214 17210 17220 17224 17227 17219 17235 17229 17249 17247 17261 17262 17257 17259 17267 17262 17254 17255 17218 17202 17205 17197 17185 17187 17189 17186 17191 17201 17205 17245 17247 17247 17230 17231 17240 17253 17254 17262 17259 17230 17208 17219 17223 17224 17253 17245 17243 17252 17242 17241 17237 17237 17230 17224 17236 17245 17252 17259 17270 17280 17244 17216 17211 17210 17215 17217 17203 17205 17213 17216 17214 17191 17213 17244 17268 17282 17259 17262 17272 17275 17278 17231 17169 17145 17135 17154 17184 17178 17164 17179 17181 17174 17179 17176 17159 17156 17162 17159 17164 17155 17144 17142 17125 17102 17098 17071 17057 17061 17055 17042 17038 17040 17055 17074 17094 17101 17088 17103 17111 17103 17107 17111 17147 17088 17069 17078 17072 17087 17095 17093 17095 17075 17090 17071 17072 17058 17057 17074 17071 17071 17053 17062 17045 17020 16991 16974 16986 17001 16990 16975 16978 16970 16977 16973 16968 16963 16973 16998 17015 17022 17026 17036 17053 17045 17011 16989 16997 17009 17017 17028 17028 17046 17057 17061 17070 17090 17085 17082 17084 17068 17082 17089 17097 17086 17050 17034 17044 17049 17052 17076 17083 17076 17093 17082 17074 17081 17086 17086 17090 17089 17101 17111 17122 17128 17094 17043 17056 17079 17081 17081 17076 17087 17100 17083 17094 17089 17113 17124 17129 17136 17162 17178 17189 17186 17193 17164 17141 17149 17145 17160 17192 17183 17200 17197 17199 17201 17207 17218 17217 17206 17208 17207 17265 