1262 1263 1262 1260 1262 1268 1268 1265 1268 1261 1266 1265 1266 1270 1266 1272 1266 1264 1266 1268 28729 28817 28837 28862 28861 28850 28829 28800 28796 28783 28785 28792 28799 28787 28799 28792 28811 28811 28838 28846 28857 28871 28897 28870 28824 28809 28788 28785 28792 28789 28782 28791 28805 28807 28828 28839 28862 28864 28877 28912 28922 28895 28867 28830 28823 28812 28829 30429 30449 30453 30498 30501 30460 30371 30266 30242 30196 30183 30155 30129 30020 29914 29785 29687 29606 29542 29513 29469 29444 29446 29554 29783 30039 30184 29964 29870 29753 29581 29453 29378 29247 29190 29067 28972 28897 28864 28803 28776 28760 28736 28741 28730 28714 28703 28679 28612 28523 28441 28434 28427 28432 28430 28403 28371 28386 28371 28373 28364 28373 28355 28362 28269 28170 28094 28029 27995 27947 27938 27927 27930 27922 27922 27930 27930 27913 27947 28060 28216 28296 28331 28382 28464 28515 28546 28566 28587 28619 28649 28638 28710 28707 28751 28846 28909 28886 28895 28939 28985 29046 29058 29075 29073 29107 29133 29092 29137 29161 29153 29161 29130 29108 29088 29058 29053 29089 29129 29191 29235 29250 29300 29320 29339 29392 29403 29421 29413 29442 29463 29486 29539 29556 29606 29608 29624 29608 29604 29644 29677 29682 29654 29625 29573 29550 29511 29503 29507 29506 29465 29476 29503 29477 29497 29499 29519 29509 29491 29414 29461 29413 29425 29411 29453 29394 29461 29440 29398 29337 29319 29312 29331 29293 29243 29207 29193 29152 29144 29111 29133 29097 29105 29056 29108 29077 29110 29157 29206 29252 29230 29231 29205 29220 29217 29148 29311 29460 29619 29765 29736 29851 29866 29908 29719 29685 29623 29594 29627 29568 29553 29513 29500 29616 29575 29614 29587 29579 29642 29605 29745 29626 29708 29669 29640 29713 29657 29644 29593 29550 29559 29491 29545 29521 29548 29612 29510 29567 29510 29513 29497 29472 29566 29631 29829 29789 29684 29693 29724 29703 29728 29685 29635 29640 29605 29622 29586 29597 29538 29583 29590 29520 29476 29449 29499 29472 29448 29426 29381 29425 29386 29408 29426 29406 29510 29488 29478 29527 29499 29546 29547 29613 29553 29571 29522 29535 29504 29499 29564 29515 29526 29560 29521 29531 29529 29534 29555 29486 29521 29467 29473 29438 29475 29428 29540 29568 29511 29576 29606 29598 29684 29645 29635 29641 29604 29606 29559 29613 29593 29606 29625 29553 29660 29640 29679 29626 29659 29585 29609 29677 29636 29667 29662 29623 29681 29661 29684 29715 29688 29727 29675 29810 29670 29695 29713 29655 29691 29636 29696 29820 29645 29844 29817 29854 29809 29996 29790 29844 29944 29859 29914 29914 29834 29902 29918 29937 29922 30000 30013 30057 30091 30079 30085 30142 30065 30060 30092 30091 30042 30076 30086 30109 30119 30162 30142 30065 30216 30266 30161 30189 30144 30147 30131 30132 30314 30156 30477 30364 30323 30464 30488 30472 30457 30499 30416 30489 30481 30430 30430 30462 30518 30540 30518 30561 30520 30584 30578 30575 30604 30437 30478 30367 30437 30421 30360 30488 30407 30537 30487 30533 30518 30712 30552 30537 30622 30501 30604 30497 30533 30589 30647 30652 30628 30642 30498 30605 30428 30530 30255 30527 30352 30411 30344 30394 30364 30499 30426 30575 30447 30495 30374 30379 30268 30313 30176 30348 30141 30368 30127 30261 30198 30117 30289 30218 30204 30280 30246 30218 30357 30222 30299 30189 30199 30273 30163 30166 30277 30107 30349 30242 30326 30348 30347 30430 30353 30370 30285 30340 30280 30344 30239 30308 30288 30320 30251 30337 30289 30267 30346 30315 30369 30356 30310 30324 30228 30301 30235 30355 30309 30353 30447 30388 30636 30539 30702 30729 30718 30698 30684 30654 30641 30634 30597 30555 30511 30478 30480 30468 30423 30449 30512 30473 30462 30475 30371 30443 30356 30413 30341 30403 30323 30367 30283 30347 30282 30398 30347 30308 30370 30325 30347 30248 30286 30225 30328 30225 30282 30190 30226 30250 30232 30216 30251 30316 30182 30224 30107 30155 30140 30131 30100 30165 30125 30209 30178 30159 30191 30231 30200 30229 30189 30151 30054 30083 30066 30079 30032 29990 29996 30033 29941 29986 29945 30073 29998 29955 29933 29957 29828 29847 29894 29776 29890 29879 29814 29828 29914 29934 29885 29960 29883 29798 29896 29805 29806 29777 29711 29829 29742 29817 29744 29749 29724 29743 29723 29690 29693 29560 29622 29633 29516 29560 29636 29673 29750 29537 29744 29640 29644 29711 29592 29595 29527 29592 29554 29623 29730 29553 29809 29725 29818 29731 29844 29870 29728 29870 29686 29752 29857 29730 29828 29768 29919 29941 30033 30001 30092 30128 30055 30073 29971 30089 29935 29950 30027 29892 29832 30233 30067 30392 30310 30270 30254 30378 30155 30183 29949 30077 30125 30003 30115 29958 30078 29954 30134 29974 29976 30102 30038 30054 30049 29900 30008 29941 30042 30040 30080 29967 30038 30109 29988 30038 30095 29966 29969 29988 29843 29964 29887 29936 29875 29966 30061 29957 30128 30074 30134 30068 30112 30095 30052 30101 30016 30087 29998 30146 30066 29816 30156 30046 30141 30142 30186 30057 30222 30134 30229 29946 30250 29990 30346 30239 30302 30196 30178 30268 30111 30221 30124 29901 30275 30184 30254 30159 30183 30178 30200 30228 30236 30223 30188 30177 30153 30121 30135 30022 30216 30093 30119 30006 30207 30059 30149 30135 30131 30112 30029 30007 29944 29957 29966 29956 29914 29964 29937 29914 29958 29937 29955 29973 29952 29938 29920 29884 29895 29901 29912 29884 29930 29906 29900 29909 29908 29892 29951 29944 29885 29872 29837 29836 29790 29798 29770 29788 29757 29763 29789 29845 29815 29838 29804 29833 29722 29739 29771 29785 29778 29837 29810 29869 29865 29805 29906 29845 29926 29859 29902 29836 29862 29823 29781 29832 29829 29851 29856 29824 29899 29849 29891 29843 29827 29810 29795 29786 29819 29787 29835 29827 29861 29828 29849 29847 29906 29833 29850 29843 29777 29782 29749 29775 29754 29810 29757 29836 29792 29819 29818 29879 29835 29797 29812 29801 29773 29797 29792 29782 29839 29802 29856 29831 29894 29864 29864 29844 29797 29759 29799 29756 29783 29765 29759 29741 29763 29718 29768 29714 29743 29646 29648 29574 29524 29498 29379 29543 29321 29562 29160 29474 29362 29610 29643 29701 29623 29658 29579 29576 29735 29671 29698 29713 29681 29736 29694 29734 29772 29723 29760 29675 29605 29663 29610 29640 29630 29603 29649 29605 29663 29619 29729 29718 29707 29725 29686 29674 29649 29651 29601 29594 29625 29572 29631 29581 29589 29640 29553 29556 29460 29474 29437 29416 29453 29401 29408 29461 29354 29537 29400 29575 29537 29449 29543 29229 29616 29548 29435 29622 29558 29563 29619 29688 29565 29632 29660 29641 29699 29655 29628 29637 29582 29601 29609 29601 29639 29635 29662 29686 29720 29714 29737 29721 29704 29658 29687 29623 29669 29652 29684 29624 29669 29657 29644 29692 29647 29695 29687 29623 29660 29568 29589 29594 29578 29612 29637 29616 29649 29630 29671 29701 29699 29648 29636 29602 29606 29594 29625 29589 29644 29647 29656 29623 29660 29642 29656 29683 29645 29655 29617 29654 29613 29649 29623 29628 29641 29628 29674 29706 29731 29690 29718 29648 29656 29651 29623 29679 29689 29743 29726 29757 29775 29833 29797 29866 29876 29904 29952 29892 29893 29924 29920 29988 29960 30031 30034 30037 30090 30063 30114 30149 30126 30174 30142 30153 30175 30180 30236 30222 30233 30267 30256 30289 30279 30292 30313 30315 30378 30390 30261 30342 30462 30396 30407 30434 30392 30451 30391 30445 30383 30471 30389 30418 30321 30337 30466 30369 30362 30435 30451 30420 30399 30470 30458 30437 30493 30450 30451 30398 30421 30435 30409 30416 30352 30393 30382 30388 30364 30358 30383 30374 30298 30319 30278 30268 30265 30266 30273 30242 30307 30264 30328 30337 30324 30338 30290 30241 30232 30209 30186 30156 30158 30164 30166 30156 30160 30202 30230 30249 30187 30164 30086 29989 29944 29899 29850 29786 29831 29757 29738 29764 29679 29743 29742 29707 29685 29686 29668 29622 29658 29680 29735 29795 29799 29807 29852 29952 30035 30042 30021 29988 30007 29964 29904 29863 29887 29883 29889 29869 29897 29893 29923 29926 29939 29905 29905 29904 29908 29970 29902 29969 30013 29962 29961 30002 30066 30066 30046 29993 30026 30049 30055 30075 30089 30141 30178 30132 30133 30131 30151 30125 30046 30092 30042 30090 30053 30013 30107 30052 30053 30060 30044 30103 30103 30092 30134 30058 30041 30031 29985 29974 29914 29975 29953 29952 29883 29845 29859 29846 29873 29977 30059 30160 30148 30187 30233 30209 30226 30234 30247 30273 30343 30362 30392 30546 30466 30405 30339 30297 30221 30268 30242 30265 30322 30360 30351 30406 30451 30498 30553 30562 30684 30610 30703 30622 30703 30752 30703 30792 30758 30758 30818 30809 30873 30829 30900 30954 30940 30987 30930 30968 30989 31012 31116 31072 31120 31111 31182 31147 31282 31263 31354 31291 31322 31322 31433 31301 31011 31453 31215 31502 31459 31463 31485 31483 31501 31561 31381 31616 31457 31483 31525 31465 31478 31531 31329 31498 31460 31531 31538 31497 31549 31509 31493 31513 31373 31562 31382 31497 31444 31428 31439 31426 31403 31398 31416 31408 31409 31383 31429 31343 31387 31359 31372 31344 31300 31313 31278 31266 31223 31225 31169 31181 31143 31138 31074 31023 30964 30948 30910 30864 30887 30810 30853 30851 30741 30852 30743 30795 30761 30693 30605 30585 30514 30499 30429 30410 30374 30370 30355 30335 30288 30263 30286 30251 30259 30196 30198 30149 30122 30050 30014 30020 30019 30012 30018 30026 30066 30107 30130 30142 30153 30100 30057 30047 30044 30040 30035 30036 30022 30027 29978 30011 30022 29996 30045 29989 29988 29968 29947 29913 29911 29915 29884 29932 29899 29926 29932 29951 29981 29972 30044 30023 29955 29929 29934 29973 29975 29974 29993 30006 30025 30037 30018 29999 29984 29937 29890 29846 29800 29823 29758 29786 29893 29878 29844 29939 30049 30187 30243 30250 30225 30182 30128 30093 30093 30029 29987 29956 29932 29924 29886 29887 29900 29911 29918 29887 29866 29878 29889 29893 29889 29828 29817 29786 29730 29711 29765 29826 29798 29715 29639 29676 29684 29735 29690 29732 29815 29952 30114 30263 30383 30536 30698 30842 30927 30877 30865 30832 30839 30838 30884 30885 30877 30865 30948 31018 31006 31022 30943 30878 30847 30833 30837 30883 30880 30832 30827 30882 30928 30943 30935 30873 30706 30505 30465 30516 30485 30471 30484 30557 30525 30627 30564 30605 30567 30491 30400 30297 30241 30193 30145 30129 30124 30105 30095 30070 30057 30037 29991 29965 29882 29844 29780 29756 29722 29717 29697 29668 29660 29626 29605 29565 29453 29344 29220 29129 29055 29007 28971 28917 28878 28839 28808 28791 28767 28716 28622 28539 28459 28420 28400 28404 28406 28430 28525 28601 28667 28724 28815 28822 28821 28815 28841 28779 28643 28583 28493 28478 28646 28806 28996 29176 29319 29431 29557 29663 29690 29781 29823 29842 29886 29900 29920 29953 29937 29932 29945 29914 29881 29895 29888 29859 29782 29796 29784 29742 29668 29578 29476 29386 29185 29068 28927 28847 28786 28731 28668 28641 28622 28574 28544 28542 28538 28639 28757 28866 29010 29061 29092 29251 29578 29851 30026 30204 30350 30325 30409 30469 30481 30429 30515 30545 30540 30509 30439 30365 30290 30177 30086 29900 29901 29794 29703 29659 29575 29541 29479 29422 29366 29345 29290 29278 29252 29218 29186 29160 29112 29028 28934 28878 28811 28769 28742 28725 28739 28717 28718 28705 28673 28637 28558 28446 28357 28283 28239 28167 28103 28038 28027 27993 27973 27944 27973 27973 27871 27782 27699 27607 27547 27508 27486 27424 27352 27265 27182 27103 27049 26955 26827 26681 26538 26417 26319 26238 26171 26105 26047 25997 25941 25892 25868 25864 25826 25741 25678 25657 25657 25652 25703 25715 25754 25793 25814 25839 25859 25877 25849 25844 25839 25826 25843 25835 25850 25829 25818 25731 25585 25704 25787 25892 25821 25809 25770 25808 25840 25928 25990 26084 26198 26454 26486 26597 26672 26782 26837 26940 26997 27038 27039 27075 27120 27179 27209 27251 27315 27395 27463 27513 27619 27678 27783 28051 28367 28749 29112 29430 29695 29870 29945 29987 30025 30089 30145 30207 30184 30146 30067 29933 29840 29804 29795 29771 29750 29729 29704 29700 29721 29763 29810 29893 30045 30215 30250 30206 30149 30088 30000 29913 29845 29800 29757 29756 29772 29812 29831 29863 29864 29868 29888 29949 30030 30124 30171 30238 30328 30451 30510 30600 30696 30722 30737 30700 30661 30647 30666 30667 30711 30766 30791 30813 30807 30832 30868 30906 30965 31009 31049 31111 31136 31197 31237 31286 31298 31307 31215 31227 31220 31214 31157 31149 31077 31074 31038 30994 30932 30863 30744 30522 30245 30045 29807 29615 29358 29205 29101 28941 28803 28704 28574 28456 28342 28241 28184 28208 28227 28217 28146 27998 27798 27625 27520 27365 27311 27188 27154 27071 26984 26922 26816 26816 26759 26706 26604 26453 26288 26181 26111 26080 26052 26050 26054 26047 26079 26150 26217 26261 26228 26199 26126 26027 25941 25964 25945 25917 25925 25898 25899 25877 25842 25820 25798 25745 25645 25574 25506 25478 25464 25420 25395 25363 25309 25267 25292 25311 25318 25318 25268 25216 25228 25292 25401 25547 25647 25732 25758 25799 25762 25700 25680 25639 25635 25616 25642 25794 25937 26085 26126 26182 26225 26297 26322 26368 26390 26419 26435 26457 26467 26497 26528 26563 26584 26613 26646 26689 26687 26707 26714 26698 26703 26702 26687 26701 26758 26887 26950 27037 27099 27142 27144 27166 27162 27121 27084 27039 26996 26968 26931 26938 27002 27129 27278 27331 27345 27362 27401 27409 27426 27483 27476 27485 27469 27467 27486 27520 27579 27652 27685 27694 27724 27733 27730 27731 27715 27683 27655 27625 27625 27646 27702 27780 27879 27944 28040 28154 28252 28373 28477 28473 28405 28334 28276 28302 28335 28420 28505 28602 28706 28802 28846 28905 28917 28937 28941 28936 28953 28988 29054 29144 29238 29255 29310 29350 29316 29313 29289 29293 29309 29331 29324 29289 29250 29232 29200 29172 29147 29113 29063 29030 29040 29012 28982 28943 28893 28852 28827 28808 28810 28848 28854 28868 28891 28884 28868 28854 28843 28822 28754 28667 28623 28558 28532 28488 28479 28450 28399 28373 28331 28318 28301 28299 28296 28246 28210 28183 28170 28190 28234 28284 28303 28287 28282 28286 28313 28301 28286 28232 28201 28167 28147 28147 28121 28081 28138 28163 28220 28246 28260 28249 28270 28238 28238 28249 28201 28225 28191 28200 28162 28108 28099 28038 27965 27959 27909 27909 27799 27887 27911 27949 27984 27991 28012 27990 28000 27965 27966 28012 28033 28088 28118 28146 28188 28201 28203 28182 28141 28095 28072 28061 28075 28079 28133 28139 28127 28083 28027 28027 27998 27985 27999 28006 28050 28086 28128 28192 28195 28182 28137 28105 28103 28096 28070 28053 28034 27984 27977 27990 27968 27954 27947 27893 27834 27820 27799 27795 27781 27765 27771 27752 27780 27789 27790 27773 27815 27798 27815 27825 27850 27862 27855 27870 27882 27894 27929 27974 28008 28002 28046 28089 28099 28122 28113 28097 28066 28062 28031 28014 27991 27962 27957 27962 27983 28006 27993 28040 28025 28060 28073 28069 28077 28083 28091 28144 28190 28251 28348 28404 28469 28480 28473 28465 28478 28451 28460 28469 28495 28531 28556 28578 28613 28629 28659 28673 28688 28705 28730 28731 28786 28810 28812 28846 28852 28873 28901 28913 28954 28966 28962 28951 28974 28967 28968 28958 28968 28964 28933 28920 28916 28920 28918 28903 28896 28887 28851 28823 28805 28795 28778 28777 28760 28769 28777 28787 28808 28829 28839 28871 28887 28918 28935 28946 28952 28965 28978 29005 29045 29062 29084 29132 29170 29199 29187 29181 29127 29100 29039 29006 28993 28967 28960 28966 28962 28969 28974 28962 28969 28938 28931 28897 28862 28835 28808 28773 28765 28732 28726 28723 28700 28679 28674 28678 28660 28662 28649 28636 28595 28542 28524 28495 28507 28494 28490 28507 28524 28534 28562 28586 28603 28600 28588 28579 28562 28569 28579 28586 28605 28636 28684 28715 28754 28800 28840 28854 28895 28870 28857 28853 28847 28839 28852 28827 28831 28831 28814 28796 28800 28797 28785 28750 28725 28692 28677 28644 28642 28643 28652 28649 28651 28666 28642 28649 28649 28655 28646 28620 28616 28597 28585 28594 28573 28559 28534 28512 28479 28484 28474 28468 28456 28456 28465 28450 28407 28390 28386 28364 28366 28362 28379 28373 28405 28403 28430 28441 28460 28479 28499 28502 28490 28471 28461 28450 28452 28475 28475 28464 28476 28493 28517 28527 28557 28558 28521 28524 28534 28562 28628 28663 28700 28723 28724 28772 28744 28725 28688 28643 28601 28544 28532 28513 28484 28481 28465 28404 28387 28316 28279 28263 28242 28249 28274 28340 28382 28472 28555 28625 28642 28756 28857 28945 29004 29064 29126 29027 29085 29141 29153 29244 29389 29420 29412 29390 29339 29311 29196 29144 29055 28996 28903 28833 28772 28739 28705 28647 28545 28414 28316 28242 28198 28142 28113 28133 28156 28185 28175 28146 28057 28023 28052 28116 28101 27964 27895 27858 27846 27862 27882 27836 27818 27794 27790 27818 27879 27989 28111 28181 28199 28223 28207 28209 28238 28307 28381 28471 28510 28519 28589 28620 28641 28665 28642 28597 28577 28532 28519 28492 28488 28512 28547 28591 28622 28660 28696 28709 28736 28651 28567 28581 28581 28578 28580 28614 28649 28697 28734 28754 28753 28703 28671 28634 28553 28507 28484 28481 28490 28480 28485 28506 28475 28500 28472 28491 28540 28558 28540 28547 28534 28530 28559 28567 28545 28578 28561 28568 28597 28608 28650 28698 28620 28551 28470 28406 28334 28326 28282 28296 28331 28356 28431 28469 28497 28482 28387 28351 28455 28489 28476 28437 28444 28494 28532 28549 28598 28615 28676 28676 28693 28589 28575 28580 28601 28674 28762 28757 28696 28690 28714 28713 28720 28723 28745 28698 28630 28587 28573 28519 28531 28554 28601 28585 28607 28635 28703 28719 28756 28688 28543 28388 28335 28309 28288 28288 28292 28310 28252 28202 28153 28114 28062 27951 27858 27717 27630 27601 27580 27582 27578 27562 27521 27468 27367 27332 27304 27180 27118 27091 27063 27095 27121 27195 27297 27373 27417 27464 27474 27508 27471 27432 27435 27457 27399 27355 27303 27330 27345 27310 27310 27340 27392 27455 27514 27512 27497 27479 27501 27517 27550 27590 27593 27638 27716 27765 27803 27709 27533 27470 27447 27436 27460 27519 27581 27657 27697 27748 27767 27783 27841 27780 27761 27751 27782 27824 27891 27961 27999 28028 28000 28032 28060 28100 28113 28080 28087 28110 28178 28142 28088 28096 28117 28144 28150 28170 28178 28160 28111 28066 28068 28072 28027 27991 28008 28015 28034 28037 28062 28097 28092 28027 27948 27846 27806 27773 27765 27801 27801 27823 27829 27866 27909 27933 27830 27773 27673 27637 27641 27637 27647 27681 27728 27775 27818 27842 27881 27822 27730 27709 27686 27686 27758 27845 27944 28077 28210 28242 28210 28210 28220 28182 28108 28094 28063 28037 28062 28040 28065 28078 28051 28082 28080 28035 28003 27998 27998 28015 28048 28091 28088 28061 28080 28110 28131 28155 28167 28134 28098 28108 28083 28109 28123 28155 28194 28194 28183 28227 28253 28236 28215 28191 28208 28200 28168 28169 28170 28211 28235 28283 28309 28317 28335 28277 28215 28157 28157 28184 28204 28249 28296 28340 28398 28426 28430 28335 28157 28059 28099 28112 28171 28236 28298 28344 28374 28437 28504 28514 28470 28403 28317 28344 28367 28398 28468 28496 28530 28556 28554 28551 28573 28527 28465 28427 28413 28420 28445 28457 28510 28536 28511 28420 28427 28420 28339 28247 28210 28192 28190 28244 28273 28322 28306 28302 28279 28296 28304 28295 28280 28257 28236 28242 28231 28214 28055 27917 27916 27952 27983 28024 28072 28080 28118 28104 28128 28133 28118 28138 28141 28171 28174 28210 28197 28186 28182 28139 28148 28159 28178 28140 28075 28043 27984 27938 27877 27858 27827 27847 27863 27910 27935 27975 28005 28026 28029 28026 27989 28000 27976 27962 27941 27941 27979 28000 28041 27994 28066 28002 28008 27952 27885 27761 27644 27535 27433 27369 27294 27227 27168 27084 27084 26986 27011 26892 26822 26687 26585 26511 26477 26511 26510 26557 26658 26755 26864 26996 26863 26591 26688 26779 27272 28191 28398 28736 28699 28455 28573 28217 28209 28221 28144 28003 27902 27861 27823 27786 27742 27741 27705 27635 27547 27474 27434 27406 27364 27384 27414 27432 27486 27528 27559 27515 27466 27396 27352 27356 27325 27329 27351 27367 27389 27398 27396 27328 27281 27159 27193 27176 27205 27283 27368 27394 27447 27496 27532 27558 27534 27546 27531 27510 27510 27527 27541 27540 27578 27582 27602 27633 27661 27640 27630 27607 27573 27595 27607 27621 27657 27729 27769 27693 27598 27620 27691 27842 27984 28096 28178 28259 28316 28374 28455 28503 28511 28527 28489 28503 28427 28463 28470 28444 28450 28445 28439 28475 28513 28454 28472 28412 28378 28389 28395 28451 28462 28444 28467 28484 28455 28461 28406 28399 28353 28377 28334 28271 28294 28283 28330 28337 28407 28359 28348 28273 28218 28245 28219 28299 28287 28319 28355 28401 28398 28462 28405 28344 28293 28292 28251 28259 28242 28300 28215 28215 28189 28193 28071 28005 27929 27841 27770 27701 27705 27611 27566 27548 27573 27599 27595 27464 27402 27282 27194 27146 27094 27087 27026 26979 26952 26936 26951 26959 26947 26910 26869 26866 26815 26868 26867 26928 26953 26994 27024 27060 27061 27018 26975 26970 26973 26988 27005 27012 27056 27045 27059 27095 27084 27066 27006 26960 26959 26919 26955 26933 26941 26938 26970 26955 26980 27024 26970 26947 26899 26913 26874 26896 26878 26885 26877 26892 26888 26892 26867 26833 26804 26800 26810 26837 26849 26917 26916 26956 26957 26976 26995 27000 26951 27007 27006 26970 26983 27014 26985 27012 27032 27064 27095 27093 27079 27059 27051 27038 27049 27062 27067 27117 27117 27153 27168 27187 27183 27181 27182 27184 27201 27227 27274 27274 27308 27276 27310 27331 27337 27350 27300 27310 27286 27337 27351 27402 27430 27433 27463 27445 27445 27448 27408 27389 27292 27352 27351 27399 27427 27433 27456 27468 27475 27520 27477 27429 27516 27446 27478 27475 27504 27512 27548 27557 27596 27652 27702 27669 27730 27678 27714 27715 27693 27757 27824 27943 27962 28011 28027 28076 28050 28057 28047 28076 28168 28314 28397 28420 28422 28480 28555 28614 28621 28613 28638 28670 28704 28687 28775 28759 28664 28552 28679 28758 28840 28768 28745 28717 28731 28686 28653 28618 28592 28607 28585 28600 28556 28524 28487 28341 28285 28231 28287 28378 28405 28420 28440 28464 28481 28512 28501 28417 28384 28296 28317 28290 28335 28248 28330 28284 28297 28291 28284 28248 28155 28143 28101 28095 28119 28044 28076 28049 28047 28028 27993 27986 27896 27830 27748 27721 27690 27653 27657 27751 27779 27842 27804 27808 27843 27806 27896 27970 27895 28046 28177 28297 28415 28480 28528 28587 28580 28533 28498 28487 28459 28479 28498 28494 28520 28604 28612 28665 28663 28615 28583 28571 28493 28508 28542 28602 28651 28660 28659 28671 28681 28651 28610 28531 28537 28559 28585 28635 28686 28612 28452 28418 28479 28620 28672 28630 28496 28534 28609 28673 28665 28680 28718 28708 28722 28779 28858 28894 28841 28898 28920 28952 28859 28962 28805 28925 28766 28929 28669 28837 28810 28722 28870 28801 28820 28780 28841 28819 28811 28850 28847 28783 28808 28708 28710 28655 28645 28642 28672 28639 28644 28733 28720 28774 28743 28682 28680 28687 28645 28704 28679 28715 28680 28759 28684 28687 28656 28639 28673 28609 28575 28535 28543 28578 28633 28666 28710 28716 28715 28718 28705 28684 28655 28650 28643 28646 28654 28680 28709 28721 28750 28742 28666 28717 28746 28831 28843 28789 28741 28611 28716 28786 28890 28876 28828 28762 28737 28782 28718 28733 28701 28631 28634 28612 28679 28707 28727 28755 28788 28902 28904 28800 28912 28921 28900 28961 29034 29025 29039 29026 28965 29033 29053 29031 29078 29108 29140 29151 29177 29208 29219 29236 29181 29142 29206 29153 29117 29167 29183 29408 29468 29465 29411 29315 29194 29116 29050 29057 29080 29084 29121 29174 29308 29485 29552 29717 29702 29594 29431 29398 29397 29404 29422 29381 29319 29291 29273 29234 29198 29127 29080 29010 29033 29062 29029 29022 29100 29073 29066 29079 29090 29080 28987 29000 28987 29012 29003 28929 29050 29074 29058 29012 28989 28860 28774 28717 28609 28511 28508 28542 28587 28614 28651 28684 28724 28683 28652 28582 28571 28558 28592 28625 28623 28681 28665 28679 28687 28665 28632 28575 28581 28547 28534 28571 28598 28694 28804 28898 28953 28985 28974 28989 28983 29011 29065 29151 29234 29344 29378 29393 29413 29423 29445 29384 29362 29351 29344 29363 29391 29424 29463 29485 29515 29550 29606 29621 29626 29635 29612 29652 29646 29635 29718 29781 29818 29641 29693 29673 29625 29657 29610 29561 29565 29551 29567 29547 29516 29526 29552 29577 29563 29528 29530 29517 29540 29527 29553 29572 29579 29646 29718 29698 29666 29633 29569 29507 29505 29529 29545 29548 29571 29575 29584 29596 29490 29572 29477 29401 29396 29349 29351 29342 29368 29387 29386 29422 29398 29395 29315 29334 29306 29290 29244 29246 29287 29256 29272 29309 29322 29277 29213 29199 29109 29066 29107 29009 29059 29028 29025 29063 29088 29120 29058 29032 28982 28968 28940 28980 28963 28949 28950 28945 29037 29132 29153 29267 29314 29348 29329 29318 29242 29238 29218 29198 29205 29197 29190 29174 29174 29143 29143 29199 29204 29225 29233 29251 29208 29266 29209 29184 29082 29037 29023 28974 29001 28991 29013 28999 28988 29019 29019 29007 28957 28922 28932 28912 28947 28980 28907 29032 28969 28990 28931 28982 28882 28888 28857 28815 28803 28864 28850 28909 28865 28916 28946 28907 28872 28906 28841 28875 28892 28918 28915 28917 28957 28964 29038 28865 29030 28945 28907 28825 28893 28817 28893 28887 28902 28865 28963 28979 28973 28961 28941 28906 28910 28950 28969 28969 29033 29062 29007 29122 29058 29032 28924 28962 28858 28843 28817 28837 28806 28801 28831 28857 28899 28938 28850 28920 28830 28906 28833 28866 28905 28915 28906 28963 28903 28944 28922 28841 28825 28764 28758 28779 28784 28870 28934 28977 28998 29017 28995 28883 28883 28895 28874 28889 28843 28928 29014 28942 29025 28931 28960 28893 28894 28928 28837 29024 28914 28956 28963 28987 28955 28971 28989 28913 28856 28976 28911 28880 28938 28928 28959 28972 29006 29021 28990 29056 28998 28979 28977 28994 28942 29001 28973 28967 28967 28971 28904 28912 28840 28854 28793 28828 28854 28860 28881 28862 28897 28826 28807 28768 28747 28704 28756 28743 28783 28837 28905 28912 28899 28874 28858 28766 28749 28733 28634 28735 28730 28622 28710 28727 28755 28807 28729 28751 28705 28659 28670 28661 28659 28714 28723 28691 28683 28686 28666 28756 28514 28428 28498 28415 28524 28442 28485 28457 28511 28478 28473 28421 28365 28286 28249 28220 28165 28137 28102 28050 28042 28034 27970 27884 27808 27746 27749 27737 27802 27795 27828 27837 27794 27901 27868 27863 27789 27750 27729 27723 27755 27718 27706 27727 27722 27679 27739 27728 27679 27666 27645 27602 27693 27668 27703 27719 27700 27831 27831 27828 27859 27838 27841 27796 27831 27866 27844 27905 27826 27907 27901 27874 27836 27801 27955 27803 27850 27880 27872 27985 27914 28039 27989 27972 27976 27885 27813 27773 27777 27696 27725 27693 27666 27770 27731 27730 27782 27698 27785 27716 27892 27812 27953 27929 27975 27963 27974 27965 27942 27933 27982 27912 27947 27923 27868 27905 27918 27882 27979 27816 27929 27882 27820 27904 27836 28010 28008 28067 28119 28061 28209 28063 28169 28124 28101 28173 28165 28193 28247 28266 28272 28296 28236 28220 28136 28122 28092 28109 28105 28077 28143 28117 28135 28128 28055 28028 27952 28002 27976 28038 27998 28061 27981 28136 28084 28130 28122 28083 28078 28062 28076 28101 28084 28093 28049 28066 28097 28058 28072 28001 27967 28002 27964 28029 28034 28053 28100 28126 28230 28232 28282 28287 28358 28434 28507 28554 28575 28622 28682 28642 28667 28691 28673 28656 28654 28702 28773 28738 28851 28801 28849 28853 28854 28806 28754 28691 28627 28650 28669 28685 28780 28749 28812 28843 28876 28821 28890 28840 28900 28794 28943 28888 28888 28998 29007 29022 29073 28977 28986 28934 28915 28945 28888 28965 28976 28945 28991 28944 28921 28850 28788 28733 28736 28732 28731 28745 28732 28717 28727 28761 28646 28581 28532 28461 28482 28474 28467 28472 28411 28423 28419 28385 28331 28217 28173 28054 27955 28059 28127 28235 28395 28359 28478 28483 28483 28498 28447 28522 28528 28576 28600 28604 28623 28647 28645 28697 28606 28580 28533 28523 28567 28548 28596 28533 28569 28553 28528 28594 28418 28413 28421 28408 28453 28426 28461 28446 28450 28482 28465 28460 28311 28276 28225 28226 28254 28255 28296 28279 28265 28271 28263 28260 28143 28141 28100 28128 28234 28257 28306 28297 28250 28278 28214 28262 28145 28188 28122 28127 28109 28127 28061 28118 28113 28088 28143 28090 28006 28011 27965 27930 27939 27914 27879 27882 27864 27873 27871 27813 27741 27669 27674 27615 27589 27577 27547 27524 27495 27439 27443 27380 27292 27205 27173 27132 27100 27078 27056 27035 27032 26999 27023 27011 26944 26864 26840 26792 26789 26791 26787 26788 26769 26765 26774 26853 26812 26764 26715 26672 26752 26723 26774 26762 26823 26752 26791 26789 26753 26689 26645 26652 26663 26621 26730 26695 26733 26748 26727 26708 26696 26632 26569 26517 26490 26444 26450 26382 26384 26391 26395 26392 26370 26296 26264 26195 26195 26203 26180 26205 26218 26188 26192 26117 25960 25815 25733 25802 25912 26008 26062 26099 26135 26117 26178 26178 26192 26214 26184 26181 26213 26211 26283 26313 26346 26368 26371 26399 26427 26395 26394 26363 26346 26327 26352 26335 26345 26337 26335 26325 26357 26315 26357 26278 26321 26301 26390 26406 26482 26534 26582 26604 26653 26663 26620 26693 26577 26631 26620 26628 26629 26651 26620 26643 26672 26655 26629 26609 26538 26546 26603 26514 26744 26821 26845 26920 26916 26960 26941 26889 26927 26861 26891 26893 26896 26915 26916 26915 26915 26899 26923 26841 26847 26801 26802 26827 26797 26796 26779 26781 26779 26779 26729 26676 26668 26600 26599 26581 26595 26537 26668 26583 26763 26746 26818 26749 26815 26774 26841 26792 26839 26896 26863 26914 26916 26878 26944 26864 26842 26794 26775 26754 26734 26716 26774 26729 26731 26744 26739 26769 26710 26722 26711 26742 26753 26864 26762 27085 27024 27194 27227 27136 27191 27166 27081 27147 27130 27155 27170 27172 27180 27199 27246 27262 27214 27174 27101 27240 27178 27295 27267 27308 27288 27315 27392 27329 27305 27316 27282 27175 27283 27303 27231 27354 27296 27337 27341 27313 27293 27219 27219 27096 27296 27281 27301 27309 27344 27320 27344 27376 27355 27314 27328 27208 27508 27354 27537 27499 27586 27618 27639 27672 27655 27633 27602 27571 27653 27682 27661 27766 27725 27795 27797 27799 27801 27818 27784 27669 27773 27682 27748 27721 27760 27757 27783 27773 27774 27718 27684 27452 27328 27147 27103 27115 27092 27108 27107 27172 27123 27120 27130 27045 27000 26962 26957 26960 27023 26980 27087 27084 27152 27109 27167 27158 27112 27044 27048 27032 27041 26996 27006 26983 27022 26934 27014 27025 27009 27028 27046 27002 27084 27110 27164 27147 27261 27129 27352 27232 27551 27364 27528 27527 27707 27505 27610 27685 28291 28327 28631 28696 28881 28884 28912 28817 28905 28852 28848 28934 28998 29053 29053 29237 29249 29164 29347 29245 29214 29253 29246 29226 29323 29351 29303 29378 29276 29370 29372 29375 29280 29304 29174 29193 29164 29156 29088 29137 29064 29105 29080 29034 29047 28958 28891 28889 28839 28857 28771 28843 28775 28765 28795 28756 28787 28754 28652 28658 28560 28580 28566 28465 28526 28466 28417 28441 28452 28577 28553 28428 28278 28340 28351 28449 28399 28460 28465 28496 28475 28527 28474 28533 28493 28437 28358 28302 28306 28245 28411 28375 28423 28428 28425 28401 28349 28311 28240 28128 28064 27993 27936 27941 27901 27887 27854 27834 27828 27764 27746 27663 27574 27530 27489 27435 27493 27455 27430 27422 27364 27351 27325 27270 27178 27107 27078 27024 27111 27140 27156 27199 27221 27219 27178 27193 27157 27030 26970 26914 26875 26843 26842 26862 26836 26903 26895 26980 27013 26955 26885 26805 26784 26756 26797 26784 26808 26859 27037 27089 27154 27139 27180 27107 27174 27146 27166 27172 27178 27211 27186 27243 27228 27278 27276 27234 27138 27117 27086 27073 27194 27215 27241 27333 27260 27410 27408 27472 27464 27423 27443 27395 27467 27458 27489 27484 27524 27499 27544 27527 27541 27537 27483 27481 27481 27493 27475 27542 27569 27567 27583 27612 27650 27662 27655 27633 27597 27651 27654 27695 27695 27719 27714 27767 27745 27793 27801 27764 27786 27772 27739 27798 27768 27806 27805 27850 27851 27879 27849 27872 27850 27820 27784 27732 27762 27708 27760 27750 27745 27743 27722 27724 27751 27710 27660 27635 27601 27578 27532 27561 27537 27560 27565 27550 27568 27568 27508 27503 27448 27428 27386 27400 27382 27354 27377 27327 27357 27345 27355 27393 27369 27377 27327 27320 27293 27257 27239 27253 27252 27302 27258 27306 27310 27233 27253 27205 27209 27191 27209 27215 27272 27254 27276 27286 27278 27270 27257 27210 27165 27176 27130 27168 27137 27196 27170 27204 27218 27232 27223 27263 27217 27231 27197 27191 27252 27215 27273 27302 27296 27324 27303 27347 27368 27305 27299 27326 27266 27289 27295 27309 27335 27359 27428 27422 27445 27438 27450 27435 27433 27420 27423 27330 27432 27430 27584 27655 27766 27814 27887 27921 27867 27924 27906 27901 27924 27915 27895 27901 27896 27932 27893 27927 27892 27838 27819 27764 27760 27722 27715 27722 27679 27700 27671 27624 27632 27606 27580 27497 27438 27404 27368 27361 27342 27301 27278 27261 27226 27255 27238 27203 27145 27070 27036 26971 26955 26929 26912 26897 26873 26872 26864 26905 26878 26854 26769 26752 26737 26730 26696 26691 26701 26688 26694 26691 26698 26650 26509 26331 26183 26102 26094 26103 26203 26335 26387 26414 26440 26460 26443 26470 26421 26409 26380 26399 26370 26418 26413 26436 26446 26807 27287 27269 27002 26934 26876 26976 27141 27342 27411 27616 27660 27789 27848 27748 28146 28108 28109 28151 28139 28129 28170 28168 28172 28199 28198 28287 28350 28428 28508 28419 28452 28459 28526 28543 28527 28618 28612 28820 28795 28932 28983 29047 29085 29045 28973 28948 28941 28943 28953 28973 28976 29051 29017 29107 29037 29049 28993 29047 28995 29028 29064 29025 29034 29061 29046 29077 29081 29098 29051 29072 29022 28971 28856 28822 28725 28703 28619 28561 28589 28641 28659 28651 28643 28611 28652 28614 28643 28668 28627 28707 28662 28788 28584 28651 28586 28611 28567 28551 28585 28582 28597 28550 28597 28528 28466 28394 28335 28275 28260 28243 28216 28182 28163 28165 28171 28212 28165 28112 28032 27981 27961 27912 27918 27935 27913 27951 27948 27939 27926 27920 27824 27736 27755 27729 27692 27687 27705 27639 27616 27612 27575 27559 27507 27432 27371 27335 27314 27333 27358 27396 27407 27439 27422 27442 27416 27346 27307 27275 27248 27266 27255 27238 27271 27256 27261 27261 27263 27212 27145 27125 27112 27109 27089 27108 27117 27071 27102 27124 27105 27107 27093 27045 27032 27033 27008 27019 27024 27002 26998 27008 27020 26994 26998 26944 26928 26905 26907 26907 26904 26898 26895 26915 26925 26943 26976 26979 26963 26981 27009 27078 27097 27143 27186 27186 27196 27245 27240 27312 27282 27299 27287 27262 27262 27273 27242 27259 27250 27208 27215 27222 27233 27215 27199 27185 27152 27139 27105 27146 27111 27136 27185 27167 27221 27214 27190 27171 27154 27153 27128 27110 27097 27093 27126 27148 27163 27204 27241 27258 27209 27178 27214 27177 27200 27232 27242 27261 27250 27285 27285 27246 27284 27246 27278 27253 27207 27182 27194 27202 27154 27237 27227 27240 27179 27181 27131 27162 27155 27149 27198 27256 27319 27389 27403 27430 27404 27451 27415 27393 27349 27354 27341 27315 27292 27280 27281 27280 27278 27260 27249 27214 27159 27156 27136 27152 27158 27194 27163 27133 27068 27078 27082 27113 27154 27213 27251 27249 27306 27290 27285 27328 27291 27326 27287 27337 27310 27265 27273 27242 27262 27269 27296 27337 27355 27340 27368 27309 27335 27291 27258 27208 27176 27136 27128 27086 27082 27005 26960 26857 26864 26827 26847 26822 26835 26835 26863 26855 26928 26984 27005 27035 27121 27437 27666 27872 27996 28089 28192 28233 28272 28306 28309 28416 28519 28518 28631 28582 28676 28627 28538 28652 28620 28584 28551 28677 28597 28567 28609 28646 28576 28536 28493 28447 28418 28437 28333 28377 28346 28324 28259 28281 28243 28287 28192 28145 28185 28070 28064 28095 28122 28110 28113 28047 28079 28020 28030 27923 27908 27880 27789 27814 27968 27937 27936 27956 27996 27971 28018 27984 27925 27872 27801 27732 27894 27771 27885 27853 27916 27831 27851 27842 27804 27731 27687 27646 27609 27665 27648 27735 27728 27748 27718 27788 27703 27675 27588 27541 27491 27507 27467 27544 27577 27488 27602 27530 27592 27513 27499 27396 27408 27363 27403 27497 27503 27617 27612 27697 27582 27759 27612 27645 27618 27537 27711 27706 27765 27823 27784 27872 27741 27893 27794 27878 27818 27859 27839 27904 27948 27972 28006 28017 27990 28057 28022 28045 27968 28103 28103 28080 28206 28135 28196 28240 28181 28295 28240 28275 28235 28353 28350 28434 28448 28453 28506 28551 28478 28607 28577 28534 28606 28622 28609 28624 28650 28625 28659 28737 28608 28782 28709 28686 28683 28759 28724 28803 28802 28840 28761 28795 28749 28785 28773 28767 28707 28799 28760 28798 28806 28793 28733 28730 28641 28704 28680 28766 28704 28847 28793 28895 28865 28945 28906 28998 28899 29037 29000 29055 28976 29118 29036 29102 29113 29156 29158 29114 29264 29219 29227 29219 29281 29187 29344 29287 29338 29330 29429 29275 29398 29398 29381 29412 29396 29304 29344 29346 29388 29361 29443 29329 29431 29399 29448 29425 29463 29461 29417 29518 29499 29524 29604 29499 29641 29609 29610 29593 29598 29505 29543 29489 29528 29583 29490 29574 29613 29539 29571 29619 29553 29574 29497 29507 29455 29504 29468 29496 29493 29532 29534 29545 29566 29550 29517 29486 29447 29421 29416 29399 29376 29356 29342 29352 29323 29348 29288 29252 29204 29206 29146 29168 29137 29125 29117 29145 29103 29112 29121 29100 29055 29034 29012 28973 28959 28935 28947 28936 28937 28898 28928 28865 28806 28742 28664 28737 28617 28664 28698 28572 28789 28730 28721 28759 28661 28624 28579 28579 28528 28578 28526 28588 28572 28560 28537 28505 28512 28427 28383 28358 28313 28283 28245 28208 28202 28193 28182 28177 28162 28142 28065 28008 27961 27939 27919 27898 27875 27881 27876 27845 27849 27817 27748 27711 27673 27624 27612 27585 27577 27567 27548 27528 27525 27480 27452 27369 27338 27303 27271 27260 27256 27252 27227 27255 27225 27224 27205 27130 27135 27110 27099 27110 27142 27189 27196 27219 27223 27208 27202 27127 27135 27056 27049 27015 27005 26998 26994 26995 27023 27056 27123 27120 27124 27116 27117 27101 27100 27123 27088 27085 27103 27062 27075 27040 27029 27022 26990 27044 27020 27055 26999 26975 26941 26879 26903 26943 27019 27104 27093 27175 27218 27173 27174 27161 27114 27202 27332 27551 27729 27657 27688 27701 27722 27731 27763 27762 27774 27765 27800 27836 27834 27790 27787 27803 27750 27778 27855 27792 27771 27866 27744 27765 27794 27815 27806 27737 27768 27773 27712 27740 27711 27778 27748 27714 27744 27684 27626 27594 27593 27517 27550 27594 27534 27566 27544 27583 27588 27577 27562 27599 27571 27623 27626 27584 27639 27585 27590 27551 27575 27541 27462 27434 27411 27389 27409 27423 27409 27356 27395 27396 27374 27329 27314 27253 27236 27226 27208 27279 27284 27354 27363 27433 27428 27451 27445 27419 27510 27542 27593 27653 27678 27753 27708 27800 27769 27763 27709 27701 27707 27688 27720 27764 27742 27761 27765 27764 27803 27784 27736 27725 27702 27684 27723 27697 27704 27679 27684 27676 27669 27639 27599 27591 27559 27510 27611 27579 27620 27595 27644 27617 27610 27614 27584 27560 27566 27561 27551 27578 27601 27595 27594 27608 27574 27581 27557 27567 27607 27620 27654 27655 27685 27693 27684 27712 27699 27710 27713 27693 27737 27654 27729 27684 27706 27726 27748 27707 27691 27729 27686 27699 27701 27693 27706 27740 27713 27772 27750 27782 27791 27756 27764 27780 27805 27807 27829 27915 27871 27936 27961 27969 27866 27826 27780 27755 27756 27715 27713 27716 27717 27723 27712 27683 27704 27613 27615 27540 27506 27537 27514 27494 27481 27546 27476 27538 27511 27487 27462 27462 27486 27551 27609 27745 27728 27868 27861 27948 27872 27879 27920 27895 28018 28086 28151 28218 28289 28287 28324 28305 28228 28211 28215 28288 28277 28393 28463 28500 28445 28530 28544 28555 28447 28443 28447 28396 28375 28435 28428 28337 28426 28491 28461 28512 28629 28544 28535 28571 28661 28629 28791 28809 28897 28902 29017 28930 28970 28870 28911 28852 28860 28828 28853 28839 28867 28810 28666 28456 28430 28424 28510 28568 28578 28581 28586 28632 28657 28698 28702 28700 28738 28691 28670 28724 28756 28764 28798 28799 28830 28869 28806 28740 28740 28685 28611 28692 28661 28655 28616 28648 28605 28651 28630 28562 28495 28471 28424 28396 28426 28418 28389 28437 28375 28373 28305 28204 28154 28093 28059 28069 27994 28003 27938 27946 27897 27843 27829 27686 27680 27576 27544 27499 27474 27455 27463 27492 27553 27578 27547 27532 27454 27432 27426 27419 27408 27397 27455 27459 27469 27456 27370 27343 27131 27049 26921 26808 26861 26917 26980 27093 27185 27236 27253 27233 27244 27240 27261 27352 27365 27385 27447 27493 27493 27347 27187 27056 26914 26825 26696 26652 26608 26601 26672 26719 26748 26745 26750 26735 26760 26850 26858 26894 26895 26878 26934 26918 26964 26908 26700 26607 26493 26457 26580 26714 26868 26990 27103 27172 27236 27255 27261 27268 27291 27307 27322 27352 27356 27371 27367 27368 27355 27309 27233 27234 27192 27235 27204 27296 27218 27343 27319 27354 27397 27397 27333 27376 27349 27426 27433 27439 27478 27526 27544 27556 27600 27580 27528 27483 27445 27441 27574 27601 27735 27758 27821 27902 27849 27896 27822 27755 27894 27850 27840 27863 27931 27886 27947 28011 27961 27925 27872 27933 27841 27847 27875 27811 27794 27806 27820 27786 27728 27688 27625 27632 27626 27532 27574 27515 27556 27511 27505 27520 27497 27427 27403 27399 27331 27480 27428 27646 27662 27797 27873 27974 27963 27913 27937 27915 27967 27919 27938 27981 28000 27947 28039 28087 28086 28059 27938 28082 27997 28057 28055 28042 28039 28097 28090 28079 27974 27916 27849 27776 27804 27800 27836 27826 27781 27869 27818 27850 27751 27662 27656 27600 27551 27551 27492 27469 27432 27383 27350 27335 27244 27208 27149 27149 27125 27123 27148 27152 27160 27181 27143 27176 27108 27094 27083 27078 27110 27120 27160 27136 27169 27116 27159 27107 27066 27023 27010 26980 26984 26958 26972 26915 26941 26946 26928 26834 26740 26713 26669 26655 26718 26688 26773 26763 26791 26822 26780 26780 26717 26731 26736 26714 26744 26707 26762 26789 26788 26833 26802 26740 26620 26555 26511 26440 26438 26451 26470 26476 26512 26516 26488 26418 26361 26325 26294 26270 26310 26312 26319 26340 26376 26383 26425 26469 26484 26618 26633 26697 26745 26807 26868 26918 26994 27033 27014 27038 27002 26998 26960 26986 26954 26966 26948 26973 26934 26904 26867 26835 26776 26753 26764 26794 26833 26862 26924 26978 27051 27092 27151 27123 27145 27160 27199 27176 27206 27222 27211 27210 27230 27219 27177 27143 27141 27121 27138 27115 27130 27087 27101 27083 27074 27023 26997 26982 26938 26954 26965 26956 26960 27007 27037 27116 27196 27208 27234 27263 27237 27267 27251 27290 27301 27286 27283 27282 27275 27227 27169 27169 27121 27117 27085 27099 27061 27048 27016 27057 27010 26981 26925 26949 26956 27012 27026 27097 27164 27184 27191 27230 27218 27188 27161 27151 27097 27120 27091 27108 27089 27049 27023 26967 26900 26837 26795 26798 26753 26778 26763 26775 26816 26872 26955 27064 27156 27122 27106 27193 27190 27336 27304 27374 27399 27399 27414 27402 27349 27289 27229 27192 27195 27184 27170 27167 27171 27187 27196 27179 27131 27069 27014 26997 27011 26971 26982 26982 26968 27000 27003 26987 26972 26965 27044 27051 27112 27157 27212 27246 27274 27321 27339 27312 27242 27182 27177 27106 27166 27185 27235 27269 27255 27314 27290 27324 27220 27218 27111 27129 27142 27145 27117 27162 27188 27240 27285 27287 27257 27258 27259 27287 27306 27328 27341 27341 27437 27311 27562 27457 27406 27421 27291 27436 27363 27457 27441 27483 27424 27537 27496 27452 27419 27354 27404 27394 27340 27496 27434 27514 27506 27630 27557 27524 27469 27466 27462 27431 27492 27511 27594 27667 27578 27740 27631 27655 27573 27624 27615 27606 27618 27580 27585 27501 27524 27535 27403 27380 27312 27309 27330 27360 27435 27489 27546 27577 27591 27619 27537 27526 27511 27491 27504 27536 27488 27479 27454 27449 27470 27394 27338 27292 27232 27217 27155 27156 27142 27126 27146 27133 27125 27096 27062 27084 27091 27162 27196 27271 27313 27287 27355 27338 27260 27248 27162 27231 27147 27206 27173 27153 27159 27121 27152 27123 27082 27003 26962 27085 27049 27062 27078 27151 27141 27177 27210 27195 27205 27091 27128 27196 27235 27265 27376 27410 27437 27487 27529 27447 27386 27273 27318 27164 27472 27279 27555 27586 27612 27715 27640 27636 27555 27546 27533 27528 27524 27590 27543 27738 27701 27741 27728 27814 27773 27765 27882 27895 27857 27996 27916 28037 28009 28040 27966 27890 27846 27881 27856 27881 27896 27879 27869 27927 27863 27860 27750 27633 27588 27559 27553 27571 27567 27599 27563 27574 27593 27573 27463 27489 27444 27439 27424 27428 27469 27435 27474 27486 27529 27405 27364 27272 27259 27173 27193 27177 27208 27166 27316 27248 27355 27244 27194 27143 27170 27165 27206 27247 27253 27347 27364 27413 27305 27236 27155 27110 27058 27033 27035 27071 27015 27121 27120 27033 26915 26819 26760 26700 26750 26803 26837 26900 27018 27035 27025 27041 26906 26853 26883 26867 26891 26916 26907 26888 26948 26952 26911 26920 26820 26776 26745 26749 26783 26841 26822 26854 26789 26800 26718 26637 26573 26580 26546 26612 26615 26629 26626 26688 26747 26726 26610 26542 26521 26462 26456 26527 26540 26652 26699 26805 26844 26776 26755 26632 26656 26666 26683 26729 26759 26800 26917 27033 27053 27003 26981 26928 26958 26931 26987 26997 26968 27008 26981 26940 26829 26746 26728 26740 26752 26726 26757 26709 26714 26741 26687 26583 26459 26373 26345 26304 26335 26360 26376 26472 26499 26555 26501 26431 26408 26390 26415 26434 26444 26465 26474 26460 26503 26388 26339 26310 26288 26288 26333 26321 26323 26370 26372 26399 26389 26330 26285 26310 26338 26451 26527 26650 26672 26706 26735 26710 26648 26619 26619 26567 26612 26571 26588 26585 26605 26638 26623 26550 26509 26457 26446 26480 26507 26526 26532 26529 26507 26511 26424 26426 26424 26482 26516 26569 26591 26651 26660 26677 26660 26607 26531 26479 26456 26463 26512 26559 26609 26639 26728 26724 26699 26659 26685 26654 26683 26657 26685 26700 26702 26744 26755 26758 26778 26791 26830 26805 26880 26854 26895 26880 26902 26869 26779 26742 26703 26741 26742 26741 26730 26767 26764 26799 26772 26715 26733 26669 26674 26725 26762 26812 26880 26941 27042 27001 26973 26912 26889 26872 26835 26862 26828 26943 26930 26980 26925 26944 26854 26925 26893 26893 26896 26918 26907 26933 26936 26933 26857 26778 26759 26727 26850 26863 26964 27015 27060 27089 27076 27004 26972 26972 26979 26973 27008 26990 27011 27077 27060 27004 26958 26946 26903 26961 26924 26952 26957 26991 26975 27112 27033 27027 27014 27034 27118 27196 27249 27338 27360 27360 27486 27429 27326 27393 27330 27345 27336 27377 27364 27381 27379 27359 27308 27175 27105 27089 27062 27052 27139 27101 27142 27123 27121 27076 26994 26985 26960 26975 27003 27019 27060 27087 27176 27130 27177 27082 27075 27081 27072 27116 27114 27190 27166 27208 27149 27077 27028 27035 26977 26968 27011 27027 27034 27068 27136 27135 27203 27162 27157 27141 27149 27180 27260 27287 27263 27381 27356 27320 27241 27181 27192 27190 27206 27192 27189 27170 27194 27156 27093 27074 27035 27070 27070 27094 27099 27170 27186 27291 27334 27310 27272 27253 27297 27337 27358 27326 27466 27394 27490 27423 27350 27268 27207 27180 27164 27152 27134 27122 27073 27085 27035 27025 26934 26881 26876 26907 26936 27012 27064 27129 27173 27176 27124 27072 27073 27085 27116 27180 27209 27205 27199 27214 27224 27210 27052 27166 27118 27134 27189 27132 27125 27121 27120 27123 27022 26932 26907 26977 26971 27046 27056 27114 27138 27151 27129 27042 26966 26915 26881 26812 26804 26793 26827 26834 26909 26918 26840 26795 26778 26671 26806 26802 26802 26909 26869 26985 26955 26933 26905 26899 26925 26960 26987 27008 27052 27039 27105 27102 26999 26888 26850 26794 26861 26804 26861 26865 26882 26890 26878 26774 26661 26587 26569 26606 26644 26672 26669 26722 26747 26801 26761 26748 26736 26789 26761 26791 26783 26837 26832 26798 26813 26688 26650 26615 26598 26625 26675 26705 26730 26777 26775 26792 26711 26630 26578 26577 26616 26711 26731 26797 26813 26931 26949 26926 26993 26935 26961 26996 27010 27078 27063 27120 27121 27072 26982 26973 26960 26985 26993 26982 27052 27000 27070 27129 27054 27065 27037 27034 27070 27058 27179 27168 27253 27285 27299 27265 27158 27126 27166 27097 27162 27160 27229 27161 27155 27189 27113 26998 26942 26833 26772 26763 26750 26712 26714 26801 26845 26826 26783 26793 26827 26910 27002 27031 27116 27114 27190 27189 27123 27059 27008 26972 26907 26922 26901 26960 26975 27053 27074 27039 26977 26915 26886 26860 26853 26894 26865 26923 26913 26945 26850 26820 26756 26798 26786 26811 26839 26840 26874 26879 26886 26824 26772 26740 26702 26712 26715 26754 26788 26839 26877 26859 26789 26742 26712 26675 26659 26627 26603 26601 26610 26633 26632 26600 26577 26562 26612 26682 26707 26760 26770 26787 26761 26736 26661 26626 26634 26632 26675 26702 26803 26848 26960 27028 26966 26948 26848 26863 26884 26907 26958 26908 26984 27121 27137 27143 27052 27077 27016 27034 27068 27135 27113 27167 27190 27164 27133 27039 26993 26965 26970 26966 27063 27061 27147 27139 27105 27047 26931 26855 26804 26819 26816 26831 26893 26929 26983 27052 27089 27267 27462 27768 27881 28130 28195 28101 28167 28032 28061 27876 27816 27685 27657 27734 27716 27699 27774 27816 27789 27882 27794 27711 27630 27576 27589 27607 27560 27555 27618 27553 27606 27467 27479 27396 27410 27347 27348 27384 27337 27365 27331 27285 27183 27019 26984 26880 26905 26931 26952 26959 26978 26980 26951 26807 26688 26669 26612 26635 26617 26606 26628 26642 26695 26625 26594 26537 26562 26585 26661 26747 26735 26784 26821 26836 26815 26662 26559 26495 26497 26426 26486 26479 26508 26482 26497 26420 26316 26215 26172 26126 26184 26205 26269 26289 26316 26356 26347 26308 26270 26291 26265 26291 26320 26329 26344 26328 26312 26221 26111 26033 26020 26001 25997 25999 26057 26089 26139 26147 26081 26000 25959 25930 25962 26014 26049 26124 26176 26192 26219 26165 26066 26083 26047 26134 26168 26240 26305 26352 26378 26405 26326 26265 26246 26217 26242 26245 26267 26273 26247 26263 26268 26228 26150 26085 26100 26079 26129 26116 26184 26176 26177 26167 26074 25960 25926 25911 26021 26049 26162 26272 26363 26475 26508 26508 26419 26448 26406 26448 26474 26507 26547 26523 26549 26597 26534 26465 26439 26405 26373 26391 26387 26483 26465 26501 26479 26362 26258 26136 26107 26102 26169 26230 26309 26394 26454 26560 26513 26497 26440 26442 26425 26476 26461 26519 26511 26496 26535 26468 26354 26289 26252 26268 26280 26333 26385 26444 26376 26521 26445 26400 26351 26392 26439 26459 26637 26527 26786 26923 27020 27097 27066 27060 27012 27034 27076 27070 27141 27146 27181 27189 27144 27039 26946 26907 26891 26885 26912 26891 26920 26898 26846 26880 26740 26676 26601 26576 26599 26580 26631 26657 26694 26735 26737 26610 26557 26569 26563 26631 26646 26721 26722 26747 26758 26679 26526 26467 26422 26421 26422 26509 26503 26534 26568 26546 26502 26345 26310 26245 26265 26269 26309 26372 26450 26478 26575 26552 26446 26414 26381 26453 26416 26510 26532 26578 26568 26513 26556 26428 26360 26323 26340 26386 26406 26369 26403 26368 26393 26270 26113 26088 26079 26113 26168 26201 26262 26331 26403 26446 26395 26316 26253 26224 26211 26287 26306 26336 26362 26321 26345 26248 26092 26050 26004 26036 26018 26066 26057 26092 26103 26095 26057 25991 25889 25855 25845 25910 25951 26002 26080 26137 26141 26135 26140 26170 26208 26226 26314 26327 26346 26324 26311 26312 26183 26060 25930 25839 25721 25672 25668 25701 25753 25796 25863 25886 25804 25741 25769 25807 25944 25979 26047 26070 26154 26213 26235 26197 26125 26121 26093 26155 26110 26199 26195 26222 26239 26199 26115 26049 26029 25993 25969 25979 25955 25949 25930 25940 25926 25872 25877 25917 25989 26030 26063 26102 26120 26191 26189 26140 26045 25935 25950 25907 25961 25947 25980 25984 25952 25941 25878 25769 25744 25723 25764 25803 25863 25921 25983 26060 26120 26064 25955 25933 25930 25930 25964 25965 25995 25951 25960 25972 25970 25904 25871 25907 25891 25946 25937 25973 25999 25996 26011 25952 25860 25836 25789 25866 25877 26022 25953 26099 26101 26056 25926 25869 25928 26070 26365 26599 26739 26879 26986 27097 27205 27158 27085 27016 26979 27010 27011 27080 27242 27320 27513 27546 27557 27470 27469 27423 27488 27522 27593 27615 27712 27790 27868 27667 27489 27331 27317 27239 27263 27251 27308 27243 27473 27377 27277 27208 27061 27157 27195 27199 27194 27244 27220 27216 27339 27168 27062 26917 26829 26865 26822 26828 26784 26791 26688 26661 26524 26498 26430 26394 26321 26275 26388 26385 26472 26455 26427 26220 26108 26122 26138 26231 26261 26252 26230 26277 26446 26396 26258 26085 26066 25965 26232 26213 26316 26335 26369 26388 26287 26225 26078 26035 26004 26078 26035 26293 26282 26402 26416 26410 26237 26142 26133 26070 26115 26022 26064 26039 26156 26181 26117 26008 26013 25992 26100 26066 26263 26294 26411 26306 26551 26411 26389 26287 26369 26325 26444 26461 26527 26597 26575 26523 26700 26491 26579 26510 26590 26564 26731 26711 26820 26794 26931 26724 26836 26747 26846 26898 26938 26992 27038 27094 27136 27139 27068 26994 26855 26951 26992 27121 27162 27241 27215 27295 27270 27182 27117 27025 26964 26953 26936 27150 27205 27374 27373 27456 27326 27328 27265 27246 27268 27356 27234 27481 27340 27665 27521 27574 27388 27388 27310 27366 27359 27405 27375 27501 27482 27567 27358 27372 27254 27261 27307 27312 27341 27378 27325 27463 27358 27239 27172 27102 27092 27050 27197 27160 27227 27250 27279 27235 27098 27018 26961 26901 26962 26961 26974 26976 26973 27050 26970 26785 26690 26747 26793 26781 26878 26905 26923 26943 26948 26931 26684 26835 26673 26841 26891 26912 26970 27064 27069 27106 26976 26841 26745 26766 26716 26727 26705 26784 26809 26843 26892 26778 26660 26584 26526 26494 26510 26516 26547 26562 26578 26614 26532 26463 26431 26423 26443 26500 26501 26517 26539 26559 26570 26523 26471 26432 26390 26465 26532 26541 26658 26675 26718 26778 26720 26731 26680 26755 26748 26771 26814 26851 26846 26899 26870 26824 26782 26751 26742 26737 26758 26751 26761 26748 26746 26751 26707 26635 26593 26588 26659 26674 26720 26720 26734 26794 26769 26775 26696 26689 26713 26725 26764 26742 26828 26883 26941 26984 26999 26971 26972 26972 26992 26991 27002 26972 26958 26966 26938 26883 26845 26853 26828 26900 26904 26893 26940 26969 26962 26949 26920 26816 26772 26790 26813 26914 26913 26975 27005 27069 27070 27011 26908 26872 26900 26866 26958 26936 27088 27060 27247 27206 27238 27181 27079 27161 27110 27157 27116 27211 27204 27227 27212 27112 26959 26857 26847 26887 26850 26865 26852 26847 26847 26883 26833 26683 26585 26546 26558 26552 26603 26593 26576 26587 26584 26532 26383 26263 26182 26164 26181 26170 26173 26168 26165 26182 26114 25985 25916 25896 25923 25928 26001 26077 26126 26169 26236 26221 26091 26051 26028 26019 26006 26070 26107 26165 26189 26252 26291 26255 26278 26318 26336 26429 26449 26435 26444 26386 26414 26359 26371 26311 26269 26291 26353 26468 26520 26567 26613 26666 26721 26685 26653 26654 26649 26622 26659 26754 26777 26822 26851 26901 26854 26853 26792 26756 26744 26769 26756 26854 26969 27003 27110 27075 27027 27113 27074 27101 27109 27064 27139 27112 27165 27161 27129 27047 26974 26951 26938 26941 26999 26983 27014 27015 27044 27033 26958 26926 26854 26906 26902 26946 26981 27005 27047 26998 26962 26875 26817 26824 26736 26789 26899 26865 26956 26976 27100 27059 26968 26951 26941 26962 26946 27007 27096 27114 27106 27102 27145 27049 26902 26879 26889 26885 26870 26946 26957 26937 26974 26952 26900 26740 26683 26665 26553 26603 26539 26534 26549 26555 26583 26541 26382 26334 26342 26379 26374 26375 26394 26384 26330 26344 26259 26160 26056 26043 26051 26051 26175 26226 26240 26319 26424 26362 26272 26226 26201 26223 26226 26253 26269 26256 26251 26225 26257 26134 26128 26103 26079 26140 26114 26134 26160 26192 26222 26205 26165 26128 26112 26152 26168 26213 26281 26315 26322 26344 26377 26327 26305 26341 26298 26369 26398 26398 26418 26355 26407 26386 26363 26361 26344 26401 26484 26500 26579 26578 26597 26616 26588 26624 26514 26534 26539 26566 26599 26617 26683 26758 26764 26802 26759 26694 26632 26635 26622 26639 26627 26623 26624 26608 26662 26635 26575 26573 26544 26600 26627 26683 26713 26751 26847 26868 26923 26851 26835 26818 26797 26861 26848 26925 26945 26984 27002 27038 26924 26884 26789 26773 26765 26717 26732 26731 26718 26715 26704 26687 26589 26523 26519 26488 26520 26524 26538 26567 26577 26633 26601 26572 26530 26494 26547 26546 26639 26651 26692 26717 26716 26707 26617 26528 26455 26416 26423 26420 26468 26482 26518 26605 26615 26555 26462 26416 26361 26364 26365 26397 26401 26406 26457 26451 26455 26400 26337 26382 26394 26457 26444 26482 26479 26497 26519 26498 26394 26338 26332 26442 26510 26549 26595 26601 26610 26643 26649 26570 26529 26506 26524 26557 26608 26699 26679 26842 26903 26987 27012 26945 26989 26949 26996 26982 26992 27000 26974 27032 27025 26983 26931 26895 26882 26916 26884 26960 26963 26995 27022 27046 26998 26936 26913 26877 26945 26985 27030 27024 27097 27094 27161 27146 27138 27100 27102 27129 27107 27113 27167 27064 27279 27280 27431 27412 27412 27454 27453 27573 27568 27619 27595 27600 27569 27560 27544 27463 27470 27424 27501 27497 27458 27505 27497 27482 27492 27503 27422 27460 27453 27452 27463 27467 27443 27490 27528 27505 27538 27478 27447 27425 27459 27413 27474 27462 27511 27499 27507 27544 27497 27466 27463 27430 27428 27410 27455 27402 27399 27391 27378 27289 27249 27253 27220 27263 27282 27261 27314 27273 27301 27237 27206 27126 27120 27097 27105 27060 27069 27116 27144 27131 27166 27091 27102 27073 27084 27092 27085 27081 27088 27069 27096 27099 27050 26992 26974 26969 26990 26994 27014 27024 27037 27004 26990 26907 26874 26917 26908 26915 26923 26997 26979 27035 27017 27052 26981 26906 26950 26875 26899 26919 26891 26914 26909 26897 26900 26886 26842 26785 26790 26798 26811 26813 26822 26892 26940 26989 26953 26928 26907 26871 26872 26898 26877 26927 26909 26918 26934 26893 26868 26805 26785 26747 26773 26735 26769 26772 26758 26729 26718 26701 26644 26665 26642 26682 26697 26690 26700 26700 26726 26759 26698 26646 26660 26610 26673 26681 26695 26709 26748 26740 26770 26695 26700 26663 26647 26671 26701 26742 26764 26759 26786 26793 26768 26760 26760 26739 26765 26769 26833 26818 26819 26844 26827 26816 26767 26692 26721 26698 26695 26680 26691 26677 26681 26687 26692 26689 26655 26701 26676 26714 26728 26731 26762 26767 26765 26764 26790 26772 26763 26754 26769 26781 26792 26836 26853 26869 26925 26945 26895 26874 26872 26870 26861 26921 26954 26951 27029 27044 27103 27143 27088 27097 27081 27088 27127 27118 27166 27172 27246 27217 27248 27193 27136 27108 27096 27136 27148 27184 27168 27221 27208 27187 27163 27113 27000 26995 26943 26977 26961 26940 26945 26892 26909 26906 26818 26658 26574 26493 26460 26434 26411 26375 26355 26385 26375 26421 26313 26254 26218 26203 26310 26356 26483 26528 26589 26564 26611 26561 26423 26364 26296 26285 26294 26264 26285 26258 26293 26303 26276 26210 26105 26109 26046 26077 26093 26114 26100 26144 26158 26184 26163 26098 26031 25988 25958 25995 26058 26144 26212 26283 26387 26395 26422 26357 26338 26304 26344 26374 26393 26378 26455 26455 26523 26532 26500 26517 26456 26519 26510 26502 26492 26477 26509 26477 26544 26512 26507 26416 26429 26411 26429 26429 26439 26465 26519 26559 26565 26503 26522 26473 26489 26530 26510 26586 26581 26628 26615 26660 26613 26595 26562 26574 26624 26617 26661 26668 26694 26672 26703 26676 26704 26671 26655 26686 26685 26711 26692 26746 26736 26801 26758 26838 26740 26775 26741 26740 26741 26737 26714 26756 26773 26785 26769 26655 26764 26793 26919 26847 27090 27206 27250 27190 27400 27309 27411 27422 27403 27363 27420 27389 27366 27442 27409 27416 27386 27313 27232 27191 27180 27082 27185 27102 27211 27141 27216 27125 27164 27123 27060 27064 27002 26997 26993 26947 26967 26943 26982 26976 26919 26941 26910 26960 26960 26901 27027 26994 27024 26966 27015 26891 26889 26772 26703 26751 26699 26726 26696 26668 26619 26650 26595 26521 26492 26416 26464 26454 26492 26534 26480 26488 26589 26609 26639 26518 26553 26487 26629 26628 26691 26628 26686 26747 26748 26786 26656 26640 26605 26603 26562 26594 26567 26624 26606 26631 26615 26599 26540 26523 26476 26446 26466 26458 26465 26475 26436 26427 26404 26409 26348 26298 26307 26261 26305 26277 26347 26301 26374 26361 26395 26354 26352 26282 26329 26311 26364 26342 26434 26374 26501 26492 26547 26524 26482 26450 26413 26418 26447 26444 26441 26452 26473 26492 26547 26525 26424 26472 26431 26662 26658 26684 26805 26741 26901 26947 26901 26971 26839 26815 26780 26763 26710 26782 26742 26743 26732 26695 26686 26644 26558 26517 26509 26502 26502 26455 26447 26429 26386 26565 26554 26533 26456 26413 26346 26381 26564 26561 26571 26491 26574 26608 26570 26628 26505 26465 26397 26393 26338 26347 26320 26337 26349 26314 26294 26310 26249 26231 26228 26336 26457 26515 26479 26585 26526 26562 26589 26539 26476 26379 26338 26302 26237 26258 26232 26306 26232 26307 26258 26291 26290 26161 26154 26313 26428 26616 26721 26726 26770 26727 26669 26632 26607 26490 26391 26374 26272 26301 26286 26269 26223 26187 26219 26214 26239 26181 26111 26119 26086 26152 26101 26157 26146 26145 26125 26162 26115 26130 26125 26068 26142 26117 26133 26130 26136 26135 26190 26202 26178 26291 26277 26477 26465 26466 26472 26551 26489 26507 26545 26488 26714 26680 26691 26581 26587 26551 26524 26530 26488 26484 26466 26444 26421 26436 26393 26323 26304 26251 26256 26271 26305 26288 26326 26298 26334 26309 26319 26278 26199 26165 26147 26190 26184 26187 26206 26206 26190 26182 26186 26167 26062 25988 25952 25983 25949 25968 25960 25935 25949 25969 25945 25934 25867 25766 25724 25704 25678 25680 25696 25667 25686 25709 25716 25745 25761 25710 25638 25653 25643 25685 25724 25726 25738 25748 25798 25789 25888 25821 25795 25786 25770 25768 25770 25805 25788 25815 25802 25819 25828 25796 25813 25742 25741 25723 25728 25761 25801 25831 25836 25867 25878 25927 25919 25900 25858 25823 25817 25760 25839 25834 25863 25890 25906 25907 25932 25931 25884 25857 25816 25838 25830 25828 25842 25865 25885 25929 25965 26166 26206 26248 26175 26123 26135 26088 26152 26232 26587 26599 26698 26734 26668 26762 26694 26725 26638 26662 26609 26638 26599 26589 26596 26579 26564 26544 26515 26496 26429 26359 26333 26293 26251 26241 26230 26217 26246 26234 26216 26266 26247 26249 26205 26170 26158 26160 26137 26137 26119 26105 26129 26140 26126 26119 26116 26024 26027 26045 26031 26096 26071 26085 26101 26093 26094 26101 26134 26100 26054 26002 25994 25999 26025 26021 26019 26024 26009 26024 26119 26143 26171 26099 26008 25992 25957 25990 25925 25968 25937 25950 25927 25936 25962 25987 25926 25900 25810 25798 25785 25764 25760 25790 25781 25825 25820 25871 25879 25853 25778 25725 25712 25717 25723 25751 25823 25824 25860 25867 25884 25950 25926 25910 25838 25858 25837 25828 25866 25864 25905 25890 25890 25888 25887 25893 25928 25902 25863 25905 25808 25862 25813 25806 25813 25768 25820 25809 25814 25815 25784 25765 25766 25804 25771 25931 25905 25984 26076 26061 26146 26127 26169 26182 26179 26173 26115 26189 26168 26211 26198 26245 26227 26286 26288 26402 26367 26388 26343 26338 26340 26297 26298 26324 26310 26297 26257 26321 26277 26333 26273 26237 26174 26138 26097 26098 26103 26092 26120 26124 26139 26117 26138 26110 26079 26022 25998 25963 25902 25897 25927 25912 25932 25944 25948 25930 25894 25857 25810 25738 25708 25696 25736 25742 25743 25756 25764 25804 25845 25821 25874 25868 25780 25802 25782 25775 25811 25850 25805 25864 25819 25837 25882 25871 25867 25809 25756 25697 25699 25689 25714 25736 25719 25777 25854 25909 25997 26000 26113 26231 26297 26457 26525 26665 26770 26839 27036 27175 27262 27213 27390 27329 27398 27346 27277 27210 27112 27004 27083 27128 27146 27184 27127 27155 27173 27094 27087 27061 26938 26985 26856 26899 26827 26826 26831 26813 26903 26879 26931 26898 26867 26768 26706 26683 26619 26647 26648 26629 26639 26554 26564 26535 26539 26509 26384 26358 26299 26264 26249 26205 26199 26196 26203 26149 26206 26189 26183 26222 26148 26125 26042 26044 26037 26013 26009 25991 25959 25942 25901 25841 25809 25748 25664 25623 25584 25584 25591 25625 25656 25651 25660 25677 25659 25650 25644 25618 25561 25519 25537 25508 25525 25559 25542 25565 25582 25602 25588 25546 25588 25519 25440 25426 25391 25380 25404 25403 25415 25383 25453 25492 25552 25572 25502 25402 25286 25183 25191 25213 25244 25321 25355 25393 25414 25390 25378 25374 25375 25318 25234 25160 25171 25169 25166 25209 25220 25252 25234 25286 25284 25312 25383 25337 25301 25251 25200 25244 25221 25325 25317 25353 25389 25418 25484 25454 25471 25454 25396 25435 25422 25384 25496 25504 25528 25517 25512 25528 25546 25645 25671 25704 25630 25654 25617 25664 25664 25671 25702 25764 25736 25757 25800 25806 25855 25903 25896 25864 25927 25942 25955 26012 26050 26061 26117 26116 26070 26052 26037 26052 26085 26092 26116 26134 26142 26181 26196 26173 26265 26192 26282 26273 26295 26318 26343 26310 26318 26270 26275 26229 26194 26160 26129 26125 26115 26122 26161 26177 26195 26215 26170 26197 26207 26219 26232 26199 26197 26179 26191 26219 26240 26214 26202 26119 26088 26043 26058 26074 26049 26074 26066 26077 26137 26172 26204 26173 26096 26044 25996 25933 25966 25864 25900 25853 25834 25805 25836 25822 25831 25721 25641 25628 25602 25582 25599 25604 25630 25635 25642 25670 25689 25723 25720 25717 25615 25656 25595 25621 25618 25622 25619 25611 25596 25590 25607 25642 25595 25488 25506 25493 25502 25509 25509 25489 25507 25502 25565 25552 25574 25548 25472 25472 25489 25516 25538 25606 25657 25674 25728 25758 25724 25775 25744 25682 25613 25535 25558 25517 25561 25538 25545 25569 25615 25611 25644 25665 25643 25620 25613 25596 25595 25601 25649 25650 25703 25671 25744 25715 25697 25693 25574 25586 25534 25538 25592 25596 25671 25614 25754 25744 25963 26092 26319 26329 26455 26352 26412 26315 26329 26269 26360 26310 26321 26329 26339 26329 26233 26224 26164 26170 26163 26141 26114 26128 26243 26342 26437 26400 26486 26386 26346 26508 26377 26675 26695 26560 26936 26993 26883 26865 26962 26916 26841 27062 26915 26949 26946 26970 27010 26989 27054 26990 27072 27063 27263 27074 27127 26903 27031 26942 27049 26979 26995 27108 26975 27120 27095 27185 26834 27075 27040 27141 27165 27168 27125 27218 27177 27251 27347 27352 27342 27268 27304 27226 27346 27288 27327 27365 27319 27419 27407 27487 27371 27337 27153 27202 27043 27137 27048 27150 27035 27177 27119 27141 27163 27180 27017 26935 26882 26809 26701 26753 26571 26839 26756 26874 26805 26906 26801 26798 26650 26626 26559 26574 26584 26618 26617 26634 26618 26656 26667 26660 26574 26554 26420 26463 26422 26524 26545 26601 26512 26587 26536 26549 26535 26416 26338 26262 26347 26269 26308 26275 26323 26383 26319 26393 26313 26237 26132 25956 25961 25975 25999 26038 26168 26113 26246 26195 26246 26243 26263 26254 26156 26183 26160 26123 26098 26116 26094 26064 26045 26090 26092 26100 26140 26067 26028 26097 26111 26121 26110 26161 26121 26157 26119 26105 26056 26190 26160 26135 26185 26113 26188 26236 26257 26244 26277 26269 26376 26345 26361 26345 26344 26299 26261 26230 26232 26232 26191 26167 26161 26140 26193 26179 26284 26175 26211 26158 26156 26145 26112 26123 26156 26102 26105 26092 26152 26161 26129 26126 26240 26291 26344 26462 26398 26477 26439 26436 26460 26429 26363 26344 26306 26255 26207 26155 26137 26222 26166 26212 26188 26169 26152 26174 26142 26077 26002 25982 25976 25983 25995 25991 26097 26166 26189 26284 26263 26347 26295 26332 26293 26284 26342 26496 26600 26925 26934 27107 27282 27464 27668 27694 27639 27575 27533 27428 27287 27189 27118 27073 26954 26927 26857 26752 26666 26544 26470 26441 26405 26330 26290 26311 26282 26296 26287 26208 26227 26195 26181 26091 26091 26063 26074 26136 26136 26225 26247 26263 26295 26331 26367 26379 26342 26312 26262 26204 26120 26062 26021 25982 25981 25968 26017 25989 26054 26018 26004 26060 26114 26096 26122 26138 26140 26120 26209 26217 26235 26233 26232 26203 26152 26110 26127 26141 26181 26210 26264 26309 26351 26391 26438 26464 26416 26451 26355 26291 26251 26295 26195 26437 26468 26559 26686 26720 26696 26770 26759 26808 26675 26597 26585 26468 26620 26624 26682 26720 26695 26632 26687 26675 26680 26621 26556 26575 26619 26662 26725 26799 26840 26934 27016 27080 27149 27077 27405 27255 27385 27333 27324 27353 27508 27365 27588 27542 27605 27530 27604 27553 27623 27539 27538 27430 27395 27339 27342 27348 27301 27260 27220 27171 27150 27123 27116 27092 27045 26977 26891 26825 26790 26765 26730 26708 26660 26635 26573 26537 26531 26524 26453 26353 26275 26209 26167 26117 26106 26023 25993 25966 25931 25958 25971 25990 25971 25871 25799 25766 25744 25764 25812 25830 25830 25774 25748 25765 25753 25764 25774 25735 25621 25571 25522 25634 25653 25737 25790 25846 25779 25839 25857 25848 25898 25867 25796 25689 25657 25610 25641 25674 25679 25709 25713 25752 25743 25795 25811 25813 25720 25693 25661 25627 25630 25649 25630 25625 25628 25572 25583 25570 25586 25581 25469 25404 25374 25314 25328 25364 25393 25472 25535 25598 25713 25727 25770 25745 25689 25628 25596 25589 25591 25608 25651 25664 25715 25709 25739 25746 25820 25755 25701 25670 25645 25674 25649 25767 25789 25865 25827 25969 25983 26044 26139 26120 26040 26035 26038 26017 25997 26018 26032 26093 26090 26211 26229 26268 26238 26240 26240 26205 26174 26157 26212 26282 26507 26698 26995 27168 27433 27546 27666 27660 27702 27715 27789 27818 27796 27851 27790 27849 27861 27834 27860 27891 27859 27861 27864 27898 27950 27956 28034 28142 28206 28217 28291 28392 28432 28510 28478 28420 28383 28328 28324 28408 28355 28502 28513 28605 28643 28735 28684 28794 28708 28685 28603 28556 28590 28418 28518 28521 28509 28440 28508 28537 28488 28566 28486 28386 28360 28284 28270 28221 28215 28297 28267 28112 28156 28136 28139 28057 28062 27904 27797 27761 27593 27664 27667 27707 27619 27598 27707 27623 27739 27638 27703 27557 27551 27381 27517 27460 27575 27515 27639 27459 27637 27624 27677 27619 27577 27461 27382 27207 27295 27252 27270 27214 27250 27267 27355 27395 27416 27441 27459 27358 27252 27111 26999 26923 26807 26730 26714 26688 26618 26632 26569 26570 26557 26530 26438 26423 26429 26501 26545 26582 26640 26720 26718 26757 26775 26837 26885 26857 26820 26844 26951 27085 27221 27302 27416 27454 27625 27700 27908 27961 28135 28061 28013 28053 28119 28068 27883 27721 27557 27393 27198 27040 26920 26850 26803 26768 26673 26711 26621 26684 26681 26731 26738 26759 26841 26800 26854 26840 26874 26858 26813 26716 26689 26640 26622 26633 26695 26643 26651 26644 26663 26626 26637 26577 26561 26468 26376 26310 26243 26257 26286 26268 26282 26293 26331 26357 26367 26427 26403 26361 26261 26234 26193 26176 26184 26191 26174 26155 26163 26196 26209 26253 26264 26153 26120 26068 26038 26051 26059 26084 26070 26166 26231 26356 26411 26389 26457 26378 26333 26259 26253 26270 26283 26249 26243 26310 26285 26344 26356 26399 26471 26479 26478 26470 26564 26598 26664 26652 26660 26667 26677 26704 26673 26685 26654 26583 26508 26435 26404 26381 26387 26381 26419 26422 26429 26447 26492 26566 26644 26758 26754 26793 26739 26825 26800 26812 26903 26913 26860 26989 26974 27038 27102 27019 26904 26902 26792 26775 26735 26691 26682 26668 26726 26724 26749 26802 26750 26817 26703 26665 26613 26499 26483 26449 26416 26396 26364 26435 26405 26471 26483 26453 26382 26289 26219 26191 26164 26205 26231 26316 26300 26310 26329 26312 26327 26327 26289 26261 26254 26330 26334 26325 26469 26417 26510 26548 26495 26557 26548 26552 26468 26456 26377 26341 26306 26432 26452 26494 26595 26610 26664 26681 26753 26700 26643 26590 26538 26528 26585 26584 26595 26593 26583 26703 26728 26720 26781 26700 26606 26613 26510 26530 26559 26555 26564 26644 26651 26689 26735 26729 26738 26682 26610 26554 26466 26460 26441 26396 26453 26457 26423 26400 26377 26466 26438 26451 26416 26448 26464 26521 26599 26632 26634 26826 26872 26942 27046 27045 27164 27100 27105 27081 27128 27031 27018 27125 27112 27163 27055 27079 27106 27161 27117 26996 27047 26995 26943 26963 27020 27080 27214 27375 27474 27621 27591 27588 27563 27454 27284 27120 26974 26942 26832 26873 26819 26873 26929 26945 26964 27056 27090 27063 26994 27097 27006 27066 27093 27179 27098 27138 27117 27102 27172 27124 27121 26972 26986 26937 26899 26862 26887 26884 26881 26881 26859 26964 26914 26987 26919 26869 26868 26806 26804 26756 26761 26709 26750 26678 26753 26735 26689 26711 26637 26612 26523 26456 26419 26430 26433 26436 26372 26435 26438 26630 26631 26702 26665 26600 26520 26464 26480 26470 26468 26459 26393 26412 26524 26654 26680 26736 26665 26624 26623 26587 26590 26538 26584 26573 26643 26671 26714 26746 26796 26818 26738 26641 26655 26591 26704 26721 26779 26886 26855 26842 26835 26828 26935 26886 26871 26759 26714 26749 26673 26738 26706 26751 26663 26710 26676 26810 26780 26757 26765 26671 26652 26624 26608 26598 26637 26646 26582 26556 26537 26490 26491 26426 26345 26353 26342 26246 26267 26202 26236 26278 26203 26205 26203 26194 26206 26157 26136 26172 26180 26231 26259 26269 26227 26211 26145 26021 25990 25872 25818 25652 25618 25558 25648 25611 25687 25755 25745 25748 25759 25678 25701 25654 25622 25545 25501 25430 25437 25424 25518 25552 25591 25594 25566 25579 25564 25655 25640 25576 25575 25542 25485 25494 25507 25524 25503 25526 25549 25547 25640 25646 25643 25577 25511 25484 25571 25618 25631 25641 25690 25699 25714 25749 25772 25806 25742 25723 25700 25713 25768 25794 25853 25878 25894 25982 25981 26077 26129 26082 26081 26015 25981 26026 26032 26092 26141 26137 26133 26155 26080 26314 26358 26491 26498 26495 26507 26500 26548 26574 26641 26681 26705 26789 26848 26949 27049 27104 27048 26974 26859 26899 26880 26889 26881 26864 26932 26988 26944 27073 27107 27081 26978 27061 27116 27207 27252 27346 27491 27418 27333 27264 27116 27043 26884 26912 26788 26744 26663 26691 26639 26747 26744 26834 26825 26913 26916 26932 26862 26829 26693 26643 26599 26647 26640 26677 26694 26692 26667 26663 26660 26644 26560 26524 26439 26429 26367 26301 26251 26277 26241 26303 26317 26319 26267 26236 26103 26002 25942 25936 25967 26057 26103 26130 26130 26153 26138 26102 26058 25979 25909 25846 25868 25873 25937 25959 26047 26083 26134 26172 26212 26140 26117 26048 25943 25902 25890 25967 25972 26034 26089 26101 26086 26123 26137 26092 25992 25917 25860 25898 25921 25982 26002 26070 26067 26080 26108 26146 26165 26084 25987 25905 25822 25763 25656 25630 25576 25489 25424 25392 25382 25348 25269 25235 25232 25260 25319 25379 25414 25434 25401 25414 25484 25526 25572 25514 25498 25443 25481 25556 25613 25730 25814 25830 25922 25906 25914 25921 25835 25770 25637 25530 25508 25513 25542 25568 25598 25637 25683 25717 25756 25712 25685 25604 25610 25630 25663 25727 25724 25746 25789 25820 25865 25902 25898 25890 25933 25984 26015 26030 25981 25942 25911 25912 25911 25882 25875 25796 25740 25692 25697 25720 25746 25763 25826 25861 25924 25968 25990 26031 25990 25924 25853 25873 25906 25952 25994 26045 26041 26097 26075 26146 26165 26168 26118 26070 26072 26041 26076 26092 26126 26144 26174 26196 26238 26217 26189 26076 26005 25943 25954 25950 25956 25966 25991 25988 25992 25976 25947 25864 25768 25725 25742 25798 25836 25893 25934 25980 25995 26004 26012 26034 26050 26029 26045 26076 26141 26163 26267 26290 26326 26368 26379 26351 26279 26164 26043 25886 25777 25720 25697 25700 25751 25730 25762 25790 25861 25906 25962 25956 25968 26008 26074 26137 26178 26251 26324 26278 26301 26315 26349 26262 26118 26084 26025 26047 26058 26147 26162 26182 26231 26238 26198 26209 26149 26092 26072 26068 26116 26218 26229 26276 26282 26348 26336 26331 26256 26138 25996 25918 25864 25875 25906 25923 25945 25976 25989 25998 25991 25902 25820 25714 25626 25575 25570 25546 25605 25595 25583 25630 25673 25701 25615 25573 25559 25633 25665 25696 25663 25689 25665 25638 25664 25690 25674 25596 25460 25355 25253 25190 25125 25079 25060 25045 25050 25050 25076 25123 25075 24986 24890 24847 24847 24879 24883 24881 24885 24871 24875 24864 24919 24883 24920 24968 25002 25103 25212 25285 25434 25555 25625 25655 25715 25678 25613 25554 25596 25595 25681 25671 25719 25715 25708 25731 25777 25764 25688 25582 25564 25568 25611 25658 25704 25709 25729 25764 25778 25772 25748 25686 25578 25482 25375 25308 25239 25202 25229 25267 25420 25612 25729 25862 25882 25900 25899 25906 25908 25939 26014 26099 26193 26274 26348 26427 26459 26467 26444 26413 26420 26471 26494 26499 26562 26541 26556 26568 26576 26577 26555 26559 26532 26538 26615 26601 26632 26742 26828 26973 27253 27412 27471 27437 27358 27296 27301 27247 27230 27132 27038 26929 26853 26702 26609 26453 26321 26164 26126 26044 26031 25904 25751 25707 25675 25675 25642 25608 25491 25346 25214 25200 25183 25186 25211 25245 25300 25301 25327 25327 25364 25313 25295 25256 25252 25244 25288 25319 25371 25404 25433 25472 25482 25429 25330 25255 25228 25212 25235 25265 25269 25274 25315 25342 25344 25360 25360 25224 25147 25135 25167 25214 25279 25333 25359 25387 25408 25450 25461 25406 25324 25316 25372 25450 25592 25736 25812 25861 25848 25772 25679 25577 25453 25375 25342 25377 25469 25595 25649 25821 25965 26113 26235 26355 26436 26558 26567 26589 26635 26667 26649 26631 26547 26317 26157 25935 25936 25851 25858 25924 25903 25957 26044 26101 26249 26113 26440 26301 26544 26421 26498 26515 26458 26474 26490 26410 26554 26463 26591 26602 26629 26660 26684 26575 26612 26583 26490 26504 26546 26565 26611 26640 26638 26626 26683 26729 26667 26520 26521 26465 26501 26476 26453 26424 26458 26508 26519 26493 26409 26298 26244 26241 26235 26242 26280 26305 26358 26374 26398 26406 26421 26398 26366 26361 26353 26351 26334 26350 26415 26484 26542 26590 26630 26646 26618 26571 26522 26469 26449 26408 26380 26374 26367 26320 26305 26334 26362 26332 26298 26215 26132 26060 26053 26065 26094 26144 26182 26238 26281 26276 26213 26150 26203 26316 26432 26555 26696 26783 26844 26866 26845 26764 26653 26490 26307 26163 26031 25928 25840 25782 25733 25702 25692 25672 25676 25684 25624 25567 25519 25478 25445 25459 25489 25486 25482 25491 25487 25486 25498 25422 25377 25396 25488 25578 25617 25635 25683 25690 25655 25627 25627 25611 25587 25517 25498 25487 25492 25480 25496 25465 25473 25460 25469 25491 25524 25465 25413 25375 25346 25334 25330 25360 25373 25372 25372 25384 25383 25381 25340 25272 25233 25222 25194 25175 25156 25151 25142 25120 25095 25084 25043 24954 24877 24837 24809 24778 24729 24701 24679 24659 24604 24599 24569 24502 24437 24412 24439 24490 24534 24556 24585 24604 24620 24607 24607 24597 24525 24494 24490 24518 24541 24591 24604 24642 24641 24642 24631 24607 24517 24433 24393 24394 24413 24504 24549 24622 24678 24721 24745 24776 24777 24707 24618 24577 24590 24612 24617 24619 24650 24683 24701 24712 24692 24625 24492 24405 24401 24443 24485 24515 24537 24542 24551 24578 24595 24626 24588 24540 24556 24569 24595 24595 24581 24584 24554 24574 24611 24618 24613 24550 24486 24491 24504 24530 24589 24603 24601 24587 24591 24601 24642 24603 24560 24522 24543 24568 24584 24605 24624 24639 24663 24727 24803 24783 24754 24754 24775 24804 24848 24898 24949 24977 25030 25053 25050 25047 24978 24879 24835 24856 24878 24949 24986 25054 25079 25115 25143 25156 25177 25110 25100 25110 25144 25167 25195 25203 25222 25214 25226 25229 25191 25067 24985 24953 24910 24930 24927 24937 24951 24969 24991 24994 25015 24988 24931 24900 24889 24920 24956 24992 25027 25026 25063 25083 25106 25139 25102 25057 25059 25041 25080 25110 25157 25186 25199 25232 25247 25260 25253 25195 25156 25145 25155 25194 25218 25232 25234 25245 25236 25244 25253 25243 25166 25113 25098 25107 25122 25154 25181 25167 25169 25178 25194 25217 25185 25111 25057 25061 25067 25112 25128 25158 25172 25189 25215 25228 25258 25216 25150 25112 25105 25148 25199 25232 25248 25265 25288 25314 25331 25361 25334 25225 25199 25194 25210 25261 25284 25304 25322 25355 25350 25392 25407 25378 25284 25224 25212 25235 25285 25313 25328 25346 25355 25358 25387 25406 25433 25367 25297 25263 25242 25258 25274 25271 25266 25277 25272 25265 25291 25298 25236 25180 25133 25135 25171 25227 25254 25295 25406 25562 25737 25924 26135 26268 26319 26348 26423 26499 26607 26656 26693 26698 26654 26567 26495 26413 26290 26116 25944 25833 25735 25695 25670 25650 25621 25617 25603 25591 25581 25577 25502 25414 25354 25336 25347 25366 25376 25393 25377 25390 25396 25405 25424 25425 25312 25221 25172 25171 25171 25190 25196 25196 25178 25195 25213 25203 25211 25136 25053 25028 25052 25081 25104 25129 25123 25133 25153 25173 25195 25200 25097 24988 24939 24933 24948 24966 24961 24957 24945 24951 24964 24972 24971 24893 24799 24757 24751 24769 24792 24830 24868 24898 24934 24980 24983 24987 24943 24848 24771 24725 24718 24755 24777 24814 24813 24823 24830 24881 24926 24949 24893 24815 24785 24828 24869 24904 24919 24907 24890 24809 24754 24728 24705 24696 24563 24478 24458 24464 24489 24503 24531 24529 24553 24568 24595 24638 24631 24550 24506 24500 24536 24589 24641 24705 24719 24779 24798 24855 24911 24924 24872 24812 24803 24808 24852 24886 24937 24965 25000 25009 25029 25062 25069 25060 25017 24945 24902 24916 24931 24974 25005 25012 25032 25050 25071 25115 25134 25147 25105 25012 24982 24988 25004 25029 25051 25074 25071 25084 25100 25113 25131 25131 25091 25020 24977 24979 25013 25044 25072 25084 25099 25111 25154 25168 25191 25199 25148 25066 25065 25069 25105 25148 25217 25232 25261 25290 25314 25330 25365 25403 25404 25348 25308 25301 25331 25363 25400 25420 25440 25468 25481 25505 25545 25570 25598 25554 25477 25451 25453 25486 25530 25559 25568 25597 25595 25613 25625 25630 25660 25665 25581 25499 25481 25471 25502 25511 25528 25541 25533 25532 25541 25549 25536 25537 25506 25408 25335 25308 25306 25340 25360 25349 25350 25356 25366 25373 25398 25420 25407 25301 25219 25177 25190 25207 25231 25264 25258 25290 25293 25308 25332 25337 25340 25257 25129 25080 25064 25102 25138 25136 25142 25158 25168 25172 25180 25207 25218 25155 25030 24932 24920 24942 24961 24962 24952 24956 24955 24969 24969 24987 25016 25010 24934 24843 24820 24822 24849 24885 24878 24871 24865 24868 24865 24893 24903 24912 24878 24798 24714 24711 24724 24749 24761 24749 24746 24757 24769 24789 24805 24825 24852 24803 24723 24700 24702 24732 24766 24776 24778 24791 24812 24849 24853 24870 24888 24886 24829 24752 24733 24771 24794 24823 24853 24856 24868 24900 24925 24950 24965 24974 24942 24807 24704 24660 24651 24679 24737 24813 24861 24897 24946 25015 25140 25293 25536 25824 26103 26231 26302 26364 26383 26368 26394 26388 26336 26366 26296 26236 26214 26184 26209 26151 26121 26132 26111 26108 26058 25997 25951 25857 25849 25873 25889 25808 25780 25820 25774 25710 25677 25658 25650 25649 25701 25789 25894 25942 26026 26112 26097 26075 26123 25995 26008 26043 26076 26095 26102 26066 26023 25998 26047 26076 26279 26371 26401 26431 26434 26469 26517 26571 26559 26597 26577 26508 26477 26543 26630 26695 26802 26931 26982 27134 27218 27290 27261 27201 27052 26778 26716 26733 26862 26815 26810 26774 26688 26674 26731 26676 26691 26815 26694 26725 26802 26882 26772 26862 26804 26894 26581 26642 26497 26483 26425 26544 26497 26502 26533 26479 26457 26393 26353 26174 25984 25839 25781 25717 25726 25728 25676 25732 25684 25764 25740 25717 25691 25592 25393 25265 25194 25189 25256 25358 25362 25508 25546 25630 25660 25709 25713 25677 25621 25477 25619 25561 25648 25715 25747 25731 25794 25792 25788 25849 25809 25879 25756 25637 25519 25411 25390 25391 25389 25420 25422 25451 25510 25548 25589 25669 25650 25557 25497 25463 25465 25514 25553 25576 25585 25645 25655 25619 25609 25605 25655 25704 25569 25645 25617 25721 25758 25800 25854 25878 25903 25900 25931 25868 25925 25864 25728 25581 25462 25383 25355 25360 25380 25404 25387 25392 25405 25471 25552 25584 25666 25653 25663 25657 25662 25692 25742 25773 25800 25843 25858 25902 25913 25966 26028 26054 26071 26010 25965 25949 25975 25963 25984 25935 25907 25884 25890 25943 25957 25990 26056 26095 26070 26066 26011 25967 25979 26047 26025 26022 25996 25953 25936 25945 25965 26000 26044 25988 25931 25892 25872 25868 25846 25856 25881 25894 25936 25964 25976 26011 26023 26015 25943 25876 25745 25682 25561 25457 25405 25371 25375 25353 25365 25303 25277 25246 25205 25089 24985 24903 24883 24908 24929 24991 25020 25013 25000 24990 24989 24985 24991 24978 24945 24864 24770 24748 24767 24813 24846 24871 24920 24967 25016 25050 25115 25238 25319 25410 25501 25537 25636 25587 25631 25628 25689 25725 25846 25946 26059 26194 26257 26370 26427 26485 26420 26389 26309 26211 26018 25968 26017 26016 25991 25926 25915 25877 25855 25782 25729 25653 25560 25523 25564 25567 25596 25668 25782 25836 25880 25896 25977 26039 26051 26110 26077 26011 25985 25981 25974 25974 25982 26009 26022 26059 26081 26053 26053 26055 26015 25974 25874 25813 25764 25742 25721 25753 25723 25676 25664 25644 25713 25721 25798 25839 25890 25894 25845 25821 25790 25767 25780 25780 25798 25791 25768 25736 25746 25736 25717 25638 25588 25623 25579 25558 25552 25516 25514 25528 25576 25628 25668 25746 25773 25708 25727 25757 25807 25832 25894 25922 25897 25828 25794 25734 25662 25679 25689 25627 25573 26065 26333 26871 26841 26527 26413 26332 26222 26365 26431 26515 26580 26552 26414 26381 26391 26357 26490 26571 26545 26531 26544 26479 26467 26446 26500 26456 26340 26271 26211 26151 26091 25984 25930 25882 25831 25817 25785 25800 25695 25557 25414 25368 25315 25319 25316 25303 25358 25327 25458 25404 25208 25456 25450 25419 25021 25218 25213 25175 25039 25331 25520 25247 25571 25284 25660 25588 25634 25403 25482 25521 25532 25680 25545 25802 25642 25838 25828 25874 25987 25826 25809 25626 25674 25709 25601 25710 25704 25662 25799 25710 25722 25708 25682 25568 25521 25457 25416 25438 25401 25502 25510 25535 25590 25620 25654 25684 25666 25562 25487 25436 25418 25464 25530 25525 25594 25587 25610 25651 25648 25700 25676 25500 25452 25354 25376 25612 25606 25778 25732 25797 25835 25916 25929 25951 25938 25851 25798 25804 25768 25829 25771 25826 25822 25889 25961 25990 26121 26055 25990 25796 25906 25900 25910 26003 25876 26006 26067 26070 26178 26073 26182 26220 26145 26119 26114 26175 26183 26199 26228 26236 26253 26286 26337 26380 26409 26423 26385 26432 26387 25995 26171 26677 27053 27274 27380 27514 27536 27590 27678 27586 27564 27520 27541 27479 27506 27531 27602 27615 27652 27759 27719 27738 27843 27767 27781 27666 27738 27811 27791 27866 27968 27892 27969 27934 27929 27929 27842 27717 27575 27409 27244 27154 27237 27204 27182 27165 27193 27205 27226 27198 27103 26907 26763 26697 26710 26737 26785 26909 27126 27250 27303 27381 27465 27478 27500 27380 27386 27456 27453 27586 27619 27503 27484 27377 27360 27357 27297 27156 26985 26906 26822 26798 26877 26991 27009 27145 27142 27260 27224 27262 27258 27162 26999 26906 26802 26873 26974 26947 27016 26911 26900 26816 26824 26737 26645 26498 26340 26229 26172 26146 26107 26081 26051 26006 26004 26039 26019 26064 25932 25901 25800 25777 25723 25709 25626 25687 25708 25668 25708 25659 25641 25613 25472 25403 25422 25392 25406 25389 25390 25389 25410 25459 25496 25489 25556 25477 25487 25442 25465 25561 25607 25625 25680 25696 25717 25840 25889 26011 25993 25929 25987 25902 25983 25963 25986 25974 26066 26027 26079 26036 26064 26205 26121 26248 26328 26180 26242 26260 26294 26409 26406 26547 26474 26543 26479 26871 26700 26789 26865 26797 26849 26961 26943 26999 27004 27080 27066 27226 27290 27258 27239 27225 27012 27293 27266 27285 27394 27261 27393 27402 27478 27472 27377 27416 27328 27275 27176 27179 27121 27092 27117 27052 27052 27010 26989 26978 26977 26923 26786 26734 26659 26640 26588 26561 26521 26431 26412 26368 26404 26413 26458 26470 26325 26297 26164 26170 26184 26100 26049 26031 26009 26017 26073 26100 26158 26113 25987 25981 25951 25990 25971 25967 26028 26026 26081 26070 26090 26061 26083 25988 25878 25815 25786 25740 25759 25766 25715 25796 25724 25941 25981 25936 25993 25959 25775 25831 25764 25748 25737 25867 25865 25789 25881 25805 25803 25770 25650 25571 25518 25463 25519 25526 25555 25584 25629 25622 25616 25641 25650 25650 25594 25604 25589 25613 25703 25709 25767 25826 25875 25967 25987 26011 26074 26087 26076 26120 26109 26136 26138 26217 26167 26192 26336 26321 26355 26288 26330 26276 26350 26295 26387 26453 26437 26524 26605 26753 26801 26821 26879 26993 26863 26841 26890 26861 26878 26874 26851 26944 26868 26905 27011 27027 26898 26976 26899 27058 27078 27084 27073 27058 27027 27076 27033 27119 27075 26924 26891 26735 26664 26582 26623 26623 26568 26636 26592 26703 26661 26676 26613 26568 26609 26546 26628 26582 26669 26672 26641 26626 26596 26596 26401 26422 26295 26388 26352 26367 26385 26380 26405 26348 26392 26357 26228 26113 26007 25903 25892 25861 25910 25864 25902 25952 25916 25935 25975 25838 25726 25645 25686 25699 25728 25782 25836 25928 25935 26051 26125 26125 26134 25982 25921 25796 25786 25729 25764 25890 26050 26278 26359 26656 26763 26727 26814 26829 26943 27023 27033 27091 27130 27141 27114 27139 27224 27160 27034 26920 26784 26749 26621 26658 26572 26573 26569 26531 26533 26574 26532 26497 26445 26423 26402 26410 26423 26416 26389 26456 26485 26550 26590 26613 26571 26550 26534 26563 26533 26582 26621 26643 26659 26669 26740 26694 26629 26562 26535 26559 26553 26613 26587 26619 26602 26645 26663 26743 26772 26770 26686 26678 26567 26542 26564 26512 26558 26551 26640 26545 26530 26468 26425 26418 26421 26461 26496 26594 26623 26624 26630 26739 26689 26688 26609 26562 26569 26535 26537 26567 26646 26714 26715 26815 26895 26859 27052 26929 26920 26863 26807 26765 26722 26748 26763 26734 26730 26757 26776 26794 26734 26703 26715 26632 26739 26687 26771 26777 26754 26853 26852 26934 26762 26681 26608 26640 26626 26723 26834 26905 26947 27039 27026 27066 27004 26874 26783 26679 26651 26596 26531 26529 26518 26504 26462 26376 26362 26247 26317 26312 26330 26336 26329 26419 26436 26505 26483 26593 26584 26557 26490 26417 26452 26463 26499 26508 26480 26497 26449 26539 26555 26650 26608 26730 26795 26900 26947 27003 27060 27125 27242 27326 27459 27362 27291 27179 27052 26956 27000 26957 27005 26957 26947 26856 26822 26741 26674 26509 26424 26388 26497 26661 26831 26935 26997 27099 27168 27208 27381 27279 27424 27406 27464 27505 27644 27597 27668 27725 27658 27781 27749 27701 27631 27547 27313 27533 27511 27627 27645 27621 27646 27559 27462 27393 27244 27170 27080 27039 27045 27131 27124 27162 27144 27114 27202 27160 27124 27042 26921 26842 26796 26749 26729 26681 26703 26733 26673 26785 26815 26797 26754 26701 26624 26675 26619 26623 26604 26639 26728 26714 26757 26670 26546 26516 26518 26496 26587 26580 26586 26643 26608 26687 26622 26664 26489 26366 26263 26158 26201 26180 26133 26150 26141 26210 26185 26250 26181 26063 25980 25952 25894 25891 25890 25901 25855 25915 25922 25857 25914 25807 25687 25735 25626 25690 25733 25713 25708 25686 25688 25727 25723 25681 25494 25903 25784 25885 25939 26023 26042 26060 26165 26096 26127 26121 26117 25931 25904 25913 25841 25912 25925 25918 25932 25958 25980 25991 26103 26091 26062 26048 26064 26172 26216 26247 26281 26268 26231 26238 26432 26342 26301 26330 26305 26340 26295 26361 26298 26317 26299 26395 26380 26423 26488 26392 26490 26454 26500 26427 26379 26395 26317 26309 26292 26307 26260 26261 26227 26186 26155 26183 26161 26151 26277 26305 26422 26451 26560 26538 26538 26470 26576 26545 26602 26606 26669 26618 26779 26819 26896 26838 26817 26683 26723 26641 26604 26584 26535 26605 26553 26618 26685 26637 26654 26558 26618 26597 26666 26617 26637 26635 26629 26607 26597 26553 26515 26418 26415 26492 26521 26475 26440 26454 26421 26525 26571 26567 26422 26362 26269 26325 26386 26468 26499 26491 26529 26527 26642 26617 26540 26410 26303 26411 26371 26488 26464 26487 26560 26510 26541 26498 26454 26302 26253 26198 26185 26186 26298 26302 26365 26372 26486 26475 26420 26274 26179 26127 26117 26106 26082 26102 26104 26106 26124 26176 26192 26174 26162 26168 26205 26239 26379 26393 26481 26465 26524 26500 26452 26297 26257 26226 26221 26197 26221 26172 26162 26108 26083 26046 26031 25986 25977 25972 25977 26008 26033 26024 26097 26058 26079 26106 26111 26079 26050 26041 26064 26033 26042 26048 26054 26048 26117 26132 26222 26083 26062 26057 26025 26064 26027 26177 26174 26214 26225 26265 26233 26265 26146 26141 26095 26174 26205 26194 26280 26334 26363 26344 26323 26328 26308 26216 26230 26234 26225 26219 26239 26299 26257 26275 26324 26284 26283 26222 26116 26121 26082 26099 26118 26112 26211 26262 26315 26382 26399 26325 26236 26182 26141 26147 26207 26283 26296 26391 26391 26369 26447 26413 26387 26313 26345 26335 26314 26386 26287 26267 26277 26288 26277 26264 26228 26144 26103 26118 26084 26064 26034 26004 25989 25968 25974 25945 25904 25795 25796 25799 25864 25937 25923 25873 25823 25810 25841 25857 25842 25706 25658 25635 25633 25699 25718 25784 25845 25936 25983 26036 25982 25919 25767 25701 25657 25652 25600 25630 25667 25696 25678 25652 25665 25643 25626 25609 25600 25668 25725 25787 25812 25876 25918 25931 26004 25968 25862 25767 25713 25652 25687 25662 25713 25719 25774 25810 25857 25835 25793 25727 25709 25730 25812 25787 25842 25807 25812 25811 25804 25813 25821 25828 25802 25834 25888 25938 26031 26282 26388 26549 26602 26679 26798 26731 26843 26902 27062 27271 27414 27588 27693 27729 27793 27868 27797 27744 27595 27566 27539 27532 27619 27554 27507 27493 27445 27454 27422 27277 27178 27086 27067 27038 26980 27028 27021 26993 27111 27069 27146 27097 26992 26935 26972 26979 27054 27093 27212 27204 27278 27255 27289 27241 27117 26983 26996 26965 26991 26973 26966 26921 26945 27020 26942 26859 26872 26720 26691 26678 26612 26591 26567 26495 26548 26477 26512 26396 26412 26327 26228 26189 26207 26164 26143 26292 26258 26332 26316 26229 26151 26026 25977 25921 25894 25851 25909 25935 25902 26008 25962 25889 25771 25763 25683 25681 25676 25760 25795 25848 25854 25917 25885 25693 25698 25592 25620 25612 25695 25649 25744 25751 25731 25772 25690 25546 25528 25597 25524 25611 25649 25723 25691 25660 25672 25685 25644 25585 25483 25533 25498 25490 25531 25544 25563 25548 25557 25552 25494 25411 25383 25419 25380 25405 25453 25433 25435 25482 25613 25594 25633 25556 25469 25559 25595 25618 25716 25691 25751 25830 25845 25935 25837 25815 25747 25709 25722 25760 25778 25815 25839 25833 25835 25840 25758 25813 25748 25758 25780 25875 25888 25955 25932 25920 25928 25908 25808 25739 25810 25808 25894 25918 25893 25944 25933 25996 25949 25964 25911 25952 25992 26042 26045 26084 26059 26078 26097 26070 26163 26127 26243 26204 26251 26227 26264 26313 26351 26351 26427 26560 26606 26679 26678 26699 26725 26664 26644 26643 26668 26703 26699 26691 26576 26594 26546 26599 26594 26716 26701 26826 26951 26976 26961 26976 26845 26739 26707 26675 26626 26737 26717 26694 26770 26852 26934 26876 26882 26839 26842 26811 26789 26730 26816 26759 26752 26730 26731 26603 26546 26499 26448 26386 26380 26480 26507 26513 26502 26521 26438 26335 26287 26298 26214 26194 26189 26163 26126 26156 26184 26197 26063 26017 25961 25951 25949 26017 26009 26031 26050 26066 26067 25983 25873 25731 25655 25654 25662 25650 25730 25780 25796 25773 25798 25726 25601 25597 25603 25608 25686 25704 25748 25740 25765 25748 25674 25552 25458 25512 25487 25533 25512 25544 25540 25601 25643 25642 25582 25477 25551 25564 25636 25662 25732 25709 25744 25767 25822 25749 25653 25577 25542 25510 25550 25542 25626 25661 25711 25781 25751 25769 25723 25677 25638 25616 25628 25645 25709 25726 25760 25772 25696 25637 25651 25692 25780 25791 25867 25920 25973 26041 25990 25993 25900 25851 25842 25821 25904 25891 25979 25996 25935 25979 25904 25892 25824 25924 25962 25977 26017 26097 26054 26087 26110 26124 26094 26087 26140 26152 26143 26114 26135 26154 26138 26097 26129 26054 26007 25957 25986 25994 25924 25971 25988 25965 26027 26053 26080 26014 26020 26012 25956 26045 26085 26155 26156 26370 26327 26397 26279 26128 26073 25991 25969 25965 25997 26030 26084 26155 26145 26072 25984 25987 25971 26040 26047 26082 26057 26069 26038 25980 25881 25745 25656 25650 25721 25757 25788 25851 25800 25910 25905 25847 25720 25701 25663 25720 25736 25852 25944 25948 25967 25992 25941 25844 25756 25732 25699 25663 25704 25793 25819 25804 25853 25820 25706 25611 25580 25562 25541 25572 25551 25610 25583 25696 25722 25610 25515 25468 25460 25486 25528 25508 25514 25563 25587 25608 25481 25373 25297 25267 25264 25307 25421 25438 25466 25515 25546 25476 25417 25375 25380 25406 25455 25570 25637 25684 25665 25619 25578 25432 25421 25433 25506 25491 25514 25500 25565 25581 25655 25638 25501 25492 25478 25487 25516 25494 25578 25578 25553 25611 25627 25546 25481 25482 25425 25492 25529 25603 25678 25733 25778 25795 25719 25641 25641 25585 25584 25602 25666 25741 25823 25848 25878 25768 25679 25719 25723 25816 25890 25989 26014 26136 26194 26285 26233 26044 26075 25986 25987 25987 26023 26024 26013 26051 26017 26048 25968 26014 26021 26046 26112 26155 26184 26174 26175 26122 26039 25930 25884 25926 25928 25994 26080 26104 26145 26225 26211 26139 26023 25960 25982 25924 25919 25935 25975 26063 26087 26130 26086 26002 25867 25837 25901 25887 25959 25929 25942 25996 25996 26045 25959 25890 25842 25955 25943 25938 25959 25945 25999 26099 26091 26026 25968 25913 25860 25821 25825 25819 25815 25814 25820 25759 25625 25540 25510 25478 25483 25464 25468 25487 25524 25497 25461 25432 25320 25319 25326 25359 25403 25442 25395 25412 25401 25358 25295 25175 25177 25158 25201 25259 25337 25407 25486 25518 25543 25496 25459 25399 25430 25446 25561 25708 25848 25957 26083 26102 26078 25985 25890 25889 25858 25914 25973 25930 25942 25957 25946 25911 25938 26060 26154 26217 26359 26387 26599 26690 26717 26889 26842 26933 26890 26910 26889 26887 26765 26689 26550 26449 26324 26281 26173 26113 26028 25991 25904 25886 25870 25882 25834 25860 25836 25722 25637 25548 25383 25402 25539 25790 26045 26168 26316 26367 26321 26378 26349 26352 26436 26518 26556 26664 26626 26739 26780 26692 26646 26720 26733 26874 26966 27102 27010 27061 27057 26991 26990 26783 26825 26785 26674 26655 26637 26560 26654 26585 26633 26620 26449 26363 26361 26366 26357 26367 26360 26342 26330 26251 26140 25925 25717 25596 25538 25552 25649 25754 25948 26031 26131 26135 25996 25738 25467 25288 25234 25245 25330 25406 25518 25639 25720 25658 25533 25489 25505 25524 25612 25721 25796 25852 25882 25933 25804 25644 25517 25465 25444 25372 25334 25238 25197 25170 25185 25153 24997 24915 24897 24931 24951 24947 24941 24944 24939 24938 24941 24806 24720 24620 24585 24561 24566 24591 24701 24724 24844 24863 24879 24843 24826 24882 24969 25057 25095 25139 25146 25186 25211 25119 25040 25041 25037 25111 25172 25206 25251 25274 25379 25370 25369 25248 25185 25259 25259 25348 25391 25407 25515 25656 25716 25845 25781 25761 25818 25793 25838 25873 25916 26017 26027 26074 26157 26122 26105 26016 25999 25913 25924 25983 26007 25983 26021 25990 25940 25861 25806 25785 25832 25783 25909 25906 25955 25945 25942 25900 25799 25807 25788 25771 25761 25814 25864 25838 25912 25884 25905 25819 25726 25659 25618 25624 25774 25970 26012 26019 26134 26172 26579 26676 26714 26775 26873 26926 27002 27011 27073 27043 27150 27030 26939 26908 26818 26808 26819 26788 26771 26749 26665 26666 26615 26388 26203 26096 26024 25998 25981 25945 25920 25911 25904 25882 25762 25595 25551 25483 25528 25525 25620 25647 25658 25658 25679 25572 25448 25360 25387 25440 25492 25528 25554 25554 25577 25616 25551 25382 25261 25190 25159 25258 25307 25403 25391 25424 25449 25495 25383 25221 25205 25171 25193 25210 25315 25352 25452 25426 25421 25388 25218 25120 25067 25063 25063 25077 25092 25125 25137 25135 25110 24993 24907 24849 24880 24904 24980 25008 25022 25095 25183 25197 25112 24990 24959 24930 24945 24899 24937 24929 24944 24977 25031 24949 24876 24813 24831 24847 24884 24915 24963 25017 25083 25112 25106 24983 25010 24968 24985 25019 25077 25130 25109 25106 25123 25188 25103 25027 24989 25000 25010 25060 25100 25097 25171 25186 25450 25341 25323 25223 25204 25262 25258 25308 25332 25312 25332 25307 25226 25113 25088 25098 25109 25130 25169 25173 25239 25252 25295 25227 25185 25151 25166 25291 25401 25580 25804 25991 26061 26328 26465 26429 26428 26438 26441 26420 26455 26407 26678 26648 26787 26775 26758 26752 26756 26770 26823 26962 26989 27075 27021 27111 27084 26979 26882 26797 26815 26698 26696 26802 26904 27010 27188 27236 27323 27314 27250 27200 27233 27095 27072 27088 27101 27188 27149 27246 27093 27103 27070 27061 26971 26807 26704 26600 26522 26430 26404 26273 26165 26077 26068 26123 26213 26319 26379 26454 26546 26577 26504 26397 26374 26326 26301 26331 26373 26386 26421 26492 26525 26567 26487 26346 26379 26254 26110 26023 26095 26126 26156 26133 26181 26089 25888 25776 25683 25626 25627 25602 25574 25577 25549 25544 25541 25416 25370 25346 25390 25453 25539 25591 25600 25623 25684 25812 25888 25999 26051 26108 26172 26275 26278 26243 26353 26348 26321 26235 26056 26007 25956 25989 26021 26110 26168 26259 26263 26361 26359 26283 26134 26147 26123 26043 26104 26077 26168 26148 26214 26223 26215 26126 26086 26041 26094 26133 26073 26217 26177 26216 26181 26323 26197 26144 26005 25988 26027 25988 26057 25964 26053 26063 26048 26071 25922 25879 25782 25706 25713 25720 25795 25890 25985 26066 26089 26103 26083 26202 26163 26221 26207 26314 26309 26268 26271 26268 26211 26138 26038 26021 25974 25961 25993 26003 26008 25971 25966 25993 25912 25848 25798 25792 25829 25871 25950 26003 26094 26130 26265 26290 26208 26071 25959 25951 25892 25921 25886 25827 25832 25805 25913 25906 25840 25766 25714 25718 25821 25911 26071 26000 25922 25826 25770 25586 25358 25232 25200 25266 25294 25343 25358 25415 25488 25561 25603 25551 25441 25423 25460 25558 25642 25734 25817 25863 25905 26003 26005 25921 25909 25884 25950 26034 26158 26188 26225 26293 26375 26369 26311 26170 26026 26024 25965 26013 25989 26005 25931 26039 26021 26025 25851 25649 25547 25385 25697 25807 25961 25944 25879 25792 25712 25563 25356 25199 25118 25040 25111 25211 25379 25409 25378 25362 25311 25231 25057 24837 24744 24671 24646 24639 24636 24666 24710 24775 24809 24756 24702 24708 24714 24734 24722 24784 24796 24762 24777 24755 24554 24441 24243 24262 24225 24367 24401 24508 24481 24488 24459 24451 24346 24277 24213 24234 24406 24508 24522 24635 24667 24810 24824 24766 24649 24618 24570 24527 24586 24721 25101 25140 25221 25164 25122 24926 24792 24696 24632 24653 24679 24637 24681 24697 24713 24713 24715 24635 24568 24604 24731 24832 24923 24864 24810 24712 24673 24676 24639 24582 24538 24542 24578 24594 24641 24673 24695 24742 24764 24782 24696 24600 24560 24582 24639 24716 24842 24935 25044 25095 25162 25185 25159 25089 25065 25068 25025 25004 24951 25026 25029 25103 25122 25119 25046 24993 24973 24899 24935 25016 25152 25146 25314 25361 25442 25473 25429 25489 25485 25510 25552 25598 25597 25564 25517 25466 25497 25410 25384 25392 25409 25444 25473 25455 25507 25498 25619 25608 25609 25519 25563 25551 25669 25637 25752 25812 25855 25835 25852 25784 25709 25626 25562 25605 25655 25711 25724 25792 25750 25868 25871 25891 25865 25816 25799 25810 25808 25867 25933 25967 26037 25999 26116 26020 25863 25767 25746 25723 25698 25724 25822 25878 25937 25905 25886 25802 25769 25737 25681 25672 25702 25799 25872 25916 25929 25897 25804 25709 25623 25669 25688 25710 25683 25775 25790 25955 25932 25903 25801 25703 25700 25687 25693 25738 25785 25796 25855 25853 25853 25695 25581 25514 25542 25532 25576 25547 25542 25525 25517 25554 25456 25358 25313 25246 25245 25264 25354 25360 25381 25491 25489 25532 25353 25266 25313 25222 25285 25292 25309 25313 25297 25356 25347 25368 25256 25196 25149 25175 25198 25275 25310 25306 25335 25391 25322 25201 25281 25155 25348 25299 25406 25372 25408 25418 25458 25458 25436 25315 25273 25347 25333 25445 25422 25533 25598 25597 25639 25570 25442 25347 25285 25214 25177 25211 25247 25279 25238 25242 25225 25205 25158 25104 25106 25162 25210 25302 25265 25268 25270 25274 25273 25287 25168 25194 25229 25294 25417 25372 25389 25380 25407 25470 25455 25371 25301 25294 25286 25371 25431 25453 25507 25471 25543 25520 25471 25459 25424 25453 25466 25479 25549 25581 25641 25790 25848 25887 25783 25750 25687 25663 25622 25607 25545 25555 25519 25534 25547 25581 25549 25435 25431 25391 25460 25526 25570 25715 25729 25905 25881 26018 25861 25782 25731 25716 25677 25661 25629 25687 25730 25954 25914 25835 25687 25565 25560 25507 25563 25582 25619 25658 25690 25722 25764 25628 25531 25472 25401 25450 25430 25326 25695 25697 25895 26150 26023 25929 25943 25799 25800 25739 25706 25661 25653 25816 25835 25824 25814 25670 25514 25451 25447 25470 25501 25586 25671 25736 25741 25966 25870 25884 25800 25876 25840 25877 25825 25887 25860 25808 25797 25735 25578 25497 25479 25451 25547 25619 25663 25770 25822 25843 25767 25924 25692 25662 25596 25521 25550 25566 25573 25502 25521 25501 25437 25393 25318 25345 25255 25600 25543 25716 25963 25969 26194 26167 26231 26016 25977 26269 26855 26983 27165 27045 27059 26925 26920 26736 26506 26271 26158 26044 25981 25961 25944 26052 26261 26280 26468 26372 26255 26078 26034 25924 25930 25872 25959 25930 25964 25969 25961 26180 26031 26002 26164 26004 26287 26332 26436 26531 26580 26531 26352 26121 25951 25935 25820 25991 25949 26020 26025 26088 26083 26046 25978 25870 25747 25835 25824 25983 25948 26045 26020 26046 26040 26015 25811 25717 25629 25573 25634 25680 25761 25864 25827 25948 25897 25821 25642 25496 25453 25451 25476 25539 25533 25552 25547 25521 25442 25254 25083 24990 24994 25045 25137 25193 25263 25321 25385 25446 25417 25361 25343 25334 25395 25385 25416 25348 25454 25376 25427 25452 25296 25254 25186 25181 25194 25260 25203 25315 25313 25356 25382 25306 25176 25118 25056 25104 25156 25243 25370 25459 25590 25657 25788 25774 25679 25640 25536 25547 25517 25577 25601 25571 25536 25471 25395 25236 25121 25040 25092 25062 25220 25275 25334 25382 25452 25480 25426 25355 25239 25319 25362 25368 25531 25539 25573 25646 25653 25672 25605 25338 25292 25528 25613 25730 25761 25756 25919 25843 25918 26062 25911 25962 25842 25865 25877 25849 25865 25742 25759 25781 25786 25829 25678 25642 25659 25660 25779 25864 25891 25950 26018 26090 26116 26083 25987 25995 25820 25632 25679 25814 25890 25891 25869 25763 25680 25410 25307 25168 25079 25021 25047 25072 25072 25289 25336 25448 25429 25233 25184 25158 25109 25081 25036 25039 25013 24994 24968 25149 25095 24972 24870 24793 24812 24942 24906 24947 25024 25076 24999 24990 24822 24656 24566 24626 24645 24658 24697 24673 24715 24798 24863 24807 24628 24468 24391 24397 24470 24486 24602 24643 24901 24892 24983 24823 24734 24579 24526 24527 24573 24644 24660 24736 24751 24760 24728 24687 24497 24440 24410 24445 24467 24525 24561 24573 24628 24714 24735 24668 24560 24494 24465 24480 24497 24521 24555 24582 24724 24887 25108 25198 25156 25070 24943 24834 24805 24853 24817 24884 24911 25150 25068 25039 24902 24869 24890 24959 25026 25039 25063 25045 25125 25146 25143 25199 25138 25158 25125 25171 25167 25165 25162 25160 25147 25136 25118 25003 24896 24866 24862 24939 24978 25013 25036 25057 25119 25121 25109 25024 24974 24998 24984 25012 25130 25187 25152 25143 25134 25094 25153 25104 25067 25015 25015 25043 25094 25129 25176 25183 25203 25184 25152 25043 25012 25021 25047 25055 25152 25178 25212 25195 25189 25184 25153 25052 25014 24993 24974 24978 24997 25050 25063 25151 25155 25190 25168 25092 25006 24956 24940 24842 24685 24464 24215 23926 23740 23597 23451 23269 23185 23220 23302 23460 23580 23669 23718 23746 23784 23844 23783 23656 23529 23500 23507 23548 23551 23611 23576 23610 23666 23704 23762 23622 23587 23558 23601 23626 23666 23661 23680 23677 23664 23679 23632 23606 23625 23640 23700 23794 23898 23964 24024 24143 24191 24366 24344 24310 24190 24168 24115 24104 24094 24098 24140 24169 24163 24156 24124 24119 24135 24151 24187 24248 24289 24354 24382 24428 24509 24557 24529 24470 24433 24521 24690 24692 24718 24681 24684 24682 24670 24639 24593 24546 24547 24532 24564 24600 24605 24677 24710 24746 24706 24644 24631 24622 24636 24672 24687 24713 24774 24803 24845 24852 24830 24734 24728 24769 24797 24825 24896 24966 25001 24991 24973 24918 24826 24764 24720 24671 24678 24759 24993 25213 25330 25306 25187 24990 24843 24762 24706 24673 24711 24743 24816 24911 24934 24967 24988 24930 24916 24920 24913 25000 25089 25145 25157 25175 25192 25147 25040 25056 25076 25064 25149 25290 25254 25570 25610 25692 25550 25412 25540 25544 25573 25615 25564 25626 25611 25616 25554 25516 25369 25314 25234 25231 25219 25286 25279 25287 25237 25242 25143 25053 24997 25000 25028 25064 25101 25082 25125 25205 25238 25212 25213 25121 25167 25220 25287 25379 25372 25498 25495 25524 25463 25381 25340 25330 25346 25379 25385 25406 25456 25509 25511 25427 25330 25294 25286 25289 25296 25290 25328 25347 25407 25428 25337 25275 25256 25265 25281 25258 25262 25260 25259 25297 25267 25158 25041 24996 25018 25089 25150 25176 25212 25291 25347 25347 25319 25308 25370 25385 25435 25440 25489 25512 25505 25476 25406 25286 25262 25249 25270 25311 25321 25281 25289 25294 25335 25271 25224 25262 25333 25391 25435 25429 25437 25404 25429 25386 25314 25342 25314 25297 25268 25286 25324 25364 25360 25342 25249 25190 25160 25184 25196 25262 25309 25359 25411 25418 25463 25388 25363 25395 25446 25520 25525 25508 25527 25537 25581 25558 25497 25487 25496 25518 25558 25596 25635 25682 25730 25727 25706 25747 25728 25754 25764 25759 25765 25792 25786 25804 25804 25706 25632 25575 25609 25645 25666 25670 25666 25687 25727 25695 25683 25665 25715 25749 25821 25893 25914 25948 25975 25994 25929 25821 25833 25834 25914 25985 26090 26137 26246 26315 26239 26152 26116 26122 26148 26200 26243 26260 26279 26291 26293 26209 26107 26050 26000 25969 25948 25895 25839 25809 25952 25984 25927 25808 25779 25792 25824 25844 25849 25865 25873 25898 25811 25721 25778 25800 25837 25835 25812 25827 25842 25833 25793 25638 25536 25537 25565 25572 25599 25571 25547 25519 25535 25481 25353 25226 25207 25221 25260 25270 25290 25314 25356 25347 25219 25082 25028 25029 25004 24985 25013 25044 25079 25060 25029 24872 24712 24652 24625 24649 24686 24697 24756 24730 24770 24755 24687 24628 24600 24569 24597 24569 24504 24552 24625 24649 24610 24569 24607 24666 24718 24800 24848 24899 24953 24968 24920 24821 24778 24788 24857 24921 25012 25017 25035 25068 25063 25081 25076 25055 25050 25065 25054 25102 25127 25143 25135 25144 25077 24994 24936 24918 24959 25030 25107 25122 25184 25240 25253 25217 25146 25160 25161 25178 25186 25204 25285 25383 25393 25352 25294 25266 25279 25366 25483 25559 25600 25683 25691 25753 25720 25718 25674 25615 25587 25626 25661 25614 25555 25575 25594 25591 25503 25473 25458 25493 25485 25501 25518 25531 25580 25620 25571 25521 25544 25538 25552 25656 25700 25697 25701 25606 25490 25378 25375 25330 25372 25427 25466 25454 25478 25505 25436 25334 25279 25293 25309 25366 25399 25473 25489 25476 25462 25336 25239 25223 25254 25277 25272 25294 25335 25367 25400 25328 25212 25156 25161 25176 25257 25306 25389 25434 25492 25496 25184 24637 24264 24249 24514 24763 24898 25070 25137 25261 25251 25171 25128 25100 25224 25273 25492 25658 25959 26071 26255 26225 26088 25997 25992 25960 25997 25943 25930 25937 25889 25887 25747 25662 25558 25505 25447 25462 25476 25523 25530 25533 25482 25370 25338 25348 25407 25448 25510 25532 25555 25604 25639 25586 25525 25404 25324 25300 25330 25395 25378 25446 25415 25787 25727 25656 25491 25475 25470 25454 25436 25456 25480 25507 25543 25541 25464 25429 25482 25443 25847 25763 25698 25341 25185 25251 25271 25267 25254 25307 25365 25406 25449 25456 25459 25522 25558 25456 25344 25299 25318 25306 25344 25364 25403 25411 25453 25489 25392 25390 25353 25371 25374 25419 25450 25518 25634 25722 25702 25551 25484 25458 25496 25577 25687 25742 25803 25855 25876 25843 25701 25540 25484 25485 25504 25531 25555 25588 25632 25683 25631 25556 25515 25551 25587 25636 25602 25658 25680 25725 25683 25509 25313 25127 25044 25000 25106 25401 25295 25647 25730 25731 25701 25552 25466 25395 25397 25440 25486 25445 25326 25247 25207 25019 24835 24739 24636 24575 24513 24449 24418 24406 24434 24411 24323 24235 24163 24154 24150 24147 24133 24084 24085 24013 23906 23884 23755 23766 23853 23919 23944 23961 23978 24018 24092 24104 24014 23852 23760 23648 23664 23623 23638 23714 23668 23947 23865 23848 23842 23839 23848 23849 23983 23983 24073 24082 24085 23951 23860 23756 23801 23786 23789 23778 23748 23741 23785 23804 23758 23736 23762 23855 23911 23981 24078 24159 24296 24430 24524 24469 24369 24296 24229 24172 24189 24178 24252 24277 24313 24266 24152 24051 24011 23977 23969 24024 24038 24062 24148 24256 24354 24342 24370 24415 24488 24531 24546 24553 24574 24552 24555 24495 24393 24294 24228 24204 24157 24153 24132 24146 24197 24240 24270 24242 24158 24135 24099 24130 24154 24163 24205 24226 24266 24317 24277 24282 24301 24348 24396 24449 24495 24517 24530 24552 24538 24477 24388 24353 24326 24365 24409 24426 24433 24482 24531 24535 24516 24449 24383 24301 24285 24309 24353 24391 24455 24565 24611 24687 24664 24620 24624 24626 24686 24717 24759 24742 24717 24728 24684 24521 24391 24326 24353 24374 24456 24524 24612 24683 24783 24901 24989 24947 24888 24915 24971 25078 25366 25566 25677 25658 25639 25511 25324 25113 24976 24918 24827 24803 24741 24746 24793 24887 24914 24889 24710 24594 24556 24502 24506 24521 24571 24606 24669 24717 24705 24635 24585 24542 24567 24594 24596 24611 24606 24625 24570 24566 24446 24361 24440 24569 24942 24937 25020 24981 25032 25019 25066 25032 24900 24778 24759 24784 24797 24838 24821 24850 24834 24881 24831 24733 24602 24558 24568 24592 24588 24642 24646 24691 24692 24733 24696 24593 24510 24476 24488 24517 24560 24536 24521 24558 24594 24598 24582 24583 24577 24616 24617 24658 24691 24691 24702 24667 24668 24579 24575 24555 24642 24731 24768 24791 24803 24913 24952 24966 24891 24848 24857 24881 24935 25012 25066 25110 25101 25181 25144 25129 25024 24960 24897 24902 24919 24965 25007 25043 25047 25012 25008 24887 24813 24786 24796 24805 24835 24881 24889 24998 25178 25217 25177 25119 25125 25160 25187 25172 25204 25239 25273 25286 25325 25276 25191 25104 25096 25098 25141 25204 25245 25301 25332 25415 25390 25317 25215 25177 25176 25136 25099 25080 25042 25038 25058 25052 24946 24867 24845 24821 24871 24844 24838 24854 24892 24891 24903 24858 24762 24709 24675 24704 24756 24859 24934 24997 25049 25062 25018 24905 24863 24846 24877 24929 24993 25019 25021 25039 25053 24968 24850 24789 24791 24793 24827 24919 24955 24981 24963 24970 24950 24885 24814 24817 24816 24850 24875 24920 24921 24913 24896 24897 24825 24737 24672 24640 24669 24697 24746 24795 25064 25398 25630 25589 25542 25431 25309 25252 25168 25064 24950 24866 24790 24769 24675 24614 24592 24662 24700 24753 24814 24863 24901 24975 25016 24944 24912 24887 24873 24945 24942 24973 24980 24956 25047 25278 25261 25369 25432 25564 25733 25801 25861 25951 25979 26026 26036 25815 25845 25699 25774 25791 25817 25825 25744 25704 25631 25551 25392 25316 25313 25309 25302 25266 25301 25269 25297 25317 25316 25245 25236 25239 25268 25305 25311 25312 25338 25341 25378 25331 25226 25196 25204 25208 25211 25322 25448 25505 25602 25492 25407 25296 25280 25400 25458 25695 25707 26047 26022 26181 26191 25988 25840 25792 25673 25656 25766 25797 25904 25858 25840 25761 25617 25428 25366 25340 25314 25323 25309 25296 25268 25303 25269 25126 24979 24935 24988 25000 25015 25041 25049 25098 25148 25072 24894 24778 24757 24821 24852 24914 24929 24954 24956 25007 25033 24927 24922 24973 25024 25055 25236 25198 25345 25345 25392 25329 25158 24963 24843 24755 24793 24768 24769 24807 24817 24841 24732 24630 24555 24524 24523 24564 24647 24720 24747 24785 24835 24774 24643 24616 24634 24679 24663 24645 24630 24617 24664 24686 24611 24461 24454 24474 24540 24599 24643 24709 24748 24781 24834 24766 24685 24741 24721 24799 24789 24855 24881 24842 24861 24783 24727 24678 24704 24724 24781 24821 24772 24765 24790 24868 24901 24851 24802 24788 24828 24875 24934 24971 25051 25097 25144 25132 24994 24912 24883 25046 25079 25173 25131 25124 25165 25193 25136 25070 25026 24992 25010 25053 25124 25168 25165 25157 25170 25094 25037 24917 24878 24882 24934 24975 24989 25008 25057 25083 25040 24968 24951 24962 24965 24995 24990 25022 25026 25043 25097 24999 24896 24891 24833 24886 24940 24941 24965 24966 25014 25057 25021 24956 24913 24938 24985 25007 25078 25116 25133 25162 25161 25050 24958 24944 24994 25054 25100 25126 25122 25141 25170 25153 25033 24917 24905 24955 25026 25072 25113 25129 25157 25247 25265 25188 25099 25135 25196 25246 25322 25323 25334 25315 25308 25295 25172 25064 25060 25109 25175 25210 25274 25297 25328 25327 25339 25240 25227 25285 25416 25486 25765 25753 25860 25808 25921 25762 25596 25511 25455 25541 25628 25638 25708 25753 25850 25807 25796 25642 25540 25621 25665 25749 25746 25733 25773 25790 25776 25851 25654 25624 25589 25570 25647 25678 25719 25689 25681 25684 25617 25482 25355 25518 25562 25673 25667 25682 25718 25788 25814 25719 25674 25554 25472 25449 25466 25516 25523 25554 25561 25605 25492 25355 25331 25365 25359 25431 25463 25476 25501 25489 25549 25454 25305 25270 25246 25271 25318 25336 25286 25301 25300 25296 25140 25069 25079 25134 25132 25169 25165 25315 25317 25401 25472 25377 25344 25239 25310 25332 25376 25374 25318 25299 25287 25234 25080 25022 25165 25051 25475 25359 25543 25551 25486 25476 25419 25297 25207 25194 25275 25393 25456 25417 25463 25474 25481 25394 25254 25224 25230 25237 25284 25274 25289 25177 25331 25431 25504 25320 25277 25313 25331 25379 25402 25414 25462 25469 25444 25321 25284 25224 25312 25326 25358 25391 25392 25429 25442 25434 25295 25254 25264 25318 25403 25496 25676 25730 25868 25907 25846 25922 25835 25909 25938 25952 25927 25943 25951 25999 25973 26006 25884 25784 25782 25781 25808 25799 25845 25856 25967 26033 26025 25899 25787 25767 25777 25744 25731 25754 25846 25851 25858 25885 25771 25716 25706 25677 25704 25727 25762 25787 25816 25865 25874 25803 25672 25589 25587 25608 25664 25725 25689 25718 25726 25744 25594 25478 25422 25382 25379 25401 25421 25462 25494 25514 25509 25359 25293 25250 25279 25346 25360 25382 25355 25395 25392 25390 25240 25123 25103 25086 25126 25098 25104 25093 25095 25107 25116 25016 24927 24885 24882 24924 24970 24997 25038 24965 24938 24908 24760 24685 24661 24664 24684 24702 24731 24734 24716 24735 24763 24632 24574 24578 24628 24698 24792 24846 24860 24895 24916 24903 24725 24624 24604 24618 24704 24770 24808 24824 24868 24908 24927 24885 24993 25157 25332 25499 25684 25802 25763 25787 25630 25539 25468 25398 25340 25322 25333 25329 25338 25381 25381 25382 25387 25269 25220 25228 25212 25238 25252 25268 25310 25320 25343 25357 25245 25167 25156 25133 25171 25206 25195 25233 25290 25337 25435 25355 25283 25181 25161 25214 25175 25147 25176 25112 25029 24923 24709 24661 24603 24749 24769 24881 24893 25008 25055 25095 25143 24983 24979 24927 25015 25043 25126 25210 25392 25475 25574 25584 25379 25306 25240 25235 25309 25386 25445 25533 25512 25623 25614 25478 25383 25256 25573 25483 25608 25606 25642 25799 25819 25827 25639 25488 25493 25429 25464 25347 25531 25508 25815 25825 25866 25786 25497 25486 25386 25435 25381 25496 25392 25408 25360 25594 25348 25512 25595 25459 25556 25474 25689 25528 25675 25636 25611 25568 25422 25299 25296 25334 25378 25475 25520 25667 25702 25780 25789 25535 25710 25495 25727 25762 25753 25790 25920 25895 25833 25786 25578 25474 25390 25357 25405 25453 25495 25444 25535 25571 25594 25409 25287 25226 25261 25229 25351 25366 25447 25548 25574 25565 25424 25240 25167 25164 25184 25193 25232 25269 25320 25334 25469 25214 25299 25272 25410 25475 25614 25662 25749 25773 25820 25760 25707 25440 25402 25333 