6212 6223 6209 6223 6211 6215 6223 6214 6212 6216 6207 47841 47840 47841 47839 47841 47841 47842 47838 47838 47840 47846 47842 47837 47836 47842 47838 47835 47843 47845 47836 47837 47843 47844 47840 47845 47836 47842 47843 47839 47842 47840 47836 47842 47835 47837 47834 47838 47837 42741 42936 43118 43244 43239 43197 43130 43101 43093 43084 43064 43053 43022 42999 43008 43013 43005 42977 42952 42901 42876 42852 42850 42796 42803 42801 42805 42804 42792 42793 42815 42830 42837 42843 42861 42898 42897 42894 42854 42738 42628 42475 42357 42257 42166 42156 42148 42132 42101 42042 42025 42004 41993 42000 42009 41966 41898 41911 41914 41960 41887 41813 41803 41823 41896 41953 41993 42032 42084 42097 42095 42050 41985 41926 41813 41690 41638 41754 41859 41970 42059 42144 42236 42204 42149 42223 42372 42490 42555 42610 42606 42575 42559 42481 42373 42133 41939 41807 41694 41659 41626 41639 41653 41657 41632 41502 41464 41547 41674 41829 41890 41965 41998 41887 41655 41398 41448 41584 41736 41891 42050 42153 42203 42195 42260 42332 42393 42502 42556 42660 42762 42807 42812 42738 42767 42822 42903 42990 43077 43164 43235 43284 43295 43267 43263 43300 43329 43371 43384 43421 43487 43483 43378 43304 43281 43248 43202 43149 43112 43063 43014 42958 42903 42790 42499 42448 42553 42493 42218 42112 41957 41723 41461 41154 40895 40632 40450 40303 40251 40243 40282 40341 40382 40455 40592 40716 40786 40922 40902 40800 40649 40524 40458 40451 40446 40444 40445 40456 40534 40593 40660 40732 40848 40937 41039 41126 41178 41180 41162 41121 41108 41066 41062 41097 41106 41075 41018 40949 40938 40894 40857 40840 40859 40863 40806 40638 40463 40275 40139 40101 40102 40142 40153 40187 40200 40149 40113 40162 40219 40331 40492 40651 40733 40800 40842 40880 40954 41010 41073 41159 41231 41295 41366 41487 41680 41765 41830 41850 41860 41847 41873 41935 41986 42029 42089 42160 42173 42194 42203 42231 42284 42367 42345 42300 42250 42218 42209 42337 42447 42551 42625 42646 42637 42711 42755 42733 42747 42787 42853 42967 42944 42937 42860 42715 42534 42438 42398 42537 42654 42748 42876 42928 43012 43192 43220 43216 43082 42924 42720 42448 42032 41610 41304 40942 40756 40700 40772 40845 40892 40988 41066 40985 40772 40407 39933 39645 39233 38873 38506 38060 37604 37169 36639 36119 35706 35486 35451 35507 35541 35590 35707 35904 36186 36572 36913 37227 37588 37927 38141 38189 37916 37570 37392 37078 36871 36773 36626 36155 35595 35210 34749 34413 34506 35054 35248 35390 35670 36077 36518 36959 37100 37187 37184 37075 36462 35531 34729 34097 33790 33931 35199 36099 36530 36734 37032 37255 37294 37363 37564 38041 38548 38751 38356 37707 37168 36638 36209 35998 35946 36071 36370 36648 37025 37326 37670 37878 37844 37856 37851 38045 38336 38635 38805 38897 39003 39035 39044 39024 38798 38387 38140 38077 37892 37701 37498 37140 36484 35623 34763 33936 33396 33277 33412 33653 33859 34213 34348 34469 34500 34214 33884 33696 33565 33472 33389 33175 32644 31991 31385 30983 30622 30471 30833 31445 32000 32315 32216 31994 31726 31500 31381 31336 31393 31572 31770 31983 32276 32554 32928 33248 33416 33291 33057 32877 32822 32969 33179 33442 33656 33624 33250 32854 32556 32271 32079 31995 32034 32154 32208 32496 33056 33753 34225 34081 33947 33821 33841 34086 34641 35270 35956 36510 37013 37659 38259 38418 38504 38456 38309 38263 38244 38194 38184 38216 38108 37812 37552 37263 37164 37055 36898 36791 36778 36867 37006 37166 37223 37235 37296 37398 37411 37304 37168 37047 37042 37002 36951 36954 37000 37055 37023 36916 36816 36744 36785 36624 36346 36084 36144 36438 36766 37086 37331 37523 37700 37795 37719 37554 37384 37334 37435 37400 37432 37522 37619 37467 37094 36696 36356 36103 35872 35754 35620 35333 35090 34874 34653 34522 34565 34680 34810 35040 35334 35616 35754 35526 35109 34794 34480 34128 33963 34015 34121 34133 34115 34108 34122 34065 33934 33848 33667 33517 33511 33611 33718 33707 33724 33818 33799 33672 33437 33127 33139 33660 34174 34514 34728 34927 35139 35364 35513 35710 35671 35370 35018 34720 34563 34498 34532 34632 34685 34606 34400 34130 33896 33848 33985 34144 34410 34658 34906 35111 35143 35276 35183 34813 34502 34363 34353 34456 34594 34638 34866 35098 35091 35148 35403 35628 35826 36119 36363 36545 36777 37043 37364 37525 37618 37735 37875 38026 38171 38324 38483 38575 38591 38775 39165 39447 39548 39574 39539 39478 39355 39274 39219 39153 39102 39089 39124 39200 39318 39457 39592 39691 39791 39865 39953 40076 40276 40377 40391 40454 40567 40674 40760 40874 40918 41047 41182 41253 41333 41393 41299 41245 41217 41244 41288 41357 41379 41344 41235 41201 41216 41274 41296 41364 41365 41404 41524 41604 41699 41842 41827 41595 41402 41176 40883 40606 40419 40283 40132 39972 39748 39456 39085 38726 38500 38349 38265 38264 38349 38466 38519 38569 38600 38595 38649 38754 38886 38979 39040 39015 38984 38975 39007 38998 38967 38934 38956 38956 38794 38502 38109 37766 37494 37247 37092 36892 36747 36704 36669 36600 36663 36755 36892 37139 37350 37620 37806 37864 37919 37957 37946 37947 37975 37960 37932 37903 37823 37696 37606 37527 37474 37577 37846 38196 38585 38954 39159 39140 39188 39184 39117 39063 39130 39149 39189 39211 39202 39221 39220 39275 39336 39411 39458 39437 39385 39214 39134 38960 38853 38808 38836 38886 38953 39004 39096 39260 39512 39816 40269 40628 40780 40747 40441 40143 39882 39672 39566 39477 39438 39446 39423 39481 39490 39570 39675 39718 39846 39900 40047 40113 40165 40203 40135 40108 40144 40221 40315 40384 40434 40430 40494 40577 40672 40789 40876 41015 41096 41114 41193 41256 41276 41276 41305 41346 41371 41398 41428 41449 41483 41555 41640 41746 41853 41944 42022 42082 42154 42209 42232 42241 42250 42162 42281 42446 42501 42543 42686 42876 43051 43183 43279 43178 43092 43097 43088 43116 43112 43020 42952 42730 42593 42439 42333 42270 42214 42187 42050 41794 41626 41460 41414 41392 41364 41304 41250 41111 40773 40467 40257 39868 39446 38955 38421 37875 37403 37118 36963 36742 36517 36327 36164 36047 35854 35637 35418 35142 34964 34845 34628 34382 34205 34134 34129 34126 34000 33702 33338 33342 33538 33716 33884 34026 34147 34354 34624 34777 34735 34573 34340 34538 34918 35219 35535 35928 36293 36682 37052 37378 37702 37989 38260 38583 38818 38966 39055 39104 39132 39214 39264 39320 39427 39522 39665 39847 39975 40077 40122 40194 40246 40331 40422 40492 40627 40726 40801 40846 40833 40831 40778 40760 40778 40801 40821 40826 40803 40727 40674 40626 40560 40528 40531 40534 40506 40535 40516 40595 40683 40774 40841 40940 41022 41092 41156 41232 41323 41419 41503 41621 41721 41813 41883 41915 41941 41926 41859 41742 41537 41328 41193 41090 40947 40799 40668 40578 40458 40385 40288 40198 40115 40043 39970 39932 39872 39759 39737 39762 39808 39768 39667 39536 39467 39361 39303 39260 39191 39080 38901 38653 38537 38481 38350 38142 37871 37612 37423 37266 37191 37399 37273 36947 36821 36790 36815 36803 36840 36866 36920 36807 36603 36487 36390 36176 35859 35631 35499 35474 35518 35600 35567 35462 35487 35736 35975 36109 36351 36663 36848 37029 37237 37393 37339 37241 37207 37210 37258 37338 37142 36847 36498 36315 36282 36263 36202 36176 36169 36072 35871 35598 35308 35103 34970 34922 34860 34776 34677 34615 34549 34497 34542 34532 34372 34256 34181 34191 34651 35568 36587 37415 37941 38221 38425 38826 39141 39281 39315 39413 39337 39089 39029 39039 39132 39224 39282 39208 39129 39070 39029 38940 38869 38838 38791 38748 38742 38740 38763 38785 38796 38809 38815 38719 38641 38546 38472 38390 38349 38338 38261 38187 38083 37982 37914 37848 37947 37999 37961 37907 37920 37850 37634 37418 37321 37287 37288 37269 37299 37321 37374 37471 37573 37798 37980 38170 38391 38530 38523 38403 38296 38269 38261 38270 38317 38386 38467 38537 38590 38647 38690 38711 38676 38503 38356 38394 38360 38218 38081 38005 38008 38062 38079 38107 38072 37905 37773 37417 37128 37070 37150 37179 37178 37164 37049 36833 36579 36182 35894 35848 35863 35814 35753 35707 35717 35745 35715 35816 35682 35472 35371 35271 35107 34985 34927 34959 35088 35161 35064 34770 34634 34627 34635 34625 34653 34746 34920 35099 35119 34886 34677 34672 34812 35024 35366 35861 36490 36663 36857 37334 37426 37514 37585 37614 37829 38200 38511 38818 38849 38983 39141 39254 39231 39178 39256 39352 39450 39572 39806 40110 40393 40627 40701 40744 40741 40730 40636 40494 40392 40355 40284 40145 40019 39992 39972 40064 40124 40273 40397 40499 40519 40467 40262 39964 39728 39673 39617 39601 39625 39604 39601 39532 39460 39330 39334 39400 39446 39555 39730 39895 40029 40017 39958 39982 39986 39986 40052 40018 39973 39890 39890 39836 39752 39614 39561 39538 39518 39423 39261 39115 39016 38964 38935 38989 39127 39224 39292 39426 39632 39919 40129 40235 40406 40632 40774 40892 40992 40932 40810 40665 40485 40488 40669 40889 41042 41117 41095 41044 41002 41036 41083 41014 40754 40195 39581 39029 38719 38605 38686 38828 38849 38498 38119 37757 37504 37353 37246 37136 37062 36898 36541 36231 35758 35250 34991 35041 35141 35241 35327 35387 35241 34961 34629 34427 34320 34247 34211 34187 34093 33959 33850 33735 33593 33298 33250 33345 33475 33620 33779 33928 34044 34065 33936 33686 33542 33491 33447 33453 33590 33791 33990 33983 34013 33959 33778 33658 33780 33959 34164 34514 34830 35079 35117 35202 35254 35387 35784 36204 36599 36976 37323 37724 38082 38491 38831 39031 39204 39297 39296 39331 39368 39377 39403 39487 39733 40044 40271 40376 40434 40484 40484 40457 40462 40511 40583 40657 40752 40795 40761 40682 40633 40620 40623 40662 40715 40734 40764 40774 40809 40841 40851 40800 40752 40726 40697 40713 40660 40619 40579 40539 40530 40545 40587 40586 40564 40498 40441 40442 40357 40292 40222 40212 40211 40143 40020 39884 39763 39665 39597 39551 39486 39401 39230 39041 38959 38970 38989 39069 39201 39319 39203 38738 38271 37890 37601 37492 37534 37617 37660 37687 37554 37304 37040 36863 36813 36763 36743 36735 36609 36353 36046 35632 35329 35071 34916 34887 34974 35075 35208 35404 35589 35573 35421 35223 35244 35247 35192 35097 35067 35136 35291 35352 35249 35002 34810 34840 34952 35074 35261 35442 35560 35429 35119 34831 34713 34654 34637 34606 34600 34489 34335 34140 34003 34021 34102 34195 34306 34457 34501 34378 34198 34108 34269 34488 34635 34842 35072 35434 35643 35755 35773 35905 35954 35935 35942 35953 35976 35912 35665 35368 35246 35384 35581 35796 36034 36256 36494 36746 36889 36885 36914 37076 37209 37407 37619 37913 38174 38323 38376 38435 38486 38573 38669 38795 38943 39110 39215 39253 39246 39176 39056 38952 38874 38792 38732 38696 38649 38631 38610 38560 38491 38470 38523 38604 38625 38511 38456 38436 38365 38307 38274 38258 38271 38355 38459 38596 38732 38740 38505 38385 38344 38462 38594 38711 38788 38917 39089 39124 39109 38887 38750 38690 38654 38663 38677 38605 38504 38461 38328 38239 38279 38417 38560 38637 38676 38734 38986 39233 39239 39238 39266 39300 39372 39481 39664 39878 39981 39989 39987 39900 39853 39831 39723 39541 39315 39087 38947 38826 38691 38527 38461 38426 38332 38265 38300 38412 38541 38803 38853 38717 38473 38345 38490 38843 39184 39471 39738 39983 40175 40316 40460 40623 40735 40853 40902 40906 40779 40481 40176 39918 39898 40144 40131 40182 40432 40685 40589 40405 40323 40151 40033 40038 40038 39990 39741 39362 39087 39045 39127 39258 39459 39741 40003 40157 40155 40204 40244 40246 40342 40435 40652 40748 40775 40581 40337 40109 39872 39692 39457 39196 39042 38946 38918 39088 39277 39336 39440 39539 39555 39473 39345 39258 39239 39233 39264 39336 39389 39375 39312 39216 39169 39113 39095 39152 39232 39332 39412 39391 39308 39232 39203 39193 39232 39266 39318 39347 39379 39412 39419 39447 39493 39553 39600 39624 39645 39563 39404 39244 39177 39175 39182 39160 39086 39002 38897 38804 38812 38778 38712 38661 38612 38616 38605 38605 38637 38820 39096 39252 39400 39556 39755 39960 40069 40175 40189 40217 40343 40391 40532 40649 40709 40767 40754 40709 40699 40798 40915 41040 41145 41325 41503 41584 41622 41803 41980 42096 42237 42401 42474 42531 42596 42586 42557 42519 42470 42440 42400 42272 42024 41797 41674 41644 41641 41631 41620 41620 41562 41420 41232 41083 40901 40754 40551 40313 40105 39847 39634 39411 39222 39053 38896 38753 38661 38535 38345 38099 37790 37440 37154 36982 36965 37055 37155 37256 37321 37388 37394 37324 37163 37048 36893 36732 36427 36086 35758 35480 35233 35066 34956 34846 34704 34601 34514 34452 34349 34280 34230 34261 34291 34294 34094 33823 33590 33415 33294 33222 33163 33102 33028 32963 32935 32938 32983 33090 33266 33453 33651 33749 33663 33477 33340 33304 33333 33303 33344 33487 33596 33706 33772 33799 33848 33918 33999 34065 34124 34099 33972 33800 33710 33697 33741 33874 34016 34175 34277 34347 34362 34309 34248 34240 34253 34212 34152 34110 34097 34105 34103 34104 34099 34121 34136 34124 34164 34155 34141 34129 34170 34265 34363 34409 34481 34491 34478 34440 34428 34454 34474 34521 34556 34619 34751 34889 34998 35079 35124 35092 34998 34870 34734 34632 34559 34469 34368 34277 34268 34264 34253 34282 34293 34308 34289 34228 34139 34014 33848 33640 33525 33518 33657 33791 33879 33907 33925 33946 33965 33969 33969 34006 34020 34007 33953 33856 33831 33831 33845 33893 33920 33906 33878 33833 33850 33835 33803 33790 33871 34015 34148 34223 34278 34265 34284 34290 34308 34314 34350 34355 34332 34323 34335 34364 34452 34497 34522 34529 34458 34344 34297 34240 34155 34077 34044 34085 34153 34256 34380 34485 34552 34605 34642 34661 34671 34712 34674 34641 34642 34670 34726 34816 34884 34935 34952 34952 34938 34928 34925 34932 34905 34931 35024 35150 35260 35309 35348 35355 35366 35399 35420 35425 35444 35435 35395 35426 35441 35528 35618 35701 35745 35708 35614 35528 35456 35411 35355 35314 35306 35361 35418 35500 35564 35581 35565 35551 35547 35504 35424 35372 35270 35171 35107 35091 35120 35160 35171 35139 35078 35016 34960 34925 34903 34854 34774 34724 34675 34728 34768 34822 34836 34825 34805 34790 34728 34652 34612 34544 34472 34366 34310 34310 34279 34229 34155 34112 34088 34087 34036 33969 33874 33741 33609 33570 33606 33705 33779 33834 33905 33992 34049 34055 34063 34063 34059 33997 33928 33898 33933 34041 34189 34353 34531 34696 34834 34912 34915 34790 34590 34410 34300 34246 34205 34186 34168 34153 34201 34241 34337 34418 34510 34520 34513 34484 34422 34359 34302 34281 34299 34387 34505 34589 34626 34643 34631 34533 34420 34364 34385 34452 34489 34485 34497 34462 34485 34587 34669 34819 34883 34889 34833 34743 34616 34539 34482 34414 34359 34311 34179 34015 33838 33625 33484 33425 33394 33342 33289 33225 33155 33095 33080 33108 33204 33293 33434 33470 33416 33313 33236 33215 33258 33301 33242 33152 33062 33015 32947 32946 33003 33079 33218 33432 33665 33847 33993 34100 34173 34237 34300 34334 34365 34430 34414 34366 34307 34270 34256 34272 34248 34231 34296 34447 34562 34581 34567 34490 34344 34216 34200 34370 34726 35070 35458 35662 35832 36192 36638 36751 36622 36509 36402 36317 36184 36086 36040 35964 35895 35827 35743 35680 35538 35376 35235 35096 34941 34881 34914 34964 34995 35015 34995 34996 35023 35094 35150 35241 35233 35084 34931 34795 34745 34743 34791 34865 34933 35013 35080 35084 35050 34966 34871 34777 34806 34873 34921 34959 34975 34957 34974 35013 35088 35127 35172 35136 35052 34980 34885 34809 34739 34686 34611 34493 34312 34156 34040 33929 33869 33779 33677 33664 33793 33997 34175 34289 34306 34324 34375 34402 34376 34350 34276 34130 33971 33867 33812 33822 33871 33969 33977 33966 33900 33871 33822 33750 33667 33613 33602 33663 33771 33919 34026 34101 34180 34237 34260 34253 34263 34248 34162 34079 33987 33935 33919 33926 33902 33892 33892 33859 33837 33767 33735 33680 33571 33497 33501 33680 33932 34109 34230 34299 34359 34387 34355 34268 34231 34145 34037 33938 33834 33784 33706 33632 33621 33599 33578 33554 33541 33507 33473 33347 33207 33146 33253 33435 33601 33697 33748 33786 33827 33828 33786 33744 33702 33634 33582 33521 33499 33544 33595 33628 33639 33605 33550 33472 33396 33317 33240 33179 33218 33376 33552 33735 33814 33893 33955 34028 34034 33956 33893 33766 33558 33378 33253 33177 33194 33268 33372 33413 33455 33423 33370 33302 33265 33289 33273 33191 33208 33295 33414 33551 33689 33816 33926 34040 34088 34159 34168 34124 34056 34032 34069 34123 34173 34236 34302 34313 34290 34277 34233 34133 34059 34026 34139 34346 34537 34701 34803 34828 34835 34768 34695 34597 34564 34533 34487 34470 34497 34547 34666 34778 34897 34996 35037 35002 34938 34865 34753 34558 34355 34239 34235 34327 34449 34547 34582 34618 34670 34742 34788 34809 34852 34790 34767 34732 34663 34669 34685 34735 34799 34865 34829 34744 34648 34595 34566 34507 34476 34521 34662 34790 34865 34806 34718 34648 34615 34686 34773 34826 34783 34696 34627 34574 34561 34643 34744 34867 34926 34913 34818 34679 34540 34433 34390 34390 34460 34564 34670 34683 34628 34577 34555 34537 34640 34757 34888 34966 35041 34994 34916 34880 34905 35025 35133 35251 35305 35256 35177 35125 35035 34876 34713 34615 34670 34806 34963 35040 35024 34997 35036 35069 35077 35059 35117 35085 35020 34968 35024 35135 35282 35391 35416 35444 35343 35172 35017 34883 34755 34626 34612 34735 34951 35160 35365 35470 35545 35599 35626 35641 35614 35617 35574 35463 35356 35295 35339 35446 35573 35665 35710 35697 35663 35579 35492 35345 35194 35080 35067 35115 35226 35324 35382 35389 35368 35353 35296 35297 35307 35239 35173 35149 35239 35379 35589 35751 35868 35920 35947 35895 35759 35587 35395 35232 35210 35352 35560 35738 35849 35903 35901 35880 35853 35855 35806 35736 35604 35481 35400 35395 35500 35727 35914 36062 36108 36082 36016 35925 35776 35587 35449 35396 35485 35613 35735 35817 35783 35770 35752 35755 35721 35744 35749 35728 35691 35689 35775 35920 36039 36114 36161 36132 36032 35878 35738 35612 35485 35388 35356 35435 35619 35773 35867 35907 35959 35995 36027 36000 36015 35962 35874 35756 35722 35799 35918 36040 36130 36168 36159 36076 36026 35943 35857 35771 35704 35730 35820 35876 35912 35923 35938 35999 36037 36048 36006 35965 35913 35869 35869 35914 36036 36188 36340 36373 36331 36223 36076 35945 35835 35684 35547 35432 35414 35488 35570 35633 35661 35690 35703 35734 35759 35697 35570 35444 35308 35228 35245 35368 35522 35639 35692 35690 35613 35507 35406 35279 35160 35041 34904 34770 34724 34726 34821 34937 35049 35129 35152 35185 35163 35151 35112 35052 35006 34972 34977 35044 35126 35172 35195 35218 35200 35147 35051 34924 34762 34645 34649 34795 35021 35199 35310 35368 35399 35437 35431 35395 35336 35297 35182 35100 35073 35096 35195 35322 35480 35579 35614 35571 35572 35500 35385 35248 35150 35199 35319 35465 35549 35553 35548 35570 35596 35622 35594 35542 35484 35443 35453 35524 35630 35713 35713 35689 35675 35652 35643 35648 35543 35436 35340 35321 35451 35668 35850 36026 36214 36312 36323 36281 36179 36110 36018 35932 35855 35803 35822 35828 35869 35847 35813 35738 35665 35621 35540 35376 35137 34960 34978 35178 35508 35865 36053 36079 36069 36093 36112 36104 36081 35998 35891 35829 35753 35660 35565 35471 35434 35362 35296 35218 35099 34979 34809 34681 34697 34879 35113 35340 35510 35570 35589 35527 35487 35370 35325 35235 35092 34973 34873 34837 34906 35074 35229 35386 35418 35384 35255 35087 34853 34641 34448 34411 34618 34908 35120 35241 35300 35390 35496 35576 35576 35579 35443 35221 35015 34857 34769 34721 34716 34727 34759 34775 34770 34719 34639 34554 34471 34421 34401 34464 34524 34611 34677 34666 34692 34791 34908 34981 35057 35069 34979 34894 34829 34779 34791 34779 34768 34793 34750 34708 34648 34570 34479 34365 34286 34257 34302 34398 34550 34754 34899 34998 34992 34961 34887 34902 34861 34785 34785 34880 34941 34998 35039 35122 35197 35256 35317 35185 34981 34785 34570 34445 34399 34470 34643 34807 34877 34841 34822 34835 34955 35065 35128 35167 35061 34909 34819 34813 34926 35124 35290 35390 35440 35389 35273 35098 34966 34814 34688 34638 34619 34591 34603 34622 34641 34644 34761 34895 35000 35050 35041 34911 34805 34733 34761 34885 35106 35288 35372 35311 35202 35067 34938 34773 34614 34489 34383 34374 34424 34691 34930 35126 35317 35443 35499 35421 35371 35272 35159 35038 34965 34981 35078 35195 35248 35245 35218 35155 35108 35048 35028 34917 34782 34664 34638 34732 34859 34974 35040 35195 35333 35465 35471 35496 35492 35429 35403 35420 35527 35698 35796 35850 35873 35833 35805 35724 35651 35552 35440 35360 35358 35393 35462 35573 35636 35748 35867 35983 36054 36056 36091 36097 36051 36032 36080 36174 36304 36412 36480 36497 36524 36468 36439 36413 36346 36230 36131 36089 36179 36226 36263 36229 36219 36236 36278 36302 36258 36281 36245 36188 36178 36179 36232 36288 36317 36331 36298 36253 36210 36132 36037 35937 35817 35707 35659 35643 35663 35735 35794 35817 35799 35758 35753 35682 35665 35608 35533 35483 35435 35449 35544 35644 35748 35811 35836 35779 35756 35670 35480 35245 35090 35009 35004 35070 35149 35154 35110 35146 35208 35278 35333 35406 35392 35351 35320 35286 35248 35227 35238 35241 35253 35262 35221 35197 35152 35052 34952 34865 34856 34885 34927 34929 34937 34913 34841 34807 34814 34725 34705 34666 34648 34654 34736 34873 35013 35152 35252 35365 35433 35551 35614 35596 35499 35480 35558 35776 36135 36566 37071 37535 38027 38435 38750 38935 39106 39226 39368 39450 39556 39593 39634 39687 39695 39742 39819 39910 39979 39911 39878 39767 39624 39469 39341 39278 39302 39357 39340 39250 39132 39054 39004 38930 38937 38891 38825 38736 38660 38598 38544 38491 38451 38390 38311 38239 38069 37902 37698 37549 37421 37325 37306 37361 37408 37457 37499 37539 37569 37550 37550 37507 37414 37343 37179 36996 36865 36756 36725 36671 36623 36584 36520 36418 36334 36203 36103 36032 36094 36186 36263 36331 36292 36249 36225 36279 36260 36290 36290 36182 36072 35947 35863 35848 35863 35906 35951 35972 35952 35778 35535 35334 35134 34979 34880 34959 35087 35218 35308 35419 35569 35690 35853 35901 35961 35927 35848 35707 35537 35430 35399 35457 35518 35524 35450 35381 35274 35190 35082 34960 34858 34901 35099 35282 35383 35423 35522 35607 35742 35771 35797 35806 35717 35656 35601 35582 35628 35751 35909 36006 36036 35976 35828 35700 35543 35387 35297 35303 35458 35626 35809 35926 36017 36098 36160 36178 36174 36285 36250 36161 36040 35956 35933 36007 36130 36189 36202 36148 36109 36031 36012 35902 35814 35779 35865 36080 36260 36362 36414 36483 36508 36561 36590 36610 36620 36556 36479 36411 36391 36411 36463 36521 36545 36478 36376 36275 36169 36085 35979 35900 35854 36011 36138 36239 36331 36450 36543 36621 36712 36725 36700 36569 36409 36270 36161 36158 36207 36251 36309 36301 36284 36236 36129 36099 36007 35915 35859 35828 35942 36132 36353 36578 36897 37198 37472 37707 37869 37999 38004 37995 37940 37974 38087 38224 38317 38289 38196 38106 38035 37950 37917 37820 37655 37539 37554 37635 37697 37803 37941 38052 38138 38172 38151 38114 38057 37929 37823 37714 37652 37652 37677 37694 37687 37660 37611 37569 37513 37420 37229 37044 36881 36856 36940 37041 37227 37466 37724 37950 38178 38386 38596 38729 38725 38707 38704 38707 38747 38873 39006 39196 39329 39396 39409 39409 39302 39126 38922 38900 38998 39049 39180 39271 39308 39280 39264 39291 39337 39392 39347 39287 39172 39071 39022 38995 38968 38965 38919 38883 38803 38644 38432 38189 38044 38002 38081 38156 38176 38201 38180 38167 38135 38180 38188 38174 38116 38005 37829 37651 37490 37404 37375 37362 37308 37283 37193 37081 36945 36845 36698 36598 36653 36827 36965 36966 36867 36799 36770 36761 36804 36770 36737 36687 36573 36473 36396 36384 36448 36557 36643 36615 36466 36263 36098 35961 35811 35688 35616 35749 35916 36070 36197 36312 36423 36473 36528 36515 36473 36365 36190 36036 35930 35926 36026 36152 36232 36286 36262 36211 36151 36080 35983 35898 35804 35780 35814 35940 36086 36171 36230 36274 36298 36363 36413 36501 36629 36720 36769 36845 36946 37124 37176 37146 37086 37037 37016 36985 36944 36933 36845 36739 36688 36719 36809 36916 36967 37014 37095 37090 37142 37163 37141 37158 37078 37031 36986 36970 37017 37075 37079 37069 37027 36992 36946 36863 36700 36505 36366 36374 36473 36575 36662 36712 36774 36805 36885 36953 36941 36941 36871 36819 36730 36640 36520 36467 36421 36386 36363 36310 36235 36106 36016 35879 35806 35747 35824 36017 36160 36256 36273 36228 36190 36246 36210 36186 36128 35997 35864 35755 35684 35706 35782 35875 35935 35931 35871 35680 35421 35185 34939 34795 34751 34804 34952 35136 35319 35592 35932 36175 36570 36991 37441 38140 38694 38953 39056 39070 39161 39222 39248 39191 39197 39232 39359 39604 39705 39803 40074 40309 40508 40660 40808 40923 41024 41150 41288 41449 41571 41736 41854 41983 42098 42161 42226 42371 42495 42559 42587 42627 42687 42772 42874 42992 43128 43218 43203 43182 43179 43214 43223 43210 43204 43240 43281 43303 43363 43432 43438 43433 43374 43340 43329 43320 43286 43262 43266 43300 43287 43152 42991 42984 42929 42827 42783 42739 42646 42421 42079 41813 41663 41556 41459 41349 41194 41033 40873 40730 40602 40524 40464 40366 40244 40101 39826 39444 39079 38832 38614 38451 38446 38470 38411 38307 38176 38022 37946 37873 37818 37750 37641 37502 37321 37059 36823 36653 36563 36503 36418 36339 36238 36104 35998 35858 35689 35571 35507 35540 35559 35621 35716 35711 35617 35498 35400 35374 35373 35467 35419 35368 35273 35240 35297 35390 35460 35485 35467 35447 35381 35228 35041 34805 34661 34658 34808 34974 35133 35229 35295 35335 35411 35433 35433 35414 35361 35315 35292 35287 35312 35356 35375 35401 35408 35367 35288 35238 35152 34992 34890 34960 35208 35426 35622 35796 35950 36050 36043 36042 35977 35990 35875 35786 35698 35670 35708 35806 35968 36049 36063 36049 36004 35940 35852 35718 35596 35539 35709 35901 36032 36142 36274 36392 36498 36589 36651 36748 36692 36634 36558 36514 36518 36545 36530 36476 36371 36322 36252 36162 36084 36028 35977 36008 36167 36405 36625 36770 36881 37012 37088 37182 37156 37202 37161 37029 36882 36749 36672 36677 36697 36733 36717 36688 36611 36543 36434 36359 36222 36087 35925 35939 36049 36217 36380 36481 36560 36555 36554 36594 36617 36639 36561 36417 36325 36244 36148 36052 36007 36054 36058 36072 36037 35910 35782 35620 35627 35581 35757 36151 36453 36671 36809 36870 36741 36565 36429 36276 36162 36007 35846 35664 35513 35453 35528 35629 35693 35686 35634 35562 35431 35167 34879 34661 34593 34723 34967 35181 35317 35389 35466 35557 35705 35745 35760 35689 35560 35401 35208 35006 34904 34947 35070 35174 35215 35218 35113 35003 34909 34743 34575 34503 34740 35184 35597 35845 35910 35811 35690 35698 35729 35847 35799 35701 35525 35394 35334 35361 35468 35592 35692 35700 35663 35497 35440 35351 35199 35085 35067 35201 35350 35510 35679 35839 35997 36104 36198 36246 36236 36119 35993 35865 35724 35639 35649 35744 35845 35986 36163 36393 36703 36946 37133 37319 37515 37766 38032 38316 38603 38865 39147 39416 39659 39867 40054 40214 40365 40471 40547 40604 40717 40801 40880 40892 40924 40962 41048 41116 41217 41337 41440 41498 41577 41637 41697 41785 41866 41901 41968 41972 41962 41933 41929 41915 41897 41872 41903 41945 42010 42038 42066 42119 42216 42316 42359 42389 42441 42445 42416 42419 42472 42507 42569 42633 42698 42752 42797 42812 42799 42789 42721 42530 42401 42219 41942 41634 41367 41176 41002 40847 40743 40606 40560 40341 40280 40236 40184 40195 40228 40224 40102 39919 39673 39497 39322 39214 39021 38870 38646 38428 38226 38153 38081 38034 37976 37949 37924 37830 37585 37295 37051 36829 36697 36820 36986 37149 37207 37214 37249 37288 37376 37393 37442 37401 37294 37055 36818 36704 36684 36722 36740 36727 36677 36617 36531 36446 36354 36275 36212 36275 36430 36591 36609 36579 36560 36558 36614 36684 36719 36813 36811 36769 36731 36699 36752 36844 36945 37003 36992 36850 36687 36529 36438 36317 36232 36209 36296 36458 36567 36632 36648 36760 36926 37135 37350 37364 37347 37191 37057 36955 36882 36867 36916 37020 37015 36952 36858 36760 36652 36558 36505 36461 36374 36349 36425 36499 36589 36723 36847 36954 37079 37186 37163 37204 37174 37089 36992 36892 36830 36783 36753 36700 36626 36569 36479 36399 36278 36118 35973 35913 36014 36223 36477 36687 36821 36930 36939 36916 36897 36905 36841 36689 36519 36362 36289 36237 36213 36228 36190 36183 36183 36151 36047 35760 35547 35486 35608 35864 36115 36333 36487 36616 36729 36796 36841 36782 36745 36623 36446 36195 35898 35672 35648 35765 35905 35959 35914 35765 35541 35334 35081 34940 34872 35038 35309 35389 35330 35284 35277 35304 35365 35395 35395 35382 35250 35071 34910 34833 34818 34860 34818 34615 34411 34290 34218 34165 34047 33871 33791 33825 33947 34078 34222 34393 34535 34631 34570 34524 34405 34401 34307 34186 34084 34013 34018 34157 34389 34593 34718 34764 34753 34552 34316 34075 33902 33873 34034 34278 34548 34763 34930 35046 35106 35199 35210 35283 35300 35183 35036 34858 34772 34786 34847 34945 34981 34997 34961 34925 34895 34762 34657 34596 34624 34863 35016 35171 35327 35468 35559 35633 35684 35666 35750 35695 35649 35598 35599 35645 35753 35858 35856 35764 35648 35553 35427 35320 35193 35114 35131 35273 35518 35767 35961 36096 36179 36245 36352 36376 36436 36413 36310 36187 36135 36137 36223 36306 36356 36360 36334 36310 36240 36179 36103 36027 35985 35980 36109 36301 36507 36638 36737 36768 36788 36846 36839 36829 36916 36877 36848 36817 36809 36830 36862 36924 36965 37013 36973 36851 36741 36667 36567 36442 36372 36461 36753 37001 37175 37329 37464 37585 37647 37622 37467 37361 37232 37104 37004 36911 36896 36937 37021 37103 37138 37139 37092 37005 36914 36826 36714 36643 36924 37288 37483 37547 37566 37548 37514 37546 37509 37518 37486 37401 37347 37301 37310 37305 37240 37130 37052 36958 36874 36795 36693 36578 36481 36383 36380 36529 36660 36755 36831 36935 36971 36994 36923 36867 36847 36743 36628 36521 36451 36440 36466 36511 36530 36514 36479 36380 36283 36186 35994 35780 35571 35453 35446 35548 35652 35705 35703 35664 35630 35599 35554 35508 35450 35407 35373 35391 35365 35429 35566 35714 35797 35833 35864 35861 35839 35753 35685 35677 35720 35841 36015 36192 36387 36542 36677 36774 36850 36920 37015 37128 37268 37405 37537 37699 37852 37971 38077 38128 38222 38299 38402 38457 38445 38373 38291 38225 38201 38182 38164 38173 38184 38174 38183 38201 38209 38228 38242 38232 38188 38167 38169 38165 38148 38133 38075 38036 37997 37987 37983 38018 38064 38121 38166 38181 38163 38109 38049 38005 37980 37953 37957 37946 37932 37913 37949 37990 38039 38084 38116 38146 38103 38036 37946 37892 37794 37780 37805 37838 37893 37943 37961 37971 37985 37986 37965 37915 37851 37757 37623 37511 37398 37325 37325 37341 37396 37442 37484 37461 37361 37263 37210 37123 37087 37106 37152 37171 37177 37133 37063 37040 37046 37087 37111 37161 37133 37109 37098 37132 37181 37215 37264 37342 37386 37417 37385 37273 37197 37140 37154 37151 37246 37387 37608 37831 38024 38217 38367 38497 38641 38702 38751 38743 38756 38747 38744 38755 38775 38801 38882 39006 39144 39267 39344 39386 39405 39417 39404 39358 39307 39282 39289 39305 39320 39353 39387 39405 39396 39391 39416 39419 39453 39493 39529 39557 39611 39626 39607 39604 39622 39641 39649 39647 39605 39564 39583 39598 39658 39779 39872 39972 40063 40140 40157 40107 40008 39889 39765 39690 39600 39518 39525 39547 39584 39595 39583 39564 39521 39414 39337 39240 39152 39045 39038 39094 39149 39170 39188 39206 39226 39271 39295 39291 39300 39280 39209 39148 39139 39130 39086 38980 38897 38784 38700 38630 38550 38455 38327 38227 38208 38265 38313 38380 38452 38511 38588 38622 38602 38498 38459 38405 38324 38246 38185 38158 38157 38168 38184 38196 38188 38112 38023 37922 37788 37532 37318 37219 37241 37265 37334 37382 37439 37505 37580 37638 37693 37698 37747 37787 37776 37790 37836 37855 37859 37925 37968 37974 37992 37956 37933 37892 37843 37819 37869 38116 38396 38573 38680 38709 38664 38600 38569 38563 38536 38553 38494 38417 38325 38281 38286 38343 38397 38410 38391 38346 38243 38092 37946 37797 37691 37648 37713 37772 37844 37883 37939 38013 38076 38148 38269 38288 38326 38271 38128 37933 37782 37706 37737 37806 37805 37792 37684 37592 37450 37389 37297 37202 37121 37219 37445 37561 37570 37582 37579 37555 37523 37500 37550 37571 37479 37348 37240 37178 37229 37338 37423 37403 37210 36927 36659 36426 36211 36169 36405 36724 37145 37495 37791 38192 38541 38829 38939 38887 38772 38776 38750 38736 38727 38813 39078 39433 39848 40162 40492 40835 41153 41496 41771 41863 41972 42010 42083 42092 42113 42160 42261 42360 42520 42658 42723 42785 42914 43067 43187 43297 43379 43420 43423 43442 43436 43443 43589 43837 43940 43858 43871 43920 43952 44022 44051 44204 44333 44482 44513 44539 44562 44576 44494 44376 43999 43509 42889 42540 42374 42261 42068 41857 41588 41352 41119 40908 40599 40308 40155 39992 39772 39491 39283 39148 39046 38939 38804 38609 38479 38286 38123 37995 37897 37854 37856 37851 37723 37385 36991 36585 36293 36013 35798 35655 35512 35509 35542 35607 35662 35715 35706 35676 35653 35633 35480 35288 35158 35110 35047 34942 34879 34823 34856 34924 35040 35148 35183 35094 34973 34830 34802 34662 34434 34362 34506 34743 34996 35251 35427 35540 35645 35633 35556 35428 35314 35211 35074 34980 34833 34699 34660 34765 34904 35013 35101 35155 35143 35081 35054 34960 34906 35112 35564 35937 36210 36403 36481 36418 36344 36255 36191 36173 36253 36260 36184 36004 35838 35800 35826 35901 35950 36012 36051 36025 35949 35849 35745 35646 35587 35777 36077 36385 36684 36865 36983 37040 37085 37116 37127 37160 37132 36971 36831 36725 36676 36727 36822 36935 37019 37069 37063 37031 36954 36890 36786 36675 36569 36584 36615 36629 36638 36614 36601 36613 36677 36690 36757 36799 36836 36890 36993 37185 37426 37661 37826 37870 37847 37750 37697 37640 37576 37513 37435 37474 37621 37749 37835 37886 37927 37921 37894 37833 37659 37567 37462 37359 37254 37215 37218 37253 37272 37293 37249 37196 37102 36961 36824 36718 36597 36423 36351 36415 36531 36686 36821 36879 36846 36801 36773 36745 36777 36768 36723 36692 36654 36637 36643 36668 36673 36650 36621 36554 36477 36366 36303 36237 36199 36295 36454 36623 36760 36820 36769 36695 36581 36546 36532 36582 36589 36566 36489 36433 36474 36555 36623 36632 36633 36643 36551 36436 36294 36178 36078 36013 36057 36244 36523 36863 37136 37282 37400 37466 37475 37486 37476 37478 37423 37335 37288 37281 37310 37403 37531 37751 38117 38503 38889 39283 39602 39894 40149 40391 40572 40722 40850 41007 41188 41419 41604 41710 41801 41910 42047 42171 42281 42414 42513 42606 42678 42756 42796 42840 42879 42915 42965 43013 43083 43105 43190 43265 43291 43360 43412 43447 43467 43488 43512 43492 43488 43487 43489 43538 43569 43628 43655 43683 43676 43627 43548 43475 43481 43499 43513 43510 43364 43239 43164 43091 43014 42959 42946 42940 42935 42928 42933 42956 42986 42981 43017 43055 43076 42993 42859 42734 42677 42655 42672 42683 42675 42661 42670 42676 42685 42676 42640 42697 42746 42790 42789 42702 42547 42368 42222 42107 42032 41975 41918 41858 41760 41742 41777 41876 41939 42013 42026 41982 41743 41501 41251 41048 40832 40592 40427 40378 40411 40458 40438 40409 40359 40296 40251 40228 40173 39959 39597 39190 38868 38686 38623 38596 38573 38542 38452 38397 38263 38124 38000 37883 37789 37754 37756 37742 37778 37901 38029 38116 38149 38204 38180 38106 38080 38055 37971 37874 37831 37885 37962 37936 37867 37824 37770 37746 37743 37700 37607 37545 37430 37421 37522 37687 37886 38073 38171 38156 38005 37836 37676 37593 37556 37499 37404 37330 37382 37520 37691 37863 37987 38067 38104 38062 37978 37806 37589 37373 37312 37470 37690 37977 38282 38517 38678 38755 38761 38806 38925 38871 38744 38601 38406 38203 38073 37978 37939 37906 37866 37811 37811 37876 37934 37923 37942 38038 38252 38516 38683 38718 38719 38708 38716 38764 38795 38800 38803 38807 38791 38803 38815 38867 39016 39317 39688 39881 39894 39913 39949 40000 40071 40142 40296 40529 40757 40963 41100 41165 41245 41275 41295 41252 41155 41059 40991 40953 40899 40896 40891 40941 41020 41149 41239 41256 41239 41123 41040 40929 40753 40582 40469 40395 40370 40398 40437 40425 40449 40460 40456 40497 40447 40469 40429 40299 39959 39637 39309 39101 38971 38838 38732 38584 38449 38333 38208 38070 37914 37778 37725 37811 37946 38036 37950 37826 37686 37505 37338 37138 36958 36830 36650 36418 36262 36168 36135 36131 36128 36088 35969 35850 35752 35697 35711 35675 35599 35527 35412 35427 35603 35815 36020 36133 36233 36307 36294 36228 36122 36068 35984 35899 35836 35803 35845 35925 36035 36110 36159 36170 36150 36133 36114 36018 35830 35652 35580 35696 35913 36161 36300 36392 36466 36499 36559 36588 36655 36679 36657 36573 36439 36351 36349 36426 36501 36513 36478 36424 36339 36284 36197 36116 36055 36060 36231 36513 36726 36805 36805 36803 36831 36869 36915 36968 36996 36973 36925 36853 36855 36904 36966 37004 37017 36961 36849 36720 36639 36556 36516 36490 36496 36605 36787 36945 37025 37074 37134 37195 37307 37373 37422 37412 37339 37252 37134 37059 37061 37089 37119 37110 37061 37017 36960 36869 36819 36740 36664 36577 36489 36544 36652 36741 36780 36808 36827 36869 36932 36987 37097 37137 37161 37117 37103 37140 37186 37185 37134 37046 36965 36860 36768 36686 36566 36434 36315 36240 36306 36430 36562 36696 36797 36801 36749 36723 36644 36670 36635 36572 36449 36356 36331 36435 36613 36811 36919 37036 37139 36988 36754 36482 36214 35997 35817 35807 35860 35950 36041 36171 36302 36473 36649 36763 36974 37101 37051 36852 36626 36508 36485 36540 36625 36682 36691 36705 36672 36612 36548 36448 36355 36296 36348 36435 36539 36604 36754 36911 37018 37131 37158 37236 37259 37221 37137 37043 37011 37017 37021 36981 36909 36863 36772 36695 36624 36527 36411 36283 36157 36152 36277 36492 36625 36728 36843 36926 36955 36958 36969 36984 36990 36916 36770 36667 36596 36611 36646 36672 36687 36693 36662 36528 36378 36198 36053 35973 36000 36182 36401 36550 36651 36753 36867 37006 37160 37233 37363 37349 37264 37068 36887 36775 36758 36792 36848 36850 36779 36697 36569 36487 36431 36330 36218 36182 36261 36395 36482 36545 36617 36694 36822 36891 36935 37025 36980 36914 36809 36720 36704 36729 36705 36631 36536 36442 36368 36258 36180 36052 35924 35798 35844 36056 36331 36544 36684 36737 36691 36649 36623 36602 36629 36582 36485 36344 36258 36261 36365 36475 36555 36581 36522 36405 36186 35962 35743 35590 35530 35700 35997 36298 36482 36567 36637 36697 36776 36842 36849 36900 36747 36533 36319 36147 36131 36203 36295 36341 36330 36226 36077 35955 35816 35686 35611 35646 35829 36012 36163 36286 36355 36393 36423 36454 36494 36549 36618 36708 36630 36534 36427 36371 36312 36284 36266 36294 36286 36268 36178 36017 35937 35805 35674 35624 35640 35833 36077 36319 36524 36625 36619 36570 36615 36582 36650 36701 36668 36576 36517 36494 36585 36732 36854 36909 36876 36825 36634 36465 36301 36135 36022 36050 36319 36677 36950 37101 37168 37238 37295 37341 37391 37502 37507 37387 37216 37084 37040 37116 37228 37311 37305 37250 37177 37099 37058 37005 36957 36939 37040 37155 37338 37512 37626 37686 37762 37832 37809 37765 37764 37753 37700 37642 37604 37626 37667 37736 37728 37618 37547 37460 37398 37346 37280 37225 37177 37254 37441 37735 37929 38014 38073 38076 38097 38086 38098 38099 38111 38094 38035 37952 37907 37919 37930 37951 37968 37954 37931 37896 37844 37769 37647 37540 37422 37448 37603 37785 37915 37977 38031 38061 38145 38184 38201 38257 38255 38192 38058 37914 37834 37787 37831 37807 37765 37712 37640 37563 37467 37398 37357 37328 37405 37564 37759 37802 37752 37691 37621 37606 37590 37579 37567 37507 37447 37337 37269 37251 37282 37312 37371 37319 37181 37039 36895 36825 36755 36696 36667 36737 36939 37119 37217 37290 37337 37405 37469 37517 37455 37391 37305 37229 37173 37083 37050 37066 37126 37158 37168 37165 37127 37059 37020 37016 36943 36844 36724 36726 36807 36929 37018 37088 37144 37180 37237 37254 37247 37282 37286 37292 37259 37207 37201 37227 37290 37298 37291 37272 37235 37173 37180 37086 37015 36918 36950 37125 37344 37520 37573 37559 37533 37570 37659 37714 37793 37803 37785 37758 37707 37720 37773 37803 37816 37825 37809 37720 37684 37621 37647 37761 37756 37684 37709 37751 37766 37780 37805 37833 37844 37865 37866 37822 37696 37603 37483 37429 37427 37503 37578 37615 37577 37536 37482 37423 37399 37343 37321 37244 37230 37331 37429 37456 37495 37607 37719 37837 37975 37984 38026 37969 37913 37824 37717 37595 37461 37389 37337 37252 37174 37107 36967 36854 36701 36595 36521 36495 36607 36765 36897 36950 36956 36967 37032 37102 37155 37225 37197 37113 36958 36815 36704 36683 36680 36703 36706 36586 36365 36134 35990 35896 35839 35886 35993 36194 36432 36590 36653 36705 36784 36910 37035 37044 37053 36939 36785 36618 36464 36379 36378 36402 36431 36429 36413 36401 36349 36265 36216 36086 36058 36318 36871 37578 38282 38899 39414 39833 40180 40485 40862 41176 41388 41626 41822 41921 42033 42143 42280 42409 42512 42596 42690 42773 42811 42866 42873 43069 43191 43248 43270 43280 43293 43300 43347 43375 43390 43425 43426 43474 43480 43289 43039 42769 42593 42481 42442 42342 42211 42053 41905 41744 41658 41540 41468 41389 41313 41283 41262 41243 41238 41181 41139 40975 40775 40600 40409 40319 40198 40079 39960 39856 39814 39788 39769 39755 39734 39704 39624 39427 39155 38958 38827 38732 38676 38692 38798 38875 38939 38976 38929 38895 38858 38809 38766 38620 38357 38080 37857 37739 37690 37710 37752 37732 37727 37652 37568 37482 37412 37282 37242 37225 37243 37297 37353 37385 37382 37362 37333 37283 37237 37140 37073 36986 36914 36840 36774 36709 36615 36560 36579 36575 36548 36530 36457 36374 36302 36250 36225 36363 36581 36821 36970 37010 36943 36875 36827 36821 36757 36758 36703 36625 36535 36465 36442 36504 36623 36733 36834 36877 36807 36668 36574 36451 36423 36469 36565 36766 36993 37206 37381 37457 37520 37558 37617 37622 37604 37564 37463 37330 37199 37139 37154 37232 37304 37391 37387 37381 37310 37243 37152 37057 36882 36778 36882 37079 37306 37485 37618 37725 37766 37834 37902 37926 38018 38010 37968 37816 37653 37526 37528 37596 37645 37685 37664 37591 37487 37425 37450 37551 37637 37727 37897 38046 38094 38114 38066 37983 37944 37906 37877 37847 37836 37773 37664 37539 37480 37515 37591 37554 37428 37282 37148 37013 36881 36813 36757 36705 36751 36999 37320 37633 37865 38031 38096 38011 37912 37830 37876 37906 37852 37784 37718 37700 37757 37824 37871 37873 37849 37781 37601 37375 37197 37022 36884 36831 37013 37281 37539 37727 37886 38062 38202 38277 38271 38221 38150 37984 37818 37719 37720 37762 37806 37889 37911 38032 38215 38507 38890 39243 39601 39862 40095 40241 40377 40489 40585 40654 40763 40788 40798 40859 40923 40928 40969 41029 41093 41151 41169 41176 41194 41235 41298 41353 41404 41471 41495 41498 41485 41490 41518 41604 41668 41688 41684 41664 41644 41632 41617 41625 41625 41640 41671 41707 41764 41813 41876 41911 41962 41931 41858 41780 41734 41700 41702 41664 41705 41759 41832 41891 41968 42014 42054 42067 42072 42042 41976 41876 41825 41808 41823 41841 41904 41985 42070 42148 42195 42207 42218 42246 42203 42139 42010 41934 41959 42025 42119 42188 42272 42307 42372 42416 42450 42497 42540 42544 42510 42400 42268 42220 42165 42157 42133 42063 42021 41945 41856 41764 41674 41659 41750 41848 41844 41743 41695 41691 41714 41750 41793 41792 41826 41844 41837 41858 41864 41810 41768 41704 41547 41334 41182 41062 40999 40922 40851 40845 40822 40815 40853 40885 40906 40986 41048 41033 40882 40641 40432 40277 40188 40119 40087 40064 40088 40085 40116 40134 40189 40259 40272 40204 40041 39803 39542 39360 39247 39164 39124 39147 39198 39307 39478 39650 39816 39927 40081 40222 40265 40183 40091 40039 40039 40069 40151 40215 40294 40314 40240 40093 39976 39926 39810 39698 39564 39417 39256 39148 39096 39090 39065 39022 39017 39025 39029 39007 38907 38871 38868 38875 38826 38793 38748 38750 38785 38818 38896 38911 38907 38914 38955 39090 39307 39583 39802 40037 40183 40215 40205 40204 40235 40301 40377 40476 40601 40678 40744 40831 40914 40999 41102 41211 41241 41182 41105 41092 41136 41214 41219 41135 41044 40995 40983 41006 41070 41060 41073 41068 41002 40898 40841 40770 40752 40725 40763 40758 40713 40671 40621 40614 40633 40701 40806 40892 40855 40723 40631 40557 40535 40513 40477 40491 40533 40558 40622 40670 40720 40744 40776 40794 40723 40634 40468 40334 40195 40080 40005 39986 39959 39941 39891 39810 39679 39549 39467 39357 39244 39090 38938 38855 38827 38828 38830 38846 38829 38836 38881 38978 39050 39062 39064 39078 39116 39105 39046 39023 38990 38919 38862 38809 38778 38750 38704 38629 38719 38913 39095 39267 39414 39483 39419 39313 39246 39187 39223 39185 39129 39048 38963 38944 38994 39013 39033 38981 38942 38843 38646 38403 38232 38079 37995 37939 37916 37964 37986 37984 37964 37963 37936 37929 37923 37905 37854 37731 37598 37491 37431 37433 37477 37527 37581 37583 37577 37568 37593 37643 37725 37777 37796 37785 37784 37798 37858 37924 37990 37976 37966 37981 37974 37960 37946 37946 37930 37935 38019 38062 38090 38140 38216 38262 38322 38383 38414 38405 38395 38394 38418 38516 38646 38778 38862 38872 38847 38835 38833 38863 38913 38983 38976 38937 38902 38901 38911 38939 38952 38969 38993 38952 38922 38927 38965 39014 39078 39104 39155 39203 39247 39271 39273 39262 39227 39207 39127 39073 38978 38927 38911 38902 38936 38965 39011 39055 39105 39166 39221 39258 39283 39328 39361 39369 39350 39332 39351 39349 39352 39349 39308 39280 39228 39240 39242 39252 39278 39289 39279 39210 39135 39131 39129 39202 39313 39452 39521 39573 39585 39565 39560 39530 39520 39539 39523 39461 39393 39315 39257 39234 39239 39364 39495 39567 39606 39605 39587 39561 39589 39641 39617 39524 39411 39295 39247 39231 39174 39111 39035 39077 39224 39388 39505 39586 39614 39609 39563 39415 39255 39160 39058 38896 38747 38652 38593 38600 38586 38553 38505 38435 38341 38224 38066 37868 37569 37379 37465 37673 37961 38137 38162 38122 38114 38191 38261 38258 38205 38122 37920 37669 37490 37358 37346 37374 37402 37401 37390 37350 37362 37390 37291 37205 37234 37464 37623 37685 37718 37682 37680 37686 37777 37888 38118 38278 38395 38398 38477 38603 38713 38717 38576 38387 38262 38135 38015 37856 37717 37536 37452 37475 37529 37633 37753 37869 37894 37897 37836 37691 37607 37651 37643 37597 37532 37517 37584 37715 37878 37993 38025 37979 37911 37873 37791 37625 37444 37387 37563 37841 38078 38248 38286 38316 38282 38250 38210 38211 38225 38145 37983 37782 37596 37515 37607 37737 37882 37987 38031 38004 37897 37823 37713 37626 37624 37874 38161 38321 38321 38301 38279 38275 38259 38301 38328 38441 38479 38505 38513 38526 38561 38629 38734 38718 38640 38538 38410 38292 38208 38017 37845 37675 37597 37578 37604 37659 37750 37853 37915 37878 37749 37551 37401 37263 37201 37177 37145 37205 37346 37530 37672 37800 37898 37920 37687 37325 37043 36822 36713 36768 36899 37081 37177 37345 37502 37608 37739 37826 37852 37893 37864 37799 37757 37773 37836 37941 38027 38127 38164 38175 38128 38072 38013 38012 37965 37944 37918 37912 37998 38142 38316 38455 38600 38698 38708 38695 38690 38720 38746 38754 38753 38746 38654 38566 38464 38357 38245 38143 38063 37979 37959 37931 37892 37929 37993 38135 38224 38229 38227 38229 38227 38251 38242 38262 38309 38287 38290 38303 38344 38410 38365 38318 38154 37954 37764 37597 37435 37296 37172 37090 37085 37098 37102 37084 37072 37065 37066 37047 36957 36863 36806 36765 36675 36643 36642 36644 36615 36581 36540 36486 36425 36388 36310 36176 35951 35770 35712 35801 35970 36104 36204 36211 36242 36249 36250 36249 36212 36232 36113 35974 35883 35833 35904 36140 36433 36710 36978 37201 37361 37475 37591 37347 37161 37123 37113 37184 37323 37552 37789 37909 37972 37969 38023 38051 38044 38018 38005 38058 38106 38040 37909 37776 37675 37608 37570 37526 37422 37355 37325 37447 37591 37768 37960 38128 38249 38324 38350 38395 38431 38513 38597 38608 38522 38442 38392 38389 38362 38357 38309 38203 38021 37773 37614 37440 37336 37319 37427 37594 37749 37899 38026 38179 38296 38373 38470 38538 38529 38451 38423 38328 38322 38340 38403 38433 38432 38383 38312 38229 38167 38109 37993 37778 37597 37550 37572 37585 37650 37656 37626 37637 37647 37603 37641 37711 37762 37779 37725 37665 37688 37729 37748 37707 37659 37638 37620 37583 37505 37418 37383 37475 37583 37674 37676 37617 37605 37590 37586 37590 37584 37594 37561 37490 37466 37469 37497 37596 37670 37672 37498 37270 37119 37025 36910 36798 36721 36828 37062 37333 37554 37770 37922 38111 38229 38255 38193 38258 38346 38394 38551 38717 38907 39074 39221 39298 39287 39230 39204 39207 39219 39094 38882 38761 38784 38909 39020 39201 39337 39477 39655 39651 39557 39411 39257 39173 39022 38850 38706 38642 38738 38850 38828 38721 38560 38439 38426 38450 38435 38403 38467 38527 38573 38559 38534 38513 38532 38530 38522 38497 38431 38394 38307 38245 38224 38225 38255 38362 38390 38368 38303 38229 38126 38020 37916 37804 37709 37611 37585 37639 37746 37913 38159 38362 38501 38528 38502 38475 38439 38477 38484 38488 38481 38455 38486 38552 38653 38762 38824 38801 38655 38451 38265 38081 37924 37831 37900 38014 38172 38287 38319 38275 38255 38183 38103 37956 37745 37509 37325 37195 37125 37109 37214 37292 37347 37324 37209 37133 37032 36956 36896 36776 36591 36654 36868 37088 37225 37250 37161 37055 36901 36743 36585 36487 36377 36252 36090 35889 35823 35915 36274 36850 37400 37784 38182 38570 38977 39309 39597 39833 40096 40289 40334 40355 40410 40486 40595 40725 40857 40969 41084 41177 41261 41381 41484 41551 41561 41540 41532 41560 41553 41603 41659 41716 41784 41916 42054 42162 42221 42278 42327 42301 42267 42266 42308 42346 42414 42455 42498 42566 42584 42597 42636 42672 42695 42672 42526 42336 42077 42060 42032 41918 41817 41694 41591 41533 41556 41595 41577 41570 41592 41486 41296 41181 41050 40929 40844 40856 40883 40925 40984 41064 41092 41117 41129 41133 41081 40943 40805 40679 40615 40645 40704 40737 40729 40728 40711 40732 40700 40607 40604 40538 40375 40157 39940 39834 39834 39883 39900 39952 39955 39965 40003 40002 39973 39967 39897 39873 39810 39728 39652 39634 39607 39565 39603 39552 39549 39598 39625 39572 39545 39614 39762 39909 39929 39851 39812 39801 39793 39798 39766 39740 39711 39744 39935 40155 40333 40507 40653 40787 40857 40817 40634 40453 40356 40241 40126 40063 40047 40047 40120 40186 40234 40254 40254 40272 40230 40093 39921 39766 39700 39744 39862 40064 40251 40395 40466 40518 40613 40632 40652 40698 40668 40587 40426 40253 40206 40251 40297 40331 40254 40141 39992 39857 39776 39726 39677 39606 39584 39688 39806 39831 39846 39934 40043 40147 40222 40317 40386 40377 40338 40302 40331 40394 40456 40493 40503 40414 40212 40000 39789 39631 39482 39360 39211 39194 39230 39318 39366 39396 39373 39343 39316 39282 39092 38916 38739 38601 38536 38585 38673 38792 38853 38897 38945 38968 38928 38900 38894 38799 38596 38315 38200 38255 38264 38198 38166 38138 38056 37955 37870 37699 37608 37551 37530 37526 37537 37477 37450 37493 37635 37807 38000 38165 38233 38212 38062 37881 37797 37825 37966 38082 38166 38080 37857 37664 37553 37500 37459 37387 37182 37014 36790 36516 36324 36288 36415 36622 36794 36793 36494 36182 36037 36071 36225 36385 36501 36684 36905 37162 37367 37505 37660 37826 37990 38117 38131 38031 37863 37674 37547 37536 37663 37872 38053 38159 38165 38098 37997 37905 37815 37582 37284 36898 36552 36376 36355 36442 36569 36730 36849 36898 36987 37027 37103 37248 37384 37467 37525 37461 37448 37610 37791 37900 37952 37964 37931 37884 37802 37733 37668 37711 37854 37997 38167 38220 38158 38025 37926 37874 37792 37752 37645 37493 37292 37136 37043 36998 37020 37074 37121 37033 36826 36535 36326 36096 35948 35878 35868 35948 36066 36205 36330 36481 36585 36693 36868 36921 36832 36704 36504 36333 36214 36233 36361 36487 36589 36677 36747 36789 36786 36748 36707 36627 36524 36404 36410 36410 36411 36461 36541 36567 36544 36468 36454 36395 36375 36406 36444 36506 36518 36543 36539 36521 36575 36688 36777 36892 36899 36823 36736 36639 36604 36666 36848 36891 36915 36900 36790 36607 36430 36378 36372 36329 36366 36400 36449 36457 36506 36649 36892 37116 37322 37454 37487 37352 37091 36894 36710 36538 36440 36439 36520 36608 36717 36792 36873 36916 36970 37015 37018 37027 36796 36482 36147 35888 35800 35920 36161 36391 36484 36517 36496 36488 36468 36412 36345 36269 36130 36095 36119 36204 36328 36462 36599 36705 36779 36796 36864 36854 36749 36601 36461 36431 36319 36240 36181 36126 36056 35989 35860 35745 35648 35560 35537 35604 35821 36050 36299 36466 36568 36552 36493 36548 36666 36824 36983 37003 36955 36867 36878 36950 37118 37273 37386 37466 37449 37285 37118 36991 36801 36612 36542 36592 36724 36942 37150 37318 37504 37685 37896 38027 38050 37954 37716 37482 37290 37129 37050 37003 36996 36946 36839 36725 36586 36483 36434 36362 36216 36120 36172 36311 36504 36689 36859 37046 37238 37413 37521 37637 37709 37710 37708 37680 37616 37567 37647 37705 37759 37786 37721 37652 37585 37433 37316 37167 37074 37103 37177 37152 37073 36974 36907 36866 36828 36876 37105 37269 37444 37449 37472 37597 37880 38293 38511 38468 38305 38193 38045 37963 38003 38155 38302 38493 38693 38860 38881 38850 38816 38706 38416 38096 37737 37394 37161 36991 36861 36777 36803 36887 36989 37097 37176 37208 37157 37015 36701 36471 36387 36453 36646 36846 37026 37154 37201 37229 37201 37142 37039 36989 36772 36392 35973 35675 35572 35683 35856 36097 36311 36542 36755 37029 37367 37731 38026 38369 38636 38977 39355 39739 40067 40381 40623 40826 41013 41102 41174 41247 41289 41298 41314 41286 41197 41070 41053 41060 41092 41180 41215 41255 41289 41373 41525 41694 41882 42079 42242 42353 42462 42570 42644 42773 42917 43040 43171 43257 43317 43376 43433 43540 43583 43662 43732 43738 43735 43751 43801 43868 43920 43988 44124 44270 44239 44130 43876 43640 43420 42979 42643 42402 42275 42214 42164 42133 42153 42110 42089 42036 42018 42050 42070 42127 42117 41994 41864 41730 41621 41534 41471 41447 41419 41436 41473 41489 41495 41468 41478 41424 41282 41054 40864 40713 40586 40509 40473 40390 40333 40236 40162 40092 40007 39913 39712 39391 39107 38912 38718 38569 38457 38377 38340 38284 38235 38257 38346 38474 38641 38741 38681 38569 38487 38457 38426 38422 38445 38459 38465 38482 38469 38445 38480 38508 38505 38353 38165 38063 38118 38176 38270 38360 38446 38502 38507 38457 38450 38474 38433 38318 38098 37874 37753 37730 37750 37799 37804 37705 37606 37560 37515 37546 37527 37549 37633 37662 37615 37647 37772 37906 38068 38239 38421 38620 38858 39015 39107 39250 39441 39673 39770 39743 39748 39787 39796 39870 39991 40117 40135 40085 40010 39969 40067 40199 40340 40382 40331 40228 40195 40192 40272 40327 40351 40320 40228 40142 40097 40119 40232 40408 40412 40241 39955 39654 39390 39136 38900 38682 38505 38463 38489 38578 38669 38727 38788 38905 39003 39058 39006 39047 39040 39061 39064 38979 38912 38841 38768 38713 38658 38585 38489 38383 38179 37923 37725 37626 37690 37835 38084 38351 38634 38905 39120 39275 39404 39516 39600 39495 39265 38923 38575 38370 38331 38419 38452 38398 38260 38106 38011 37831 37648 37517 37469 37488 37580 37791 37925 38171 38311 38366 38373 38387 38457 38431 38301 38115 37995 37878 37712 37543 37409 37344 37292 37183 37026 36792 36621 36565 36522 36610 36822 37124 37235 37224 37141 37089 37089 37081 37063 37112 37060 36947 36793 36707 36748 36897 37002 36941 36761 36605 36458 36281 36207 36147 36086 36051 36164 36408 36709 36949 37108 37063 36841 36632 36516 36373 36328 36303 36184 36042 35924 35926 36074 36304 36480 36598 36478 36210 35920 35746 35676 35623 35632 35798 36121 36385 36625 36757 36807 36820 36817 36643 36471 36416 36443 36374 36313 36254 36311 36544 36864 37122 37306 37469 37522 37497 37390 37389 37352 37327 37350 37591 37871 38105 38317 38499 38667 38822 38937 38991 39000 38993 38878 38714 38575 38444 38437 38436 38434 38412 38382 38356 38324 38304 38288 38272 38169 38094 38162 38323 38548 38736 38823 38866 38894 38902 38865 38814 38727 38664 38603 38521 38420 38347 38367 38546 38770 38983 39130 39180 39145 39099 39053 38921 38719 38526 38420 38334 38240 38190 38143 38112 38083 38045 37967 37874 37862 37845 37819 37818 37828 37890 37974 37996 37996 38027 38125 38175 38212 38200 38131 37984 37861 37853 37906 37910 37923 37955 37942 37810 37633 37454 37181 37028 36988 36907 36766 36617 36563 36631 36740 36802 36859 36910 36822 36573 36410 36449 36225 35813 35710 35623 35617 35768 36096 36300 36291 36485 36578 36631 36580 36188 35820 35543 35476 35640 35875 36007 36077 36088 36063 36047 35880 35712 35595 35515 35466 35552 35737 35952 36225 36494 36758 36959 37114 37390 37419 37341 37259 37207 37215 37212 37164 37107 37128 37151 37166 37108 37038 36830 36740 36663 36590 36853 37108 37329 37531 37534 37453 37354 37389 37392 37429 37437 37364 37227 37087 37042 37020 37070 37134 37169 37179 37217 37265 37348 37363 37290 37252 37229 37338 37481 37691 37891 38093 38270 38476 38633 38766 38878 38956 39032 39050 39067 39073 39142 39311 39500 39711 39842 39945 40013 39926 39740 39577 39380 39148 39020 39065 39247 39543 39736 39773 39740 39684 39606 39569 39469 39353 39249 39156 39117 39116 39207 39313 39437 39553 39655 39761 39783 39762 39728 39676 39479 39255 39136 39132 39205 39312 39443 39531 39553 39533 39440 39393 39300 39234 39181 39010 38773 38518 38342 38253 38236 38250 38289 38255 38190 38058 37936 37866 37728 37549 37425 37306 37228 37238 37323 37384 37393 37337 37248 37169 37107 37003 36979 36910 36862 36804 36661 36476 36405 36462 36532 36566 36625 36657 36613 36570 36489 36377 36284 36333 36465 36518 36529 36533 36553 36625 36623 36560 36509 36436 36337 36165 36019 35875 35742 35612 35494 35337 35278 35348 35477 35593 35684 35716 35656 35636 35624 35613 35590 35593 35587 35598 35582 35541 35539 35571 35622 35697 35738 35766 35776 35809 35860 35914 35979 36081 36162 36214 36210 36246 36309 36413 36518 36635 36774 36899 37014 37143 37252 37357 37479 37545 37642 37688 37721 37733 37767 37833 37889 37973 38055 38127 38193 38268 38339 38443 38549 38639 38721 38801 38850 38923 39003 39098 39215 39322 39411 39546 39664 39797 39928 40084 40264 40504 40813 41198 41542 41829 42172 42537 42866 43097 43234 43342 43411 43391 43315 43272 43304 43326 43358 43324 43310 43277 43364 43533 43728 43749 43731 43640 43507 43384 43360 43350 43331 43236 43210 43188 43182 43110 43020 42904 42853 42811 42804 42739 42665 42554 42446 42343 42249 42149 42055 41918 41928 41837 41738 41622 41491 41402 41363 41293 41206 41137 41064 41002 40984 41016 41031 41031 40997 40988 40867 40710 40555 40438 40354 40296 40182 40106 39971 39898 39773 39668 39618 39638 39647 39605 39535 39364 39225 39146 39125 39134 39139 39129 39121 39161 39160 39189 39204 39233 39306 39346 39340 39298 39204 39150 39146 39149 39187 39251 39330 39430 39501 39541 39589 39570 39549 39481 39435 39299 39125 38923 38778 38730 38765 38862 38924 39009 39091 39200 39320 39463 39595 39707 39802 39807 39757 39664 39621 39644 39688 39763 39800 39883 39978 40056 40133 40230 40333 40414 40504 40557 40526 40472 40421 40424 40443 40485 40515 40628 40549 40557 40575 40601 40648 40689 40728 40759 40749 40715 40694 40692 40706 40740 40798 40838 40894 40943 40949 40998 41031 41050 41092 41106 41079 41064 41020 41019 41025 41038 41089 41153 41222 41312 41318 41375 41448 41537 41586 41542 41450 41411 41375 41374 41349 41308 41261 41244 41255 41242 41265 41255 41237 41217 41182 41136 41098 41100 41159 41178 41196 41232 41253 41262 41285 41278 41292 41359 41634 41819 41629 41359 41185 41109 41016 40924 40850 40767 40614 40473 40401 40278 40098 39937 39767 39589 39338 39013 38771 38635 38555 38509 38415 38330 38194 38075 38010 37981 38029 38126 38285 38436 38527 38468 38400 38410 38440 38530 38635 38645 38668 38698 38599 38499 38341 38262 38300 38425 38505 38442 38362 38252 38141 38041 37935 37914 37919 37981 38123 38377 38584 38842 39122 39393 39493 39453 39381 39403 39406 39322 39188 39204 39163 39127 39113 39117 39098 39090 39097 39045 38888 38794 38783 38731 38824 39117 39412 39640 39833 39978 40070 40169 40212 40326 40458 40487 40388 40311 40343 40409 40487 40487 40436 40402 40369 40293 40245 40160 40138 40074 40036 40195 40343 40460 40579 40683 40764 40849 40889 40914 41030 41079 41068 40950 40907 40953 41001 41035 40967 40858 40755 40679 40584 40494 40339 40268 40091 40057 40224 40438 40622 40723 40797 40756 40631 40478 40328 40274 40222 40134 40011 39950 39963 40055 40092 40072 40039 39928 39782 39514 39216 38964 38776 38534 38457 38584 38755 38922 38857 38785 38660 38559 38488 38501 38591 38605 38290 38058 37995 38112 38305 38536 38675 38833 39014 39326 39658 39815 39771 39667 39554 39422 39501 39778 39943 39915 39897 39863 39860 39869 39778 39619 39562 39516 39357 39127 38914 38727 38610 38582 38584 38558 38516 38437 38337 38237 38093 38062 37935 37864 38047 38376 38620 38720 38727 38674 38639 38597 38619 38706 38661 38583 38478 38391 38337 38311 38284 38225 38185 38096 37952 37852 37852 37956 38208 38374 38766 39186 39560 39896 40127 40164 40163 40180 40189 40125 40061 39961 39837 39710 39684 39631 39655 39727 39746 39707 39652 39655 39618 39596 39604 39606 39375 39249 39467 39587 39602 39595 39578 39565 39463 39341 39302 39308 39284 39258 39302 39357 39470 39515 39561 39558 39571 39561 39597 39632 39643 39662 39651 39718 39951 40265 40493 40603 40730 40820 40826 40883 40893 40970 40902 40853 40762 40640 40565 40513 40459 40394 40324 40224 40147 40079 39981 39893 39796 39711 39833 40084 40328 40580 40787 40960 41063 41102 41192 41267 41495 41620 41575 41314 40990 40750 40580 40430 40332 40201 40031 39826 39622 39442 39284 39178 38996 38932 39106 39381 39605 39701 39723 39710 39726 39779 39760 39778 39765 39751 39710 39725 39870 40123 40382 40658 40853 40918 40883 40846 40794 40668 40588 40351 40122 40104 40174 40290 40421 40505 40491 40413 40378 40248 40038 39739 39519 39262 39102 39024 39003 39034 39069 39081 39056 39023 38912 38737 38501 38424 38387 38433 38669 38963 39149 39250 39283 39289 39338 39405 39420 39469 39418 39323 39212 39161 39151 39126 39124 39154 39185 39194 39150 39030 38929 38833 38786 38747 38839 39014 39222 39405 39536 39574 39499 39421 39395 39448 39612 39588 39477 39334 39215 39171 39144 39111 39132 39177 39255 39294 39296 39262 39245 39183 39117 39104 39127 39249 39371 39474 39585 39704 39815 39985 40082 40186 40061 39901 39681 39528 39413 39381 39384 39382 39349 39310 39234 39162 39079 38977 38850 38749 38651 38619 38668 38759 38843 38904 38880 38788 38719 38614 38530 38480 38368 38320 38214 38107 38008 37949 37932 37975 38025 38097 38171 38198 38172 38102 38101 38033 37964 38052 38305 38592 38752 38793 38777 38755 38754 38740 38748 38720 38677 38632 38519 38390 38292 38153 38057 37917 37811 37653 37457 37347 37343 37387 37428 37490 37538 37546 37554 37812 37619 37469 37519 37617 37831 37942 37955 37939 37964 38125 38296 38432 38253 38096 38007 37906 37817 37811 37906 37835 37656 37491 37368 37173 36913 36801 36921 37153 37384 37492 37494 37581 37729 37861 37940 37926 37928 37983 38131 38156 37994 37798 37700 37738 37890 38077 38208 38267 38278 38255 38205 38147 38114 38173 38273 38313 38106 38027 38056 38218 38331 38350 38327 38352 38343 38285 38213 38154 38293 38586 38722 38748 38735 38600 38432 38353 38306 38274 38252 38264 38267 38260 38221 38215 38185 38223 38327 38148 38026 38148 38358 38477 38438 38477 38509 38585 38658 38670 38613 38596 38636 38637 38664 38668 38602 38458 38251 38104 38209 38319 38259 38180 38110 38020 38000 38013 38017 38029 38053 38069 38015 37966 38028 38103 37926 37775 37767 37809 37852 37769 37596 37404 37254 37081 36904 36710 36686 37368 37746 37684 37839 37993 38139 38262 38197 38094 37945 37828 37762 37696 37564 37422 37337 37286 37276 37241 37199 37151 37154 37173 37207 37223 37230 37270 37228 37113 36983 36856 36636 36548 36724 36923 36991 37032 37031 37029 37091 37205 37315 37332 37234 37182 37246 37362 37486 37562 37592 37639 37718 37733 37632 37755 37839 37881 37821 37604 37292 37075 37043 37042 37026 37031 37068 37086 37006 36908 36787 36673 36644 36685 36812 37014 37176 37358 37535 37667 37747 37781 37783 37770 37758 37719 38007 38475 38690 38595 38487 38475 38576 38702 38679 38660 38685 38655 38585 38531 38452 38404 38363 38329 38313 38297 38243 38201 38164 38165 38174 38123 38053 37981 37938 37817 37709 37690 37869 37845 37759 37820 37832 37811 37737 37659 37409 37140 37268 37490 37594 37649 37731 37773 37785 37810 37858 37904 37823 37791 37774 37807 37840 37968 38052 38157 38286 38355 38500 38601 38702 38737 38734 38781 38848 38807 38745 38681 38830 39002 39239 39322 39288 39191 39103 39059 39038 39071 39080 39138 39129 38989 38840 38754 38748 38836 38958 39038 39047 39025 38985 38960 38939 38948 38962 38971 39003 38866 38703 38578 38505 38463 38444 38470 38472 38459 38450 38449 38429 38446 38445 38445 38448 38379 38202 38055 37996 38012 38048 38076 38090 38083 38082 38111 38199 38317 38524 38761 39014 39282 39545 39869 40173 40482 40704 40819 40791 40752 40642 40535 40497 40503 40541 40532 40486 40399 40342 40191 40020 39939 39940 39954 39995 39972 39939 39905 39894 39903 39911 39940 39990 40009 40020 39940 39788 39581 39462 39410 39399 39381 39349 39301 39269 39244 39268 39442 39595 39599 39579 39530 39427 39225 39040 38946 38917 38890 38875 38852 38818 38760 38713 38693 38654 38614 38592 38605 38670 38691 38614 38539 38522 38598 38665 38767 38842 38891 38948 39039 39153 39272 39374 39441 39639 39862 39918 39751 39441 39182 38938 38729 38619 38565 38546 38592 38712 38904 39124 39373 39624 39857 40069 40261 40342 40341 40392 40521 40694 40865 41050 41206 41381 41551 41746 41935 42162 42374 42583 42773 42914 42987 42936 42857 42852 42940 42990 43069 43111 43151 43179 43262 43435 43280 42977 42649 42379 42203 41917 41471 41022 40680 40445 40299 40216 40180 40237 40347 40482 40629 40802 41006 41171 41318 41471 41577 41504 41427 41727 41693 41563 41301 40979 40716 40466 40255 40047 39879 39709 39541 39366 39231 39065 38725 38284 37940 37810 37842 37967 38092 38226 38376 38546 38767 39018 39271 39509 39756 39982 40181 40225 40443 40272 39997 39757 39547 39331 39094 38805 38506 38260 38125 38086 38119 38227 38363 38539 38610 38602 38677 38843 39058 39284 39505 39675 39857 40031 40197 40389 40572 40749 40906 41056 41185 41187 41106 41085 41104 41407 41413 41252 40915 40649 40416 40130 39869 39657 39479 39303 39104 38915 38561 38165 37853 37625 37462 37355 37229 37092 36946 36863 36819 36772 36727 36717 36678 36648 36500 36306 36223 36315 36496 36759 37024 37277 37510 37774 38047 38354 38639 38887 39155 39333 39668 39491 39287 39050 38857 38691 38511 38263 38014 37739 37505 37262 37109 37020 37079 37223 37315 37382 37502 37723 38028 38345 38644 38901 39209 39289 39396 39436 39277 39098 38886 38600 38177 37701 37304 37048 36965 37004 37163 37377 37617 38036 38344 38349 38196 38014 37851 37532 37136 36773 36563 36393 36305 36238 36216 36297 36484 36705 36963 37249 37556 38107 38263 38213 38017 37780 37560 37358 37168 36973 36803 36668 36613 36621 36629 36630 36603 36446 36255 36104 36087 36114 36166 36170 36153 36163 36209 36264 36319 36392 36396 36298 36097 35945 35953 35952 35912 35840 35773 35712 35620 35599 35676 35714 35720 35712 35662 35611 35498 35498 35611 35753 35798 35781 35813 35945 36105 36177 36244 36313 36408 36476 36516 36409 36197 36085 36084 36122 36194 36248 36274 36284 36319 36378 36464 36552 36631 36702 36690 36601 36519 36531 36580 36647 36673 36684 36661 36686 36703 36747 36780 36828 36876 36941 36905 36843 36823 36872 36918 36980 37023 37068 37093 37090 37111 37134 37164 37185 37179 37139 37048 36983 37121 37414 37652 37777 37800 37837 37894 37999 38108 38242 38356 38500 38615 38735 38869 39030 39211 39384 39546 39667 39750 39832 39893 39977 40031 40099 40159 40153 40120 40076 40015 39967 39905 39829 39738 39651 39546 39459 39352 39262 39169 39106 39000 38888 38777 38708 38701 38734 38809 38864 38937 39011 39113 39233 39364 39512 39684 39859 40007 40087 40228 40393 40575 40743 40881 41019 41108 41299 41304 41312 41192 41104 40995 40788 40502 40160 39859 39613 39388 39176 38979 38791 38675 38600 38604 38680 38790 38887 39014 39009 38891 38801 38816 38863 38963 39063 39119 39282 39351 39398 39315 39146 38959 38771 38556 38323 37961 37553 37241 37122 37104 37120 37191 37280 37386 37519 37683 37839 38005 38157 38311 38475 38627 38737 38753 38758 38835 38935 39066 39204 39303 39383 39487 39624 39791 40049 40303 40241 40099 40009 39917 39825 39609 39362 39101 38888 38684 38553 38425 38286 38178 38132 38163 38239 38330 38420 38557 38705 38855 39046 39172 39213 39209 39296 39445 39589 39743 39882 40051 40194 40278 40440 40300 40123 39936 39726 39507 39283 39038 38901 38797 38738 38670 38544 38401 38298 38294 38300 38336 38355 38398 38444 38513 38591 38632 38678 38749 38800 38861 38920 38982 39029 39072 39020 38953 38940 38980 39085 39233 39368 39441 39457 39479 39511 39579 39660 39680 39660 39666 39657 39659 39659 39652 39653 39756 39718 39533 39361 39185 38975 38676 38187 37887 37884 37976 38077 38235 38476 38765 39053 39346 39621 39797 39971 40097 40117 40148 40194 40120 40030 39930 39862 39808 39729 39607 39472 39341 39151 38984 38869 38722 38614 38657 38677 38636 38577 38498 38513 38617 38748 38861 38995 39047 39049 39007 38977 38941 38913 38862 38815 38760 38644 38514 38396 38335 38257 38183 38129 38087 37959 37838 37710 37614 37597 37676 37795 37934 38058 38129 38139 38083 38042 37961 37926 37906 37898 37893 37910 37990 38117 38280 38478 38671 38824 38938 39020 39046 38995 38906 38835 38826 38854 38963 39081 39216 39331 39416 39486 39526 39530 39532 39517 39544 39539 39518 39455 39413 39446 39524 39637 39782 39881 39915 39914 39893 39835 39747 39645 39542 39474 39454 39489 39517 39513 39511 39514 39487 39451 39404 39363 39376 39373 39409 39432 39512 39644 39714 39700 39660 39556 39316 39027 38744 38463 38183 38007 37882 37837 37909 38040 38210 38259 38261 38208 38121 38071 37971 37865 37621 37348 37086 36904 36872 36937 37066 37179 37239 37255 37235 37171 37153 37144 37088 37041 37026 37074 37048 37042 37031 37025 36988 36943 36918 36879 36841 36789 36752 36688 36557 36502 36517 36564 36668 36748 36778 36671 36455 36244 36101 36096 36199 36307 36359 36415 36523 36667 36833 36995 37119 37120 37127 37122 37067 37019 36902 36717 36577 36413 36273 36169 36164 36216 36330 36440 36512 36525 36509 36442 36414 36406 36351 36378 36493 36668 36796 36840 36859 36841 36815 36803 36791 36770 36735 36567 36378 36277 36158 36094 36021 36022 36118 36231 36309 36386 36359 36236 36094 36034 36023 36042 36065 36040 36016 36097 36222 36456 36660 36921 37158 37411 37692 37938 38035 38050 37975 37844 37652 37469 37346 37188 37071 37199 37468 37735 37932 38036 38070 37983 37827 37578 37442 37382 37428 37566 37771 37973 38129 38256 38317 38395 38445 38622 38786 38803 38757 38661 38592 38593 38632 38714 38735 38754 38707 38610 38435 38225 38081 37838 37650 37644 37715 37837 37991 38067 38058 38063 38031 38014 38001 37960 37931 37847 37719 37591 37572 37662 37818 37997 38125 38282 38378 38420 38507 38605 38675 38814 39011 39255 39536 39801 40119 40479 40852 41184 41497 41829 42101 42364 42677 42973 43177 43457 43639 43748 43818 43890 43940 43914 43853 43827 43799 43799 43860 43898 43939 44055 44146 44272 44374 44449 44573 44678 44785 44888 44943 45018 45008 44972 44949 44929 44940 44954 44947 44900 44838 44809 44814 44758 44483 44290 44255 44230 44221 44171 44064 43848 43589 43377 43248 43128 43028 42850 42641 42407 42234 42115 42013 41941 41844 41759 41725 41614 41368 41059 40751 40433 40104 39847 39619 39403 39352 39391 39435 39400 39409 39497 39615 39697 39812 39875 39859 39747 39636 39514 39384 39283 39224 39177 39116 39070 39075 39123 39213 39298 39377 39468 39502 39366 39172 38977 38896 38905 38886 38877 39003 39134 39286 39382 39479 39508 39542 39569 39556 39603 39663 39627 39529 39425 39418 39461 39536 39579 39572 39553 39515 39440 39430 39479 39547 39599 39673 39892 40037 40072 40091 40069 40049 39997 39985 39912 39935 39921 39878 39849 39822 39895 40003 40087 40099 40024 39862 39712 39585 39493 39474 39417 39343 39366 39560 39846 40079 40170 40255 40292 40314 40289 40180 40044 39980 39893 39824 39769 39796 39882 39980 40047 40089 40065 39995 39934 39850 39789 39700 39585 39495 39590 39775 39953 40094 40146 40153 40108 40047 40021 39981 40004 39984 39969 39862 39783 39799 39908 40068 40235 40422 40554 40588 40575 40596 40637 40702 40717 40788 40878 40952 41001 41044 41082 41120 41115 41112 41049 41068 40914 40747 40586 40463 40444 40477 40453 40358 40195 40030 39841 39655 39546 39387 39231 39119 39217 39446 39694 39799 39808 39756 39583 39383 39207 38963 38735 38496 38285 38108 38036 38117 38299 38588 38924 39242 39507 39609 39612 39611 39448 39204 38859 38667 38659 38749 38903 39005 39101 39142 39169 39140 39076 38898 38644 38444 38274 38252 38335 38421 38540 38620 38659 38658 38684 38655 38586 38474 38324 38169 38183 38263 38396 38561 38732 38860 38923 38991 39023 39106 39074 38999 38949 38930 38892 38852 38787 38789 38809 38905 39000 39044 39093 39102 39057 39078 39065 39098 39225 39382 39533 39558 39506 39445 39335 39281 39202 39126 39032 38931 38865 38851 38890 38989 39041 39072 39108 39038 38852 38687 38593 38531 38606 38818 39011 39112 39168 39192 39199 39208 39244 39386 39419 39326 39098 38885 38815 38804 38776 38815 38830 38837 38789 38768 38696 38747 38809 38847 39006 39472 39713 39775 39771 39794 39762 39723 39681 39669 39638 39550 39389 39239 39145 39110 39145 39153 39152 39060 38841 38594 38501 38418 38596 38799 38880 38990 39154 39323 39423 39492 39564 39653 39711 39781 39669 39434 39115 38805 38590 38505 38518 38567 38595 38713 38696 38507 38482 38364 38261 38191 38258 38428 38600 38676 38713 38806 38920 39034 39182 39238 39380 39360 39305 39236 39222 39378 39576 39781 39955 39890 39722 39656 39607 39583 39573 39491 39404 39401 39486 39557 39629 39656 39850 40144 40403 40542 40797 40926 40990 41115 41378 41619 41776 41917 41951 41942 41992 42067 42214 42339 42347 42343 42192 42162 42218 42230 42196 42210 42203 42252 42387 42505 42677 42713 42718 42727 42821 42986 43087 43187 43282 43321 43332 43310 43307 43349 43529 43607 43568 43485 43525 43632 43692 43739 43781 43758 43705 43693 43626 43646 43627 43532 43297 43126 43026 42963 42901 42860 42785 42677 42463 42141 41812 41557 41396 41344 41460 41528 41515 41452 41404 41441 41463 41306 41108 40892 40681 40350 39996 39716 39550 39496 39499 39549 39618 39726 39795 39825 39816 39751 39605 39379 38966 38661 38455 38232 38119 37989 37924 37866 37787 37720 37603 37498 37387 37327 37316 37303 37330 37359 37395 37537 37748 37923 38070 38180 38368 38489 38585 38715 38991 39317 39612 39899 40184 40339 40469 40638 40819 41044 41272 41495 41680 41871 42093 42250 42365 42455 42519 42552 42601 42589 42592 42619 42718 42867 42947 43072 43227 43316 43292 43254 43257 43276 43361 43528 43686 43772 43801 43684 43573 43547 43687 43841 44001 44124 44228 44285 44280 44223 43892 43707 43575 43618 43637 43499 43341 43128 42946 42929 42904 42807 42727 42630 42592 42420 42221 42009 41830 41732 41670 41649 41550 41378 41211 41081 40998 40942 40882 40907 40832 40769 40823 40901 40955 40988 41028 41099 41180 41187 41047 40955 40821 40618 40451 40360 40349 40355 40369 40364 40298 40209 40145 40081 39950 39938 39965 39789 39568 39502 39528 39608 39676 39740 39789 39795 39821 39854 39960 40032 40010 39895 39814 39810 39802 39685 39550 39464 39397 39320 39221 39106 38999 38882 38799 38835 39075 39288 39400 39463 39536 39577 39480 39413 39323 39368 39371 39333 39207 39104 39074 39101 39175 39238 39261 39269 39260 39189 39095 38916 38701 38539 38603 38885 39138 39274 39384 39458 39491 39505 39545 39582 39646 39607 39537 39363 39244 39199 39279 39363 39387 39382 39321 39194 39092 39045 38989 38963 39013 39187 39461 39690 39732 39655 39624 39681 39824 39871 39933 39935 39885 39720 39563 39473 39493 39595 39680 39692 39649 39500 39284 39131 39018 38926 38872 38863 39060 39314 39557 39701 39780 39893 39956 40007 40004 39958 39908 39787 39624 39500 39441 39453 39493 39515 39507 39463 39414 39334 39283 39233 39227 39138 39023 39099 39308 39573 39778 39942 40069 40124 40140 40100 40183 40148 40077 39945 39800 39655 39536 39498 39501 39464 39425 39325 39215 39078 38956 38875 38787 38801 39068 39378 39481 39498 39463 39353 39227 39273 39310 39358 39318 39171 38973 38807 38697 38665 38655 38639 38465 38227 38004 37838 37690 37534 37427 37330 37331 37498 37698 37842 37966 38100 38221 38266 38249 38135 38157 38073 37946 37756 37586 37456 37404 37456 37534 37589 37633 37624 37490 37265 36977 36730 36637 36699 36965 37256 37506 37615 37680 37730 37767 37848 37922 38021 38135 37986 37714 37456 37279 37234 37342 37442 37483 37467 37368 37223 37157 37119 37022 36969 37032 37181 37430 37644 37761 37814 37862 37979 38103 38204 38222 38318 38267 38213 38117 38038 38021 37980 37959 37980 38003 37968 37920 37813 37725 37585 37539 37509 37496 37632 37800 37966 38096 38214 38335 38470 38587 38595 38693 38688 38649 38586 38517 38516 38579 38681 38776 38808 38794 38676 38565 38482 38420 38419 38410 38415 38589 38846 39046 39171 39290 39352 39470 39639 39803 39900 39883 39778 39660 39524 39463 39453 39489 39532 39553 39532 39473 39387 39301 39189 39058 38938 38820 38784 38818 38896 38953 39001 39089 39193 39333 39441 39511 39560 39537 39459 39287 39081 38881 38788 38751 38702 38639 38546 38422 38248 38136 38044 37984 37922 37934 38173 38453 38471 38369 38282 38254 38279 38336 38402 38449 38376 38258 38062 37903 37812 37800 37805 37820 37686 37447 37239 37019 36917 36869 36811 36731 36737 36931 37228 37456 37555 37623 37682 37718 37721 37621 37586 37442 37237 37002 36796 36696 36690 36731 36789 36881 36945 36958 36897 36833 36689 36505 36377 36370 36520 36687 36852 36950 37019 37099 37223 37353 37332 37388 37332 37302 37215 37065 36920 36886 36964 37081 37178 37238 37221 37126 37034 36939 36948 36991 37015 37200 37486 37733 37814 37831 37914 38010 38070 38075 38139 38096 38017 37928 37827 37780 37799 37886 37965 37999 37890 37750 37557 37448 37304 37172 37026 36926 36953 37112 37255 37346 37413 37480 37572 37637 37614 37616 37557 37502 37451 37400 37453 37547 37673 37781 37862 37896 37907 37891 37869 37755 37622 37594 37676 37921 38139 38330 38466 38561 38649 38726 38844 38895 38901 38924 38901 38844 38745 38641 38613 38633 38720 38771 38770 38703 38594 38484 38407 38364 38310 38277 38306 38426 38529 38555 38543 38568 38593 38627 38748 38781 38849 38815 38730 38618 38509 38420 38394 38321 38187 38063 37939 37863 37659 37569 37477 37459 37455 37398 37484 37717 37955 38076 38132 38033 37879 37787 37738 37833 37817 37718 37530 37319 37212 37247 37389 37504 37549 37507 37354 37066 36784 36548 36435 36364 36408 36595 36907 37107 37234 37374 37497 37645 37746 37844 37845 37591 37271 36979 36770 36711 36813 36993 37125 37178 37144 37017 36886 36783 36740 36729 36687 36669 36764 36934 37076 37185 37301 37459 37638 37743 37797 37836 37755 37673 37538 37427 37304 37235 37263 37322 37381 37365 37282 37168 37045 36930 36849 36911 37139 37465 37697 37922 38039 38067 38081 38116 38191 38227 38262 38287 38229 38091 37956 37913 37969 38089 38230 38232 38087 37876 37687 37569 37474 37377 37326 37350 37576 37866 38127 38280 38389 38473 38556 38661 38644 38675 38556 38428 38248 38088 37976 37984 38109 38220 38329 38330 38206 38145 37968 37701 37553 37497 37502 37554 37624 37700 37736 37822 37866 37937 37942 37963 38009 37960 37704 37433 37270 37289 37441 37693 37920 38018 37975 37822 37678 37541 37487 37477 37467 37504 37585 37725 37856 37969 38007 38057 38137 38164 38261 38213 38141 37986 37815 37678 37562 37510 37532 37556 37539 37447 37293 37146 37047 37100 37181 37296 37526 37718 37826 37755 37642 37551 37513 37539 37536 37626 37570 37425 37222 37031 36908 36996 37164 37326 37302 37114 36894 36668 36619 36780 36976 36940 36877 36889 36960 37084 37149 37126 37077 37023 36959 36861 36886 36847 36804 36720 36631 36621 36769 36948 37125 37222 37270 37273 37199 37057 36937 36762 36621 36629 36812 37111 37370 37535 37624 37680 37765 37933 38102 38300 38350 38233 38031 37860 37833 37943 38099 38273 38375 38376 38310 38175 38081 37967 37886 37886 38143 38549 38897 39187 39349 39450 39465 39497 39564 39638 39789 39938 40204 40576 40882 41040 41101 40966 40877 40865 40846 40738 40623 40827 41127 41328 41314 41281 41295 41407 41457 41441 41452 41644 41767 41809 41860 41924 42032 42052 42014 41987 42014 42056 42084 41948 41762 41597 41449 41366 41368 41301 41297 41326 41605 42052 42597 43065 43327 43528 43659 43510 43187 42915 42914 42955 43019 43048 43106 43124 43110 43055 43004 42972 42857 42598 42337 42145 41962 41796 41596 41528 41604 41722 41750 41736 41663 41563 41529 41441 41199 41052 41317 41742 42214 42458 42681 42758 42736 42667 42674 42599 42452 42268 41959 41566 41208 40921 40735 40673 40689 40725 40683 40587 40483 40366 40307 40228 40006 39695 39310 38970 38659 38493 38465 38474 38475 38452 38355 38226 38027 37825 37614 37265 36837 36527 36507 36705 36972 37231 37393 37439 37423 37412 37366 37313 37256 37049 36688 36411 36248 36248 36439 36720 36922 37025 37040 36933 36777 36658 36598 36404 36167 36095 36224 36524 36792 37022 37147 37192 37155 37099 37074 37036 37111 37056 36876 36660 36631 36797 37045 37207 37323 37266 37132 36959 36779 36565 36376 36257 36386 36705 36918 37094 37177 37215 37221 37172 37131 37161 37204 37251 37223 37183 37177 37240 37339 37408 37500 37598 37610 37480 37313 37147 37002 36840 36697 36621 36741 36998 37295 37449 37458 37443 37393 37364 37341 37380 37460 37385 37303 37197 37131 37178 37345 37516 37653 37663 37536 37359 37256 37141 37052 36938 36978 37165 37457 37777 37990 38101 38159 38199 38256 38357 38393 38416 38347 38238 38150 38068 38060 38140 38250 38328 38288 38182 38058 37958 37891 37702 37447 37235 37163 37255 37452 37650 37714 37680 37642 37594 37643 37709 37833 37779 37761 37679 37506 37349 37269 37287 37328 37351 37307 37169 36999 36783 36592 36510 36541 36794 37171 37492 37704 37723 37647 37619 37621 37709 37761 37818 37730 37569 37437 37336 37287 37355 37500 37672 37669 37537 37397 37268 37210 37141 37083 37007 37049 37339 37647 37918 38059 38115 38123 38121 38156 38100 38169 38174 38086 37989 37913 37859 37876 37945 38041 38096 38065 37998 37949 37904 37811 37721 37624 37593 37735 37994 38243 38384 38466 38526 38564 38647 38681 38824 38872 38857 38784 38670 38588 38580 38625 38665 38678 38688 38625 38571 38526 38480 38445 38396 38433 38628 38872 38991 39011 38985 38974 38979 39078 39170 39279 39322 39301 39267 39211 39187 39187 39209 39212 39148 39089 39007 38882 38785 38714 38655 38614 38585 38740 39023 39249 39354 39408 39426 39397 39382 39387 39426 39459 39370 39272 39143 39025 38960 38937 38952 38975 38980 38942 38851 38677 38529 38373 38184 38035 37988 38251 38650 38967 39114 39138 39156 39168 39248 39294 39359 39169 38880 38557 38289 38094 37996 38012 38074 38172 38250 38201 38059 37889 37802 37730 37617 37423 37333 37506 37768 38008 38141 38202 38212 38216 38236 38254 38312 38236 38146 37981 37721 37458 37356 37363 37422 37483 37481 37391 37262 37162 37086 37075 37016 37067 37367 37835 38112 38220 38224 38207 38140 38126 38113 38161 38080 37972 37851 37720 37659 37676 37734 37698 37610 37479 37344 37235 37138 37076 37046 37059 37265 37618 37965 38235 38393 38399 38358 38273 38255 38206 38272 38286 38246 38145 38043 37986 38024 38115 38194 38261 38253 38154 38010 37918 37837 37784 37753 37845 38087 38405 38621 38711 38748 38738 38723 38802 38827 38833 38795 38743 38650 38547 38489 38452 38483 38555 38600 38613 38568 38497 38378 38253 38159 38100 38031 38146 38459 38780 38919 38936 38947 38954 39055 39185 39360 39462 39337 39164 38974 38841 38781 38821 38875 38903 38843 38753 38614 38505 38406 38293 38196 38096 38170 38401 38637 38766 38824 38819 38793 38855 38990 39066 39118 39063 38965 38745 38437 38198 38137 38178 38258 38258 38193 38017 37804 37641 37504 37462 37507 37643 37808 37854 37833 37798 37823 37868 37919 37947 38007 38058 38011 37828 37557 37352 37270 37302 37302 37263 37228 37159 37002 36787 36645 36557 36559 36626 36770 37078 37451 37730 37837 37739 37534 37493 37504 37550 37571 37444 37208 36921 36697 36704 36886 37104 37241 37327 37193 36889 36561 36378 36188 36098 36181 36474 36869 37208 37423 37524 37560 37512 37562 37718 37800 37792 37562 37299 37012 36841 36806 36927 37064 37150 37155 37075 36946 36806 36675 36570 36440 36406 36606 36868 37157 37399 37504 37607 37667 37838 37970 38233 38298 38241 38113 37868 37655 37549 37611 37721 37793 37789 37719 37589 37510 37504 37483 37479 37517 37811 38199 38429 38445 38450 38476 38523 38644 38738 38854 38866 38800 38730 38668 38619 38627 38677 38703 38652 38615 38520 38425 38365 38304 38267 38205 38191 38399 38702 38972 39117 39187 39224 39230 39302 39356 39387 39362 39274 39190 39147 39119 39149 39218 39296 39332 39337 39301 39189 39062 38931 38810 38822 38878 39080 39355 39608 39762 39815 39855 39870 39931 40016 40054 39947 39772 39572 39384 39290 39274 39305 39326 39268 39160 39042 38896 38794 38716 38540 38297 38116 38170 38378 38582 38710 38765 38770 38723 38726 38716 38695 38678 38632 38430 38097 37749 37542 37507 37584 37657 37689 37623 37439 37266 37104 37018 36982 37004 37174 37330 37469 37559 37583 37586 37542 37497 37481 37369 37370 37287 37148 36951 36790 36631 36546 36562 36655 36685 36672 36548 36375 36202 36148 36183 36228 36420 36746 37107 37252 37193 37095 36963 36933 36981 37041 37121 37089 36910 36703 36563 36544 36657 36806 36814 36679 36472 36303 36178 36086 36022 35983 35998 36212 36575 36958 37234 37384 37474 37402 37320 37327 37286 37380 37355 37258 37098 36955 36898 37014 37194 37350 37399 37365 37197 36931 36746 36633 36645 36733 36945 37317 37695 37931 38055 38117 38136 38178 38210 38277 38279 38139 37978 37786 37672 37675 37832 38045 38160 38194 38125 38012 37950 37857 37744 37578 37528 37735 38070 38375 38551 38616 38631 38623 38716 38749 38900 38967 38908 38683 38377 38152 38119 38232 38353 38417 38391 38263 38093 37949 37849 37782 37766 37770 37823 37948 38053 38225 38243 38168 38042 37895 37761 37642 37588 37547 37450 37331 37235 37212 37303 37425 37561 37613 37570 37383 37195 37067 36986 36908 36951 37176 37577 37933 38007 37901 37822 37787 37808 37779 37819 37826 37712 37501 37308 37260 37413 37651 37751 37629 37347 37026 36784 36725 36696 36695 36710 36860 37162 37492 37771 37920 38004 37997 37885 37781 37685 37724 37695 37616 37442 37277 37186 37270 37464 37612 37680 37643 37415 37140 36953 36808 36849 36903 37020 37310 37610 37837 37934 38014 38012 38135 38228 38206 38214 38064 37890 37690 37554 37511 37567 37683 37744 37742 37670 37507 37338 37133 36910 36829 36903 37131 37482 37805 38015 38157 38279 38415 38497 38623 38780 38771 38641 38440 38265 38160 38158 38266 38413 38516 38526 38460 38357 38296 38183 38069 37903 37876 38137 38477 38741 38845 38871 38881 38940 39060 39129 39207 39204 39063 38825 38533 38306 38233 38315 38453 38546 38518 38453 38284 38145 37998 37936 37867 37811 37903 38177 38489 38645 38697 38702 38700 38748 38826 38940 38947 38889 38681 38369 38032 37878 37915 38032 38105 38102 37990 37772 37573 37432 37389 37372 37405 37535 37721 37897 38001 38066 38134 38150 38142 38087 38159 38052 37889 37652 37371 37105 36988 37048 37173 37266 37232 37058 36812 36654 36530 36461 36509 36734 37088 37271 37242 37143 37097 37104 37157 37225 37234 37297 37214 37049 36779 36545 36421 36337 36327 36386 36446 36456 36433 36342 36334 36414 36510 36638 36814 37070 37441 37583 37596 37678 37717 37798 37888 37884 37999 37941 37811 37617 37483 37518 37656 37740 37708 37668 37557 37404 37284 37183 37080 36978 36903 36943 37199 37603 37937 38125 38144 38077 38055 38126 38231 38351 38258 38067 37809 37683 37759 37967 38183 38306 38193 37902 37640 37479 37403 37329 37267 37219 37318 37608 37977 38296 38526 38663 38668 38594 38419 38422 38487 38363 38198 37983 37965 38116 38366 38648 38843 38957 38939 38687 38372 38141 37961 37740 37656 37841 38305 38766 39034 39176 39353 39388 39477 39413 39312 39124 38766 38368 38000 37829 37865 38020 38178 38321 38404 38380 38291 38241 38053 37713 37378 37281 37436 37832 38297 38552 38791 38997 39150 39297 39430 39718 39748 39453 38935 38507 38371 38359 38426 38468 38403 38169 37885 37730 37652 37603 37624 37687 37775 37957 38261 38580 38821 38957 38974 38983 38881 38797 38773 38599 38390 38106 37694 37471 37521 37737 37977 38055 37984 37836 37700 37672 37639 37641 37759 37962 38105 38123 38041 38006 38022 38050 38027 37842 37899 37748 37478 37187 37010 37047 37203 37183 37097 36968 36803 36665 36695 36788 36756 36674 36686 36957 37374 37657 37760 37599 37284 37015 36906 36856 37049 37180 37086 36921 36785 36817 37006 37288 37556 37579 37217 36718 36340 36222 36130 36083 36044 36237 36654 37162 37604 37917 38082 38197 38253 38009 37829 37801 37566 37278 37065 37021 37075 37183 37319 37314 37280 37163 36990 36805 36618 36382 36149 36147 36464 36924 37405 37705 37931 38105 38144 38216 38213 38334 38190 37731 37276 37104 37140 37300 37470 37584 37528 37376 37225 37146 37196 37138 37080 37049 37133 37339 37549 37671 37726 37786 37730 37670 37718 38013 38289 38326 38426 38591 38788 38885 38864 38754 38585 38364 38150 37916 37842 37870 37846 37945 38273 38784 39264 39590 39621 39483 39300 39122 38958 38979 38988 38883 38782 38717 38793 38979 39187 39374 39423 39317 39002 38686 38469 38294 38168 38177 38323 38586 38930 39209 39433 39533 39585 39626 39619 39520 39427 39230 39007 38849 38767 38802 38901 38998 38918 38792 38637 38427 38222 38049 37819 37402 37104 37118 37377 37734 38094 38548 38902 39051 39129 39120 39240 39250 39195 39134 38939 38796 38824 38948 39023 39091 39031 38908 38720 38649 38539 38413 38371 38505 38717 38852 38742 38540 38402 38314 38350 38518 38661 38937 39074 39061 39017 39016 39144 39287 39284 38943 38522 38160 37860 37677 37582 37511 37448 37566 37885 38258 38639 38924 39079 39166 38991 38773 38525 38555 38516 38373 38204 38102 38147 38443 38824 39068 39156 39107 38974 38571 38107 37689 37506 37494 37753 38120 38588 38988 39268 39508 39710 39890 39915 40070 39966 39583 39197 38902 38883 39050 39203 39266 39229 39000 38717 38388 38113 37942 37818 37590 37450 37569 37854 38161 38383 38516 38540 38532 38486 38438 38615 38592 38496 38306 38038 37958 38037 38215 38306 38352 38268 38092 37910 37764 37660 37624 37716 37934 38243 38381 38337 38280 38345 38361 38437 38487 38554 38658 38589 38440 38304 38333 38488 38555 38376 38035 37712 37389 37102 36928 36865 36768 36713 36891 37285 37808 38286 38629 38771 38667 38423 38286 38181 38315 38300 38155 37959 37902 37991 38164 38307 38367 38355 38147 37739 37407 37273 37225 37189 37368 37713 38118 38471 38673 38762 38809 38816 38874 38860 38826 38662 38442 38270 38157 38173 38294 38346 38370 38291 38162 38008 37888 37868 37874 37776 37617 37688 38023 38385 38704 38923 39008 38991 38938 38972 39029 39160 39253 39266 39164 39010 38983 39127 39410 39643 39750 39724 39580 39475 39414 39360 39273 39161 39159 39265 39336 39468 39573 39654 39717 39802 39995 40112 40280 40334 40338 40312 40308 40410 40583 40688 40656 40611 40549 40345 40150 39950 39717 39540 39361 39420 39714 40046 40284 40381 40414 40338 40260 40241 40185 40267 40219 40144 39981 39838 39890 40011 40118 40166 40155 40060 39769 39401 39152 38931 38765 38707 38900 39273 39598 39794 39858 39878 39885 39931 39914 39829 39567 39189 38780 38506 38446 38589 38831 38999 39076 38989 38762 38488 38345 38261 38124 37852 37681 37815 38092 38344 38497 38654 38763 38876 38947 38963 39086 39017 38883 38631 38313 38115 38139 38252 38351 38381 38248 38013 37740 37540 37373 37268 37268 37501 37754 37840 37792 37795 37844 37942 38055 38171 38292 38432 38404 38349 38309 38358 38534 38726 38768 38636 38513 38352 38189 38052 37954 37792 37672 37700 37885 38140 38409 38609 38762 38761 38675 38692 38672 38804 38914 38848 38767 38717 38806 38976 39174 39269 39245 39128 38791 38382 38081 37836 37697 37676 37805 38104 38507 38838 39043 39212 39275 39289 39349 39246 39137 38877 38579 38327 38182 38225 38389 38622 38816 38898 38875 38795 38766 38644 38254 37933 37791 37887 38035 38273 38506 38650 38742 38759 38806 38897 39040 39151 38939 38623 38327 38230 38317 38466 38565 38571 38459 38267 38034 37882 37797 37756 37791 37806 37911 38138 38348 38489 38526 38538 38492 38474 38441 38574 38563 38410 38160 37794 37597 37655 37841 38002 38049 37972 37715 37469 37292 37080 36866 36799 36930 37098 37237 37404 37499 37581 37665 37755 37841 37938 38157 38210 38179 38193 38296 38310 38333 38349 38374 38314 38166 38021 37956 37936 37837 37785 37933 38278 38634 38911 38900 38718 38593 38422 38255 38048 37915 37710 37442 37168 36958 36967 37254 37638 38034 38403 38591 38650 38942 39247 39465 39824 40366 40936 41476 41944 42338 42718 42987 43200 43346 43555 43790 44027 44226 44390 44571 44716 44842 44981 45175 45182 45153 45197 45221 45219 45301 45441 45397 45327 45420 45579 45713 45768 45849 45816 45786 45829 45913 45973 46001 46008 46008 45985 45989 45987 46003 45977 45949 45886 45860 45857 45955 46028 46008 45975 45976 45949 45852 45715 45619 45491 45315 45180 45071 44982 44873 44780 44630 44283 43930 43658 43473 43326 43193 42976 42812 42641 42482 42379 42409 42292 42162 42154 42153 42121 42116 42143 42207 42283 42326 42380 42397 42392 42362 42321 42359 42476 42383 42093 41768 41529 41364 41277 41209 41140 41020 40839 40795 40919 41123 41372 41548 41663 41537 41396 41239 41215 41219 41165 41112 41084 41068 41133 41166 41136 41084 41058 41000 40807 40637 40512 40470 40388 40354 40523 40717 40848 40966 41027 41036 41112 41207 41190 41225 41164 41064 41052 41099 41207 41329 41423 41460 41438 41358 41236 41126 41040 41023 40835 40621 40516 40601 40731 40840 40952 41083 41172 41283 41334 41429 41524 41541 41464 41306 41159 41100 41117 41106 41094 41095 41010 40918 40878 40833 40784 40732 40711 40789 40821 40767 40718 40802 40989 41173 41313 41428 41490 41450 41316 41209 41158 41168 41196 41114 40942 40774 40636 40515 40454 40414 40340 40188 40069 40168 40532 40846 41129 41352 41506 41559 41640 41701 41962 42030 42000 41952 41971 42021 42047 42099 42109 42026 41804 41451 41143 40850 40644 40472 40393 40517 40696 40958 41194 41499 41805 41998 42196 42325 42264 42089 41812 41591 41416 41291 41241 41230 41195 41171 41090 40919 40766 40609 40435 40117 39809 39641 39820 40134 40456 40743 40922 40980 40957 41045 41101 41125 41090 40744 40263 39885 39696 39704 39797 39870 39863 39776 39636 39496 39460 39475 39447 39232 39026 39056 39228 39472 39611 39762 39982 40173 40312 40358 40496 40400 40287 40082 39742 39443 39353 39378 39425 39342 39217 39044 38874 38758 38611 38457 38412 38503 38663 38695 38680 38682 38696 38723 38779 38804 38821 38765 38656 38558 38469 38475 38512 38366 38158 38032 37931 37857 37834 37844 37747 37637 37627 37845 38162 38459 38711 38855 38867 38810 38811 38929 39142 39283 39154 38945 38760 38791 38947 39168 39306 39367 39139 38638 38254 38053 37908 37773 37726 37775 38100 38504 38915 39225 39541 39838 40055 40061 39872 39805 39661 39444 39225 39058 38992 39043 39143 39193 39251 39215 39155 38970 38632 38394 38284 38247 38438 38699 38991 39156 39221 39266 39367 39475 39525 39658 39606 39321 39107 38994 39150 39429 39682 39860 39892 39912 39968 40023 40000 39886 39764 39520 39356 39361 39467 39612 39746 39954 40127 40291 40365 40431 40455 40413 40391 40350 40250 40205 40254 40347 40401 40304 40156 40000 39853 39716 39625 39645 39715 39732 39576 39281 38919 38610 38402 38282 38289 38358 38375 38454 38500 38480 38513 38617 38819 39021 39023 38905 38744 38580 38452 38352 38145 37961 37886 38032 38326 38658 38975 39202 39323 39208 39007 38873 38695 38577 38403 38204 38065 38039 38085 38200 38363 38399 38462 38477 38241 38011 37601 37345 37281 37448 37646 37732 37694 37596 37462 37369 37350 37267 37178 36906 36419 36001 35863 36083 36464 36895 37360 37710 37901 38050 38124 38239 38234 38157 37998 37798 37842 38092 38429 38738 38847 38847 38824 38966 39117 39374 39306 39188 39066 38917 38873 39066 39374 39607 39691 39611 39496 39384 39328 39196 39061 39053 39297 39617 39917 40014 39950 39897 39808 39791 39912 40148 40289 40233 40088 40018 40152 40423 40628 40633 40396 40038 39746 39559 39541 39383 39287 39291 39516 39819 40108 40376 40557 40724 40788 40737 40610 40698 40701 40587 40476 40359 40345 40432 40574 40626 40583 40453 40439 40542 40489 40346 40353 40471 40622 40745 41015 41303 41494 41623 41725 41793 41794 41837 41678 41328 41009 40895 40922 41059 41150 41162 41133 41038 40903 40863 40833 40702 40467 40042 39659 39703 39961 40266 40464 40587 40700 40785 40828 40827 40854 40820 40797 40792 40707 40577 40627 40764 40905 40998 40972 40789 40508 40256 39944 39747 39759 39971 40301 40367 40188 40020 39866 39757 39807 39796 39860 39854 39680 39479 39308 39299 39417 39571 39499 39224 38914 38711 38553 38502 38410 38198 38069 38108 38303 38529 38771 38942 39088 39119 38944 38751 38546 38613 38632 38584 38481 38324 38275 38373 38543 38689 38758 38750 38502 38039 37670 37344 37106 37088 37270 37522 37775 38024 38179 38263 38320 38358 38376 38277 38099 37742 37402 37181 37212 37454 37789 38132 38385 38534 38582 38561 38607 38648 38442 38084 37869 37998 38313 38592 38825 39068 39321 39511 39642 39682 39745 39737 39631 39391 38967 38573 38461 38573 38718 38843 38793 38625 38439 38256 38109 38177 38315 38572 38868 39044 38877 38599 38524 38610 38837 39023 39168 39224 39156 39020 38881 38851 38927 39137 39195 39029 38745 38376 38145 38027 37973 37890 37854 38063 38453 38926 39333 39628 39865 40041 40044 39889 39647 39565 39424 39240 39009 38806 38700 38832 39077 39289 39487 39578 39551 39299 38860 38426 38166 38124 38371 38706 39072 39416 39606 39779 40020 40453 40910 41175 41364 41224 40792 40301 39957 39845 39857 39889 39894 39882 39825 39726 39607 39503 39316 39110 38858 38680 38671 38839 39008 39141 39272 39410 39643 39810 39830 39931 39932 39910 39837 39588 39390 39322 39296 39360 39421 39421 39341 39319 39266 39146 39193 39408 39746 40124 40247 40096 39903 39874 39893 39838 39818 39870 39794 39593 39364 39173 39188 39366 39481 39384 39105 38790 38673 38650 38690 38666 38612 38588 38679 38818 38943 39051 39103 39123 38913 38615 38310 38192 38190 38199 38180 38172 38298 38584 38956 39237 39421 39521 39472 39123 38726 38353 38159 38121 38226 38493 38809 39037 39243 39422 39558 39614 39670 39580 39381 39058 38737 38419 38364 38495 38745 38921 39015 38958 38786 38702 38677 38653 38430 38118 37953 38022 38279 38532 38759 38921 39050 39133 39207 39312 39455 39497 39448 39122 38590 38255 38214 38277 38422 38570 38621 38547 38476 38457 38423 38361 38354 38507 38831 38915 38918 38919 38975 39113 39404 39604 39741 39879 39923 39917 39884 39953 40101 40178 40142 40129 40140 40107 40066 39926 39746 39495 39291 39278 39499 39789 40065 40281 40313 40052 39734 39618 39572 39644 39668 39543 39349 39180 39116 39160 39262 39362 39397 39305 38970 38558 38310 38180 38054 38052 38222 38548 38797 38994 39164 39300 39386 39435 39531 39392 39125 38873 38631 38520 38528 38715 38945 39121 39260 39260 39066 38896 38814 38797 38641 38329 38079 38133 38405 38745 39019 39173 39237 39260 39443 39752 40065 40331 40500 40472 40173 39856 39750 39752 39737 39701 39561 39365 39169 39056 39061 39077 39157 39350 39625 39805 39800 39777 39826 39900 39890 39790 39580 39357 39076 38704 38346 38093 38096 38211 38123 37924 37745 37609 37579 37656 37784 37816 37806 37910 38176 38494 38787 39013 39234 39301 39208 39160 39056 39113 39107 39079 39055 39105 39270 39529 39806 40034 40215 40395 40344 40175 39963 39680 39409 39204 39186 39266 39384 39523 39611 39642 39563 39545 39502 39280 38895 38429 38013 37681 37579 37735 37919 38049 38094 38058 38012 38058 38234 38263 38049 37710 37521 37537 37611 37788 37888 37846 37722 37567 37444 37363 37510 37612 37626 37435 37285 37301 37543 37865 38174 38321 38320 38241 38096 38049 37904 37865 37858 37942 37776 37652 37545 37481 37472 37592 37705 37973 38392 38693 38694 38599 38487 38466 38520 38478 38314 38210 38110 37941 37742 37594 37313 37131 37048 37268 37620 37985 38282 38367 38273 38158 38117 38203 38272 38352 38248 38135 38059 38117 38287 38424 38453 38442 38321 37978 37625 37353 37155 36991 36883 36811 36921 37230 37592 37952 38249 38460 38548 38418 38130 37809 37570 37263 37021 36839 36733 36795 37035 37325 37598 37836 37915 37966 37872 37657 37396 37192 37136 37253 37503 37778 38034 38206 38246 38233 38173 38070 37970 37684 37294 36964 36789 36878 37150 37503 37786 37981 38078 38082 38008 37950 37859 37738 37587 37396 37340 37410 37588 37653 37672 37612 37524 37460 37375 37390 37385 37292 37215 37064 36925 36993 37150 37348 37526 37610 37676 37630 37621 37504 37324 37206 37253 37497 37695 37747 37691 37625 37542 37488 37508 37492 37512 37456 37367 37250 37160 37158 37307 37526 37578 37557 37495 37415 37326 37288 37288 37218 37191 37314 37622 37993 38221 38309 38363 38455 38515 38612 38659 38713 38719 38627 38582 38508 38503 38584 38740 38853 38904 38851 38606 38309 38149 38025 37879 37822 37924 38225 38463 38624 38667 38746 38808 38793 38713 38446 38104 37760 37540 37417 37513 37748 38093 38411 38763 39041 39291 39465 39588 39589 39286 38915 38632 38463 38522 38677 38847 39017 39210 39365 39551 39677 39766 39656 39253 38702 38248 38115 38206 38380 38562 38690 38720 38707 38746 38826 38876 38836 38766 38679 38696 38894 39141 39394 39621 39868 40053 40184 40245 40341 40287 40169 40017 39746 39601 39644 39733 39791 39724 39577 39480 39478 39458 39448 39493 39589 39711 39704 39561 39470 39479 39516 39534 39586 39549 39569 39523 39400 39362 39428 39622 39718 39821 39979 40206 40338 40507 40629 40573 40400 40167 40030 39941 39834 39814 39655 39322 39089 38922 38759 38539 38267 38049 37725 37358 37019 36768 36629 36614 36636 36565 36510 36613 36826 37083 37356 37575 37891 38423 38948 39405 39851 40268 40686 41000 41161 41314 41516 41662 41854 41994 42115 42185 42342 42528 42660 42782 42899 42935 42816 42764 42770 42817 42751 42617 42524 42351 42260 42181 42169 42226 42219 42230 42143 41960 41687 41464 41309 41209 41131 41087 41057 41065 41062 41094 41116 41108 41072 40975 40698 40410 40161 40045 40210 40448 40666 40805 40898 40918 40863 40814 40769 40759 40559 40168 39848 39729 39794 39892 39957 39966 39917 39858 39859 39952 39961 39999 40032 40007 39895 39807 39824 39970 40118 40254 40304 40272 40210 40273 40366 40395 40378 40413 40423 40318 40313 40440 40571 40752 40892 40927 40884 40800 40656 40554 40578 40670 40849 40832 40653 40487 40455 40556 40592 40576 40610 40510 40364 40240 40170 40108 40070 40001 39684 39271 38957 38728 38592 38484 38365 38353 38482 38784 39190 39588 39889 40181 40268 40141 39990 39885 39979 40054 40019 40056 40246 40547 40858 41198 41525 41767 41994 41960 41861 41914 41984 42092 42240 42462 42750 43011 43137 43193 43288 43336 43373 43263 42918 42602 42283 42059 41969 41988 42089 42217 42352 42535 42573 42559 42554 42441 42182 42045 42030 42177 42403 42654 42917 43122 43242 43282 43306 43325 43355 43325 42967 42456 42023 41800 41759 41801 41871 41914 41873 41760 41684 41686 41726 41701 41439 41096 40972 41078 41295 41532 41776 41944 42023 42074 42086 42090 42124 42139 41817 41476 41370 41414 41498 41494 41371 41039 40594 40155 39768 39443 39169 38914 38603 38222 37955 37809 37704 37600 37527 37400 37189 36885 36684 36433 36164 35909 35605 35245 35157 35324 35570 35708 35752 35673 35469 35349 35271 35139 35060 35205 35429 35420 35203 35037 35108 35254 35464 35630 35778 35930 35850 35731 35598 35581 35694 35719 35533 35341 35283 35240 35191 35196 35146 34935 34819 34827 34910 35055 35231 35329 35210 34931 34758 34731 34792 35057 35487 35711 35752 35804 35899 35983 36093 36188 36191 35998 35588 35202 35027 34854 34847 35070 35342 35736 36259 36761 37191 37565 37872 38114 38136 38000 37886 37711 37557 37434 37485 37716 38019 38315 38507 38556 38510 38404 38296 38165 37885 37552 37282 37204 37305 37438 37437 37384 37352 37373 37465 37504 37517 37523 37465 37351 37145 36992 36907 36962 37088 37173 37195 37133 36993 36815 36634 36494 36445 36479 36669 36879 37042 37174 37394 37663 37951 38275 38489 38720 38888 38900 38889 38921 39008 39130 39248 39392 39524 39589 39626 39595 39548 39436 39213 39026 38924 38965 39123 39253 39270 39219 39085 39028 39021 38955 38949 38810 38594 38297 38023 37856 37804 37887 38013 37979 37691 37348 37066 36880 36716 36618 36594 36680 36837 37012 37142 37133 37070 37075 37017 36741 36391 36156 35870 35648 35534 35685 35983 36323 36593 36808 36947 37044 37122 37208 36894 36344 35958 35907 36133 36417 36643 36779 36932 37090 37248 37334 37398 37435 37354 36920 36488 36332 36495 36887 37271 37615 37851 37917 37952 37956 38063 38042 38029 38109 38234 38428 38747 39046 39278 39451 39556 39657 39729 39720 39684 39558 39455 39346 39252 39203 39258 39446 39760 40095 40439 40748 40980 41144 41276 41398 41568 41708 41880 41868 41760 41688 41721 41792 41932 42042 42133 42155 42094 41965 41888 41960 42113 42356 42549 42567 42449 42324 42230 42205 42187 42065 41836 41653 41474 41345 41180 41016 40964 40874 40739 40490 40149 39866 39636 39396 39113 38903 38689 38614 38580 38531 38491 38438 38326 38229 38058 37687 37213 36918 36896 37051 37228 37352 37429 37410 37285 37211 37071 37042 36967 36896 36682 36298 36048 36095 36317 36522 36721 36877 36930 36897 37017 37080 37025 36965 37184 37428 37646 37775 37870 38020 38233 38470 38736 38936 39021 39190 39480 39732 39967 40258 40592 40965 41082 41088 41082 41101 41158 41166 41157 41105 41129 41274 41467 41705 41926 42128 42214 42128 41914 41794 41841 42005 42233 42487 42546 42552 42576 42592 42578 42511 42367 42212 42084 41855 41735 41568 41367 41148 41077 41088 41159 41190 41209 41226 41237 41238 41167 41095 41053 40879 40564 40277 40064 39971 39977 40016 39992 39990 39994 39906 39763 39593 39533 39459 39390 39296 39216 39245 39321 39413 39515 39640 39693 39811 39869 39825 39715 39598 39599 39632 39553 39378 39217 39079 39015 38944 38887 38775 38665 38545 38555 38763 38993 39149 39264 39320 39299 39253 39212 39246 39246 39086 38904 38684 38570 38524 38572 38630 38646 38617 38482 38166 37751 37353 37127 36988 36941 37079 37253 37428 37585 37706 37802 37811 37805 37817 37744 37357 36880 36464 36324 36384 36630 36805 36909 36879 36794 36694 36612 36349 36171 36053 35854 35772 35951 36210 36445 36552 36599 36502 36393 36233 36264 36178 36040 35857 35766 35774 35844 35988 36121 36238 36340 36351 36235 36080 35890 35858 35923 36111 36420 36777 36983 36912 36825 36714 36713 36710 36693 36691 36574 36386 36195 36152 36261 36505 36742 36893 36774 36549 36427 36291 36261 36184 36161 36190 36410 36755 37044 37235 37359 37495 37624 37644 37570 37482 37333 37132 36935 36832 36849 36989 37094 37087 36998 36925 36853 36783 36658 36638 36654 36745 37059 37487 37821 37928 37933 37963 38063 38232 38310 38360 38290 38174 37913 37669 37549 37591 37737 37905 37981 37936 37769 37624 37516 37441 37349 37347 37454 37580 37701 37809 37990 38201 38444 38643 38687 38751 38689 38596 38432 38254 38157 38089 38025 37969 37948 37914 37810 37639 37458 37315 37216 37227 37362 37603 37840 38035 38091 38038 37967 37986 37959 37964 37904 37765 37537 37288 37152 37175 37310 37425 37529 37429 37081 36723 36530 36460 36389 36384 36497 36794 37145 37369 37430 37489 37585 37725 37821 37651 37464 37254 36995 36758 36563 36466 36487 36593 36744 36874 36911 36864 36723 36457 36026 35839 35905 36132 36436 36681 36715 36656 36642 36698 36819 36899 36980 37029 36805 36453 36164 36109 36263 36503 36723 36876 36914 36847 36817 36654 36521 36536 36557 36605 36698 36853 36956 36968 36993 37035 37113 37086 37143 37091 36975 36845 36727 36795 36911 36931 36955 36953 36935 36895 36817 36662 36441 36353 36400 36599 36854 37162 37360 37394 37357 37264 37249 37199 37248 37179 37084 36934 36833 36896 37079 37256 37429 37533 37528 37299 36989 36769 36621 36550 36577 36739 37003 37328 37598 37751 37841 37878 37913 37885 37772 37560 37286 37044 36864 36931 37202 37423 37470 37478 37466 37397 37238 37066 36959 36835 36702 36825 37224 37706 38235 38669 38955 39132 39343 39640 39792 39940 40031 39970 39761 39460 39057 39132 39305 39405 39549 39670 39577 39407 39316 39128 38934 38826 38940 39207 39403 39576 39763 39957 40133 40288 40374 40420 40397 40431 40532 40708 41023 41440 41794 41911 41942 41965 42022 42093 42141 42068 41941 41907 41948 42010 42063 42098 42177 42248 42337 42439 42448 42543 42624 42621 42661 42802 42965 43111 43203 43324 43453 43562 43620 43579 43451 43262 43056 42938 42972 43195 43391 43481 43488 43462 43429 43417 43444 43487 43463 43241 42951 42763 42677 42731 42852 42969 43030 43000 42925 42870 42774 42713 42625 42543 42400 42212 42171 42126 42186 42402 42670 42871 42961 43005 43025 42943 42797 42696 42642 42482 42272 42195 42182 42164 42097 41915 41706 41536 41304 41130 41111 41228 41320 41418 41282 41047 40870 40711 40520 40404 40185 39944 39658 39362 39061 38886 38884 38969 39109 38975 38631 38290 38268 38495 38729 38915 38902 38950 39062 39153 39247 39429 39736 39955 39893 39687 39468 39363 39262 39110 38927 38882 38990 39213 39504 39773 40032 40159 40146 39941 39768 39582 39428 39388 39594 40038 40564 40983 41340 41537 41656 41768 41880 41956 41808 41407 40987 40684 40584 40650 40788 40915 40971 40989 41031 41113 41256 41349 41327 41165 41074 41133 41348 41533 41694 41703 41642 41513 41381 41222 41125 40980 40840 40672 40448 40363 40497 40705 40898 41052 41123 41177 41207 41240 41197 41255 41431 41603 41754 41668 41416 41188 41050 40933 40833 40741 40753 40711 40586 40499 40498 40678 40977 41287 41407 41397 41353 41458 41557 41647 41663 41740 41833 41979 42171 42374 42526 42680 42740 42624 42317 42045 41909 41852 41736 41601 41475 41550 41691 41634 41652 41600 41521 41413 41057 40582 40147 39793 39597 39530 39499 39621 39848 40079 40227 40332 40295 40145 39971 39706 39206 38668 38335 38187 38196 38224 38253 38228 38179 38133 38205 38406 38623 38640 38596 38349 38189 38212 38302 38398 38480 38536 38471 38342 38106 38087 38035 38076 38098 38126 37957 37744 37712 37774 37776 37701 37453 37153 36953 36710 36633 36668 36859 37135 37474 37660 37543 37392 37309 37223 37042 36949 36813 36614 36460 36519 36977 37597 38142 38625 38995 39059 39035 39104 39232 39346 39315 39184 39162 39328 39614 40007 40365 40665 40883 41030 41030 40819 40703 40572 40389 40320 40461 40695 41008 41258 41425 41389 41387 41394 41442 41441 41202 40901 40738 40681 40839 41121 41540 41883 42069 42303 42391 42425 42470 42449 42414 42254 41978 41754 41635 41611 41651 41718 41775 41693 41504 41316 41123 40920 40695 40558 40462 40383 40347 40401 40462 40460 40434 40367 40280 40161 40090 40021 39984 39969 39870 39797 39712 39631 39516 39459 39319 39164 39045 38819 38576 38435 38411 38508 38699 38883 39046 39047 38906 38741 38632 38610 38584 38614 38681 38716 38790 38930 39082 39255 39387 39444 39317 39033 38735 38579 38545 38527 38434 38424 38662 38941 39162 39245 39234 39170 39135 39039 38775 38533 38242 37933 37642 37471 37410 37390 37402 37369 37294 37178 37056 36927 36769 36415 36088 35880 35865 35991 36165 36238 36299 36390 36517 36609 36565 36559 36471 36345 36022 35657 35422 35408 35531 35680 35722 35686 35548 35392 35309 35063 34920 35017 35286 35591 35664 35680 35730 35763 35820 35843 35809 35750 35738 35587 35393 35206 35196 35293 35484 35564 35498 35398 35285 35157 35111 35066 34910 34856 35005 35328 35698 36018 36219 36337 36363 36236 36135 35984 35986 35825 35690 35521 35422 35520 35757 36025 36186 36283 36276 36209 36109 35928 35655 35507 35570 35782 36122 36428 36605 36714 36844 36925 36979 36879 36905 36815 36695 36480 36314 36328 36494 36758 36995 37066 37017 36852 36683 36566 36459 36362 36387 36569 36728 36894 36944 37013 37163 37311 37469 37485 37512 37427 37292 37144 37049 37076 37296 37498 37601 37720 37899 38170 38572 38991 39242 39508 39709 40003 40444 41015 41568 41989 42264 42487 42645 42774 42898 43020 43083 43142 43301 43532 43818 44071 44252 44396 44471 44556 44502 44377 44254 44157 44263 44477 44712 44961 45110 45165 45157 45009 44899 44790 44654 44468 44112 43547 42899 42417 42115 41937 41820 41726 41589 41388 41157 40875 40589 40278 39955 39688 39328 38915 38455 37982 37561 37181 36843 36448 35977 35534 35136 34730 34315 33964 33705 33569 33514 33582 33698 33850 33873 33937 33988 33978 33967 33945 34156 34474 34956 35548 36167 36575 36835 37311 37861 38334 38712 39077 39410 39665 39895 40098 40232 40257 40315 40453 40645 40662 40593 40810 41043 41348 41602 41779 41886 41743 41566 41480 41343 41229 41152 41038 40865 40629 40404 40182 40166 40284 40434 40615 40781 40974 41080 41103 41084 41060 41005 40980 40930 40956 41105 41290 41465 41595 41729 41810 41836 41803 41786 41735 41631 41534 41462 41398 41318 41185 41057 40923 40801 40689 40578 40423 40261 40108 40058 40188 40380 40521 40590 40536 40456 40379 40318 40319 40312 40192 40005 39796 39681 39687 39811 39960 40041 40065 39938 39705 39473 39351 39244 39163 39102 39213 39465 39682 39788 39786 39818 39820 39874 39939 39954 39763 39437 39080 38805 38733 38846 39014 39115 39117 39011 38869 38776 38754 38723 38645 38494 38382 38506 38752 38899 38960 39038 39139 39214 39257 39228 39260 39137 38922 38591 38095 37776 37725 37836 37938 37956 37914 37801 37667 37640 37603 37582 37543 37652 37895 38012 37920 37829 37790 37748 37783 37782 37829 37850 37752 37547 37301 37217 37345 37546 37729 37631 37349 37102 36964 36919 36886 36930 37019 37127 37345 37592 37742 37801 37870 38003 38120 38081 38003 38035 37934 37773 37528 37326 37242 37325 37512 37700 37808 37840 37799 37731 37578 37329 37196 37177 37376 37654 37899 38092 38228 38400 38441 38559 38713 38831 38829 38738 38463 38178 38082 38203 38372 38542 38596 38565 38481 38353 38280 38075 37981 37968 38109 38398 38548 38580 38571 38671 38816 38981 39149 39152 39198 39129 38975 38834 38696 38710 38876 39082 39164 39078 38954 38869 38798 38759 38696 38592 38593 38791 39217 39617 39838 39968 40099 40136 40055 39947 39779 39669 39490 39242 38982 38742 38681 38889 39164 39398 39559 39593 39584 39385 39051 38608 38256 38093 38130 38293 38447 38586 38674 38821 38918 38951 38864 38832 38654 38327 37996 37935 38143 38421 38669 38824 38814 38763 38768 38811 38823 38660 38527 38472 38474 38561 38692 38804 38878 38942 38919 38918 38841 38830 38691 38482 38258 38206 38351 38490 38667 38858 39036 39120 39155 39088 38934 38657 38391 38282 38347 38581 38871 39015 38872 38645 38430 38255 38124 38152 38261 38137 37840 37590 37624 37932 38271 38550 38705 38594 38237 37940 37777 37723 37651 37555 37473 37519 37722 37942 38031 38064 38096 38100 37965 37560 37361 37239 37059 36950 37004 37227 37524 37846 38084 38108 38060 38124 38140 38041 37673 37196 36964 37119 37678 38721 39763 40534 41054 41453 41776 42053 42301 42519 42780 42996 42968 42915 42973 43063 43186 43373 43496 43580 43626 43701 43795 43855 43889 43873 43823 43799 43641 43459 43391 43371 43367 43371 43353 43354 43356 43273 43221 43251 43354 43514 43632 43643 43473 43184 42859 42576 42342 42072 41853 41750 41801 41956 42134 42293 42376 42416 42391 42178 41785 41408 41100 40840 40628 40491 40518 40700 40958 41210 41385 41446 41416 41336 41186 40781 40288 39938 39770 39773 39919 40115 40256 40289 40217 40151 40031 39906 39879 39758 39569 39245 39125 39288 39691 40116 40466 40688 40737 40613 40467 40303 40001 39735 39670 39796 39960 39910 39694 39506 39394 39279 39229 39150 39031 38941 38758 38590 38469 38553 38796 39067 39119 39011 38976 38991 39104 39231 39307 39207 39105 39097 39202 39402 39569 39601 39633 39550 39215 38748 38261 37997 37803 37626 37500 37568 37801 38073 38378 38561 38684 38669 38658 38593 38387 38193 38095 38046 38177 38380 38583 38712 38716 38672 38588 38552 38503 38457 38347 38090 37879 37814 37944 38196 38500 38746 38875 38845 38737 38696 38611 38515 38355 38250 38217 38259 38422 38637 38777 38800 38716 38637 38536 38403 38325 38175 38008 37908 37923 38009 38206 38483 38873 39255 39503 39699 39913 39988 39851 39742 39880 40141 40426 40668 40655 40441 40276 40257 40362 40434 40406 40334 40117 39898 39686 39609 39719 39907 40073 39994 39720 39452 39315 39313 39366 39389 39435 39636 39969 40376 40732 40903 40954 40987 40942 40769 40394 40146 39962 39648 39360 39311 39558 39980 40470 41001 41411 41622 41698 41712 41541 41116 40765 40553 40588 40792 40983 41008 40866 40648 40466 40425 40383 40355 40312 40027 39465 38771 38408 38366 38486 38660 38762 38761 38683 38578 38453 38364 38098 37939 37954 37987 38017 38033 38004 37989 37947 37929 37987 37983 37971 37840 37629 37403 37301 37457 37723 37903 37865 37769 37683 37586 37465 37318 37014 36591 36291 36174 36243 36379 36536 36664 36689 36525 36238 35967 35711 35651 35586 35498 35463 35553 35857 36217 36587 36889 37089 37201 37217 36997 36681 36490 36270 36091 36225 36542 36912 37235 37456 37604 37698 37874 38029 38197 38285 38250 38068 37898 37969 38147 38384 38563 38624 38633 38559 38522 38529 38490 38445 38564 38714 38849 38918 39016 39109 39167 39229 39357 39438 39545 39668 39655 39662 39713 39877 40178 40489 40698 40824 40828 40773 40670 40627 40484 40284 40124 40075 40166 40349 40515 40562 40579 40541 40442 40304 40234 40223 40144 40120 40135 40207 40372 40635 40932 41153 41233 41181 41118 40999 40843 40599 40379 40327 40431 40629 40814 40933 40939 40904 40874 40850 40811 40830 40819 40647 40357 40162 40155 40309 40552 40764 40832 40816 40900 40989 41065 41091 41011 41026 41178 41237 41222 41171 41084 41040 41012 40920 40829 40735 40619 40493 40301 40157 40196 40284 40229 40160 40128 40067 40030 39964 39879 39709 39487 39296 39243 39330 39411 39439 39325 38963 38481 38050 37708 37478 37455 37458 37380 37447 37712 37955 38285 38560 38793 38992 38977 38718 38696 38839 38926 38900 38823 38819 38824 38861 38886 38927 38992 39078 39171 39306 39338 39319 39273 39243 39285 39382 39527 39641 39719 39761 39776 39761 39759 39832 39861 39792 39677 39639 39637 39632 39658 39670 39718 39774 39816 39935 40020 40087 40207 40327 40354 40396 40452 40496 40591 40640 40713 40775 40846 40798 40780 40651 40665 40706 40682 40656 40650 40638 40652 40684 40683 40743 40816 40931 41046 41054 41021 40971 40948 40901 40823 40721 40687 40695 40701 40735 40762 40747 40689 40594 40575 40681 40907 41139 41260 41254 41169 41147 41112 41041 41024 40956 40890 40843 40885 41020 41205 41454 41668 41842 41864 41852 41910 41966 41919 41842 41761 41830 42086 42322 42471 42610 42665 42706 42698 42498 42261 42105 41984 41910 41903 42018 42185 42362 42480 42526 42534 42468 42392 42365 42165 41844 41610 41501 41519 41597 41666 41696 41727 41743 41661 41654 41681 41824 41918 41855 41649 41561 41680 41947 42266 42497 42652 42692 42687 42637 42591 42511 42422 42431 42406 42268 42135 42045 41987 42023 42111 42247 42333 42379 42465 42491 42511 42566 42750 42972 43029 42972 42931 42961 42906 42833 42692 42526 42393 42241 42238 42285 42402 42599 42795 42891 42755 42552 42405 42318 42332 42374 42361 42332 42379 42592 42748 42934 43114 43249 43233 42925 42568 42350 42273 42217 42163 42158 42221 42297 42378 42454 42485 42487 42477 42537 42454 42212 41977 41801 41719 41772 41975 42202 42424 42605 42789 42929 43058 43141 43235 43220 42844 42397 42107 42039 42032 42079 42177 42209 42229 42225 42179 42099 42116 42111 42029 41609 41210 41084 41165 41407 41682 41929 42124 42210 42246 42354 42439 42427 42435 42525 42507 42355 42242 42249 42257 42178 42116 42075 42018 41976 41892 41854 41906 42072 42312 42463 42395 42425 42542 42700 42867 42950 42979 43024 43027 42982 42907 42975 43210 43536 43770 43823 43831 43873 43959 44081 44209 44336 44430 44492 44586 44661 44791 44886 45000 45073 45019 44863 44771 44852 44943 44972 44985 44957 44947 44929 44951 44977 45013 45017 45068 45002 44818 44744 44684 44649 44628 44714 44822 44973 45139 45289 45451 45546 45621 45674 45598 45497 45433 45482 45534 45562 45593 45591 45580 45550 45468 45432 45421 45350 45291 45021 44432 43825 43515 43465 43569 43730 43896 44019 44107 44142 44214 44278 44300 44256 44103 43757 43239 42798 42508 42269 42024 41760 41359 40991 40668 40424 40180 39976 39785 39714 39647 39459 39367 39427 39567 39695 39768 39784 39732 