23186 23190 23196 23184 23192 23184 23165 23150 23159 23161 23166 23165 23177 23168 23188 23173 23187 23193 23195 23207 23198 28358 28681 28745 28760 28761 28769 28769 28678 28623 28545 28500 28436 28401 28363 28316 28162 28016 27886 27781 27722 27673 27660 27597 27461 27312 27161 27043 26951 26891 26853 26817 26771 26660 26518 26389 26301 26228 26179 26103 26012 25954 25902 25891 25888 25878 25848 25823 25815 25773 25667 25544 25464 25417 25403 25385 25379 25375 25383 25400 25417 25406 25433 25418 25421 25409 25385 25293 25240 25215 25218 25235 25263 25305 25351 25409 25469 25513 25513 25474 25405 25363 25295 25211 25069 24963 24913 24937 24999 25086 25147 25175 25196 25228 25248 25274 25316 25351 25427 25509 25615 25648 25656 25729 25785 25844 25908 25977 26011 26058 26086 26110 26143 26180 26203 26213 26228 26216 26175 26165 26150 26119 26169 26205 26217 26214 26202 26223 26249 26273 26323 26427 26574 26745 26867 26889 26833 26780 26752 26707 26684 26679 26678 26666 26660 26658 26647 26650 26664 26643 26593 26566 26527 26514 26456 26425 26388 26395 26445 26445 26406 26362 26344 26309 26301 26295 26314 26371 26441 26464 26549 26682 26861 26958 26992 27043 27132 27219 27332 27482 27595 27766 27919 27972 27963 27956 27832 27778 27711 27645 27681 27632 27637 27756 27798 27779 27745 27647 27462 27400 27347 27318 27350 27322 27256 27225 27234 27278 27307 27309 27277 27284 27286 27264 27226 27256 27310 27301 27202 27131 27054 27020 26990 26964 26988 27038 27088 27115 27121 27143 27190 27242 27280 27282 27230 27202 27214 27149 27054 26951 26913 26933 27054 27294 27479 27588 27593 27489 27297 27122 26973 26847 26813 26936 27170 27364 27431 27352 27461 27713 27900 28095 28090 27891 27623 27320 27207 27172 27115 27001 26841 26673 26543 26431 26344 26258 26190 26166 26108 26022 26001 26006 26080 26142 26268 26356 26457 26628 26439 26432 26278 26171 26063 26000 25886 25767 25746 25840 25956 25983 25953 25858 25813 25758 25682 25649 25595 25602 25623 25658 25642 25680 25695 25804 25941 26135 26389 26635 26837 27031 27193 27294 27390 27462 27546 27565 27564 27566 27562 27610 27636 27671 27700 27725 27751 27769 27796 27824 27820 27833 27842 27852 27782 27773 27774 27768 27770 27761 27754 27755 27746 27710 27702 27644 27651 27656 27656 27613 27599 27575 27528 27517 27493 27434 27413 27414 27435 27447 27497 27516 27533 27573 27586 27583 27582 27589 27581 27580 27541 27545 27511 27483 27429 27386 27375 27380 27384 27330 27237 27112 27046 26971 26904 26857 26801 26767 26723 26695 26641 26585 26563 26534 26501 26404 26290 26179 26098 26034 26004 25985 25968 25927 25905 25873 25857 25836 25813 25820 25782 25691 25586 25477 25402 25322 25272 25272 25298 25304 25308 25332 25339 25339 25353 25374 25386 25323 25215 25133 25036 24953 25000 25139 25321 25461 25545 25653 25703 25732 25843 25903 25991 26083 26108 26132 26212 26390 26505 26548 26632 26684 26726 26744 26778 26802 26828 26835 26828 26793 26751 26716 26669 26626 26564 26535 26516 26569 26628 26686 26762 26825 26902 26947 27003 27058 27132 27097 27016 26956 26921 26916 26920 26927 26928 26940 26909 26870 26877 26774 26691 26626 26557 26540 26539 26513 26488 26458 26504 26521 26558 26611 26657 26701 26749 26785 26752 26732 26738 26728 26705 26711 26766 26836 26882 26876 26920 26935 27016 27084 27141 27155 27116 27075 27024 26973 26957 26907 26890 26858 26803 26781 26751 26713 26698 26694 26640 26565 26485 26505 26532 26590 26659 26668 26654 26649 26661 26666 26666 26625 26561 26477 26344 26208 26086 25987 25908 25789 25702 25623 25534 25483 25438 25403 25455 25514 25604 25656 25731 25783 25802 25809 25826 25818 25847 25869 25926 25944 25982 26020 26048 26026 25995 25944 25900 25880 25885 25876 25891 25905 25940 25949 25993 26015 26046 26064 26040 26003 25983 25937 25916 25887 25851 25860 25863 25870 25862 25852 25856 25851 25836 25813 25774 25734 25704 25679 25692 25708 25701 25721 25737 25752 25788 25814 25847 25852 25807 25783 25757 25739 25749 25742 25754 25757 25777 25814 25856 25889 25949 25994 26083 26157 26239 26287 26337 26411 26472 26555 26660 26765 26882 27012 27102 27198 27288 27389 27447 27493 27544 27554 27585 27635 27664 27688 27725 27763 27798 27821 27814 27818 27831 27833 27818 27825 27821 27829 27843 27847 27856 27854 27862 27864 27865 27876 27902 27920 27936 27939 27954 27964 27971 27962 27990 27990 28023 28046 28070 28096 28127 28145 28169 28190 28180 28158 28129 28103 28068 28061 28036 28007 27985 27953 27940 27930 27911 27902 27894 27893 27878 27828 27755 27669 27588 27530 27501 27478 27483 27464 27463 27437 27424 27397 27370 27334 27311 27269 27206 27162 27110 27086 27044 27021 27007 26977 26956 26933 26913 26904 26893 26914 26908 26890 26855 26814 26759 26711 26675 26648 26612 26603 26599 26590 26575 26577 26576 26584 26570 26570 26511 26469 26402 26383 26351 26330 26336 26336 26341 26315 26339 26322 26308 26300 26287 26314 26336 26272 26171 26112 26079 26044 26004 25977 25932 25916 25876 25848 25845 25833 25825 25812 25780 25701 25634 25574 25521 25472 25438 25413 25382 25351 25321 25309 25294 25280 25265 25249 25211 25195 25146 25111 25095 25069 25069 25075 25087 25063 25062 25070 25080 25100 25082 25070 25020 24975 24927 24902 24885 24870 24856 24834 24818 24796 24778 24764 24759 24758 24762 24717 24664 24644 24743 24924 25114 25253 25365 25459 25533 25568 25603 25651 25701 25714 25723 25696 25648 25603 25578 25554 25528 25497 25503 25494 25501 25546 25578 25603 25639 25711 25753 25773 25791 25806 25824 25836 25861 25881 25918 25946 25980 26000 26011 26031 26046 26019 25993 25989 25971 25968 25957 25962 25964 25993 26007 26046 26076 26121 26154 26185 26210 26218 26244 26239 26242 26254 26263 26281 26274 26280 26283 26307 26324 26330 26322 26288 26272 26271 26280 26330 26417 26485 26523 26570 26579 26609 26627 26642 26651 26639 26636 26636 26635 26641 26646 26661 26676 26680 26693 26716 26749 26757 26777 26772 26771 26759 26733 26729 26726 26733 26727 26729 26735 26735 26743 26751 26765 26784 26773 26730 26717 26709 26695 26720 26710 26708 26731 26732 26739 26769 26803 26914 27116 27308 27441 27387 27477 27666 27799 27821 27791 27774 27772 27744 27723 27694 27695 27674 27650 27632 27612 27704 27942 28122 28169 28206 28228 28275 28341 28410 28517 28627 28699 28709 28611 28521 28378 28300 28145 28057 27968 27904 27867 27840 27816 27824 27921 27954 27933 27894 27921 27928 28020 28093 28176 28188 28159 28124 28064 28027 28031 28012 28001 27927 27866 27792 27724 27715 27864 27969 28092 28168 28258 28350 28465 28558 28580 28516 28434 28268 28088 27900 27826 27723 27639 27574 27500 27454 27412 27361 27266 27221 27162 27029 26911 26832 26725 26644 26582 26527 26490 26460 26438 26444 26406 26402 26393 26321 26244 26155 26115 26076 26061 26052 26052 26080 26083 26072 26057 26054 26052 26083 26050 25979 25904 25861 25802 25827 25853 25873 25877 25926 25940 25960 25990 25996 26002 25936 25872 25831 25806 25789 25826 25873 25893 25922 25941 25995 26038 26042 26049 26020 25985 25947 25930 25928 25941 25962 25971 25987 25988 25987 26022 26057 26076 26096 26102 26060 26052 26040 26045 26059 26156 26331 26417 26349 26255 26332 26515 26475 26454 26497 26531 26517 26482 26507 26618 26697 26683 26695 26682 26737 26771 26774 26786 26741 26743 26760 26755 26784 26822 26829 26842 26872 26904 26931 26954 27004 27010 27041 27040 27051 27068 27076 27089 27075 27074 27068 27078 27069 27057 27051 27068 27082 27062 27074 27096 27178 27252 27331 27348 27327 27355 27393 27553 27650 27603 27597 27743 27647 27617 27580 27524 27509 27469 27464 27457 27444 27435 27424 27427 27412 27403 27387 27365 27330 27292 27258 27230 27212 27201 27198 27180 27171 27154 27161 27138 27121 27082 27016 26971 26927 26904 26884 26862 26844 26840 26833 26818 26808 26795 26812 26787 26745 26700 26657 26615 26592 26575 26558 26561 26544 26534 26519 26512 26510 26512 26489 26421 26362 26313 26280 26251 26237 26226 26214 26199 26199 26186 26173 26172 26172 26116 26064 26027 25983 25973 25963 25960 25952 25955 25971 26017 26044 26128 26152 26094 26100 26186 26323 26438 26555 26654 26744 26823 26858 26924 26956 26988 27018 27026 27059 27083 27195 27283 27365 27422 27415 27375 27360 27315 27277 27253 27236 27194 27188 27229 27220 27177 27106 27018 26961 27036 27063 27085 27148 27269 27386 27485 27579 27661 27718 27709 27736 27774 27801 27842 27881 27914 27950 27968 27979 27997 27986 27994 28020 28054 28081 28148 28259 28358 28412 28377 28312 28259 28234 28147 28108 28104 28081 27966 27856 27745 27656 27559 27487 27433 27396 27492 27553 27544 27485 27441 27327 27168 27006 26823 26705 26635 26556 26526 26482 26420 26387 26352 26344 26317 26248 26139 26053 25979 25937 25914 25903 25887 25892 25882 25866 25868 25862 25841 25821 25727 25622 25555 25558 25563 25593 25612 25662 25660 25657 25670 25659 25656 25667 25594 25523 25452 25464 25447 25452 25464 25469 25454 25443 25455 25467 25465 25481 25454 25414 25355 25385 25419 25416 25418 25456 25436 25496 25513 25516 25517 25534 25573 25533 25467 25430 25376 25400 25418 25427 25435 25435 25456 25454 25495 25495 25528 25542 25555 25537 25552 25552 25565 25593 25579 25605 25622 25616 25627 25658 25658 25686 25667 25652 25647 25694 25701 25722 25767 25766 25793 25810 25843 25849 25870 25883 25886 25891 25864 25861 25864 25857 25867 25869 25871 25867 25890 25898 25911 25950 25965 25969 25939 25954 25957 25939 26028 26078 26103 26121 26139 26146 26184 26222 26230 26251 26246 26246 26269 26268 26281 26291 26309 26321 26327 26333 26380 26399 26410 26404 26406 26398 26400 26396 26392 26399 26403 26443 26422 26471 26481 26499 26533 26584 26610 26604 26584 26578 26592 26599 26627 26651 26655 26672 26673 26694 26734 26758 26802 26835 26809 26792 26805 26774 26789 26810 26812 26825 26825 26809 26825 26842 26825 26770 26742 26721 26691 26682 26658 26675 26672 26654 26659 26674 26680 26680 26644 26627 26586 26566 26542 26529 26531 26519 26523 26512 26502 26491 26482 26481 26451 26402 26365 26328 26310 26298 26293 26282 26321 26345 26381 26405 26405 26414 26366 26334 26308 26289 26295 26308 26330 26329 26346 26367 26377 26384 26423 26426 26366 26305 26259 26224 26199 26201 26221 26219 26213 26205 26199 26190 26081 26076 26069 26066 26078 26089 26090 26110 26103 26123 26134 26163 26134 26083 26067 26058 26067 26067 26068 26085 26115 26131 26171 26202 26271 26345 26425 26484 26493 26469 26492 26470 26447 26411 26381 26380 26391 26451 26519 26609 26715 26844 26971 27021 27052 27082 27127 27154 27184 27203 27231 27244 27239 27296 27403 27456 27489 27471 27469 27495 27516 27531 27542 27550 27553 27539 27526 27506 27463 27413 27322 27196 27135 27174 27257 27296 27348 27398 27456 27461 27451 27440 27393 27384 27353 27319 27309 27297 27316 27418 27479 27516 27512 27503 27485 27431 27397 27391 27387 27414 27438 27497 27547 27612 27666 27728 27773 27807 27822 27851 27879 27893 27921 27954 27978 27984 28035 28044 28089 28121 28168 28210 28209 28258 28283 28344 28393 28468 28517 28563 28602 28625 28642 28674 28715 28695 28708 28678 28647 28600 28531 28484 28421 28313 28207 28105 27999 27964 27918 27856 27810 27772 27685 27555 27446 27358 27291 27266 27369 27588 27807 27933 28001 28013 27973 27902 27796 27658 27554 27478 27462 27406 27429 27425 27417 27444 27489 27458 27374 27291 27246 27165 27134 27172 27187 27195 27176 27177 27158 27122 26974 26795 26605 26478 26348 26293 26218 26185 26138 26116 26088 26043 26039 26016 25881 25781 25664 25598 25549 25531 25529 25529 25511 25534 25542 25578 25592 25592 25523 25452 25431 25433 25428 25464 25492 25541 25567 25594 25618 25639 25670 25629 25574 25525 25498 25472 25491 25488 25512 25509 25544 25545 25595 25628 25587 25590 25628 25656 25685 25715 25727 25783 25799 25843 25845 25818 25825 25829 25833 25853 25848 25889 25914 25959 25985 26009 26042 26055 26064 26058 26034 26106 26056 26153 26171 26212 26240 26279 26303 26314 26325 26364 26358 26350 26350 26346 26371 26399 26403 26422 26438 26460 26472 26506 26510 26496 26492 26494 26472 26485 26496 26525 26551 26591 26646 26674 26702 26747 26750 26763 26772 26788 26799 26826 26859 26895 26965 27015 27053 27082 27116 27146 27204 27270 27399 27421 27346 27245 27207 27241 27282 27340 27402 27387 27387 27388 27377 27288 27203 27180 27167 27170 27209 27201 27267 27313 27353 27480 27558 27581 27617 27669 27816 27861 27714 27750 27631 27555 27553 27507 27474 27436 27385 27273 27194 27077 26996 26934 26892 26837 26812 26780 26765 26752 26753 26749 26667 26593 26525 26452 26429 26407 26394 26400 26382 26391 26382 26370 26390 26325 26233 26165 26105 26102 26090 26064 26070 26065 26072 26053 26062 26062 26037 25984 25937 25901 25908 25908 25923 25943 25950 25972 25974 25970 25981 25962 25898 25867 25848 25848 25862 25880 25861 25877 25879 25899 25915 25940 25918 25954 26049 26184 26279 26338 26375 26291 26330 26402 26487 26485 26494 26500 26466 26554 26553 26571 26528 26520 26525 26553 26556 26573 26565 26542 26521 26536 26610 26627 26649 26670 26684 26672 26673 26662 26664 26661 26685 26706 26718 26740 26757 26790 26795 26812 26816 26805 26799 26800 26819 26836 26853 26857 26877 26895 26909 26917 26943 26960 26954 26949 26952 26969 26996 27056 27155 27237 27358 27472 27552 27545 27515 27512 27493 27415 27377 27343 27328 27309 27316 27353 27353 27368 27353 27411 27500 27513 27441 27304 27174 27127 27081 27064 27045 27034 27002 27004 27004 26985 26954 26890 26819 26754 26718 26699 26674 26679 26655 26622 26609 26602 26588 26601 26561 26494 26269 26252 26230 26204 26204 26181 26181 26145 26074 25974 25917 25839 25771 25727 25721 25701 25700 25698 25696 25722 25736 25729 25665 25602 25557 25543 25566 25612 25630 25627 25615 25560 25489 25460 25460 25471 25467 25477 25516 25548 25597 25649 25724 25775 25811 25793 25731 25711 25711 25738 25734 25759 25771 25772 25783 25823 25859 25927 25923 25891 25844 25860 25899 25948 25955 25947 25963 25991 26019 26039 26083 26120 26144 26166 26187 26214 26232 26267 26279 26290 26324 26388 26488 26536 26579 26541 26479 26444 26422 26420 26406 26407 26432 26424 26436 26427 26446 26474 26491 26470 26441 26408 26368 26357 26338 26346 26343 26360 26345 26360 26371 26359 26348 26312 26283 26240 26226 26221 26218 26229 26233 26237 26240 26266 26287 26280 26239 26212 26165 26138 26127 26109 26123 26126 26080 26100 26095 26091 26081 26042 26014 25969 25945 25949 25965 25938 25940 25922 25926 25921 25909 25909 25866 25850 25795 25754 25743 25749 25758 25761 25762 25771 25749 25758 25755 25763 25740 25710 25670 25638 25637 25632 25607 25609 25584 25578 25580 25575 25550 25564 25557 25558 25567 25585 25575 25570 25559 25558 25556 25547 25558 25551 25533 25518 25512 25460 25460 25480 25496 25497 25506 25528 25578 25633 25701 25720 25716 25716 25699 25705 25710 25712 25714 25721 25716 25723 25725 25733 25721 25676 25657 25633 25643 25635 25655 25658 25687 25701 25730 25726 25738 25735 25726 25690 25705 25702 25700 25684 25704 25698 25698 25690 25686 25693 25718 25701 25687 25688 25718 25767 25808 25847 25893 25893 25918 25949 25988 26005 25987 26000 25995 25976 25971 25972 25961 25948 25944 25944 25951 25931 25935 25921 25892 25892 25898 25890 25878 25861 25874 25863 25877 25871 25941 25979 26080 26100 26109 26088 26071 26114 26136 26169 26195 26212 26208 26229 26263 26283 26266 26276 26293 26314 26321 26326 26348 26363 26361 26374 26383 26400 26411 26398 26375 26354 26352 26340 26337 26333 26372 26415 26441 26460 26472 26474 26462 26448 26438 26420 26426 26447 26442 26461 26492 26504 26509 26520 26522 26524 26517 26504 26500 26496 26530 26537 26577 26602 26626 26661 26663 26678 26677 26672 26688 26671 26674 26679 26690 26683 26692 26673 26692 26690 26695 26702 26721 26726 26713 26759 26779 26799 26827 26833 26840 26836 26847 26855 26853 26853 26832 26833 26809 26777 26751 26778 26794 26783 26774 26785 26793 26819 26788 26755 26714 26673 26631 26606 26607 26590 26568 26545 26550 26585 26581 26567 26536 26639 26684 26699 26711 26743 26704 26715 26666 26724 26807 26891 26986 27031 26959 26971 26999 26865 26805 26751 26738 26725 26757 26743 26764 26773 26745 26709 26693 26682 26680 26693 26696 26716 26720 26733 26738 26735 26747 26722 26699 26676 26679 26675 26694 26706 26718 26752 26812 26917 26908 26875 26878 26919 26988 27079 27460 27507 27521 27543 27565 27573 27572 27587 27626 27645 27697 27687 27751 27822 27895 27895 27915 27964 27929 27932 27915 27921 27907 27908 27928 27898 27903 27880 27837 27800 27806 27755 27628 27541 27480 27433 27380 27342 27306 27267 27240 27229 27199 27165 27091 27010 26895 26810 26729 26674 26618 26589 26575 26540 26534 26521 26499 26417 26297 26189 26108 26077 26079 26061 26139 26351 26337 26411 26443 26471 26364 26339 26391 26585 26690 26535 26368 26514 26560 26590 26588 26715 26802 26850 26835 26794 26715 26722 26586 26551 26572 26614 26569 26628 26564 26507 26384 26359 26338 26345 26349 26329 26312 26333 26294 26230 26156 26137 26111 26126 26140 26180 26206 26225 26287 26297 26323 26267 26216 26213 26177 26186 26211 26221 26251 26251 26263 26239 26233 26211 26153 26107 26079 26078 26057 26090 26104 26138 26152 26168 26188 26187 26135 26087 26043 26022 26032 26040 26068 26084 26089 26089 26101 26107 26060 26006 25960 25937 25928 25935 25926 25929 25955 25953 25967 25979 25949 25931 25865 25822 25798 25800 25778 25761 25779 25770 25767 25770 25763 25688 25642 25580 25563 25545 25567 25568 25572 25614 25634 25649 25662 25671 25632 25594 25573 25623 25645 25671 25660 25676 25675 25694 25687 25687 25637 25628 25626 25630 25630 25632 25636 25646 25690 25718 25755 25766 25763 25764 25751 25758 25756 25769 25753 25755 25732 25742 25741 25751 25753 25739 25696 25682 25639 25621 25629 25620 25642 25625 25630 25642 25646 25633 25626 25624 25611 25606 25614 25606 25587 25587 25599 25591 25597 25597 25582 25559 25574 25572 25603 25636 25647 25676 25736 25790 25837 25920 25948 25994 26020 26051 26075 26084 26096 26120 26126 26125 26108 26130 26142 26162 26149 26118 26123 26122 26119 26137 26127 26121 26150 26163 26190 26210 26219 26196 26160 26132 26127 26106 26097 26088 26082 26060 26075 26075 26119 26133 26104 26078 26062 26041 26067 26067 26085 26088 26124 26111 26121 26137 26098 26075 26075 26102 26131 26126 26156 26148 26167 26185 26186 26197 26205 26186 26171 26177 26162 26189 26192 26222 26227 26230 26224 26245 26229 26225 26219 26209 26199 26176 26165 26174 26158 26171 26162 26162 26174 26174 26161 26160 26121 26172 26188 26188 26181 26183 26183 26204 26196 26224 26218 26205 26262 26267 26263 26283 26347 26367 26388 26451 26457 26475 26488 26502 26487 26466 26461 26418 26382 26375 26352 26346 26322 26339 26320 26334 26372 26385 26370 26347 26314 26324 26305 26321 26290 26295 26297 26291 26266 26261 26257 26217 26143 26090 26062 26084 26102 26133 26147 26161 26162 26187 26181 26192 26169 26110 26080 26039 26024 26002 25980 25965 25943 25927 25918 25925 25932 25919 25861 25812 25798 25781 25789 25802 25789 25791 25795 25838 25855 25848 25809 25711 25651 25594 25568 25573 25538 25531 25560 25561 25544 25537 25556 25524 25488 25483 25438 25459 25451 25441 25442 25464 25461 25440 25455 25434 25346 25258 25266 25253 25227 25253 25226 25305 25342 25356 25407 25424 25432 25368 25324 25313 25344 25392 25407 25414 25421 25394 25464 25492 25501 25447 25360 25283 25246 25220 25202 25209 25206 25233 25242 25254 25223 25240 25211 25198 25156 25196 25168 25169 25163 25170 25184 25090 25057 25167 25261 25262 25363 25401 25465 25511 25545 25605 25600 25596 25535 25513 25488 25498 25482 25489 25447 25438 25449 25468 25462 25441 25368 25312 25302 25310 25330 25329 25314 25348 25349 25358 25351 25346 25299 25234 25193 25186 25190 25183 25236 25244 25317 25372 25397 25448 25511 25488 25481 25481 25454 25471 25479 25502 25521 25535 25555 25582 25587 25560 25502 25459 25471 25484 25515 25524 25543 25551 25558 25541 25543 25547 25478 25448 25428 25404 25402 25391 25390 25417 25443 25476 25511 25528 25480 25491 25499 25521 25513 25513 25507 25513 25520 25468 25429 25381 25416 25610 25831 25983 26085 26126 26338 26570 26799 26936 26982 26925 26961 26975 26958 26936 26875 26879 26866 26895 26915 26926 26942 26889 26846 26820 26743 26719 26727 26713 26715 26711 26702 26715 26719 26682 26640 26618 26587 26566 26630 26565 26636 26703 26702 26714 26729 26696 26529 26525 26519 26489 26480 26478 26475 26457 26444 26367 26302 26288 26274 26282 26316 26321 26334 26362 26380 26378 26391 26355 26267 26220 26195 26173 26179 26167 26161 26151 26148 26148 26145 26122 26057 26011 25985 25980 26016 26060 26098 26136 26168 26201 26233 26259 26261 26213 26187 26158 26174 26176 26174 26198 26201 26219 26238 26252 26278 26267 26227 26182 26180 26200 26203 26256 26261 26288 26325 26358 26406 26447 26463 26466 26476 26483 26510 26511 26564 26582 26611 26617 26663 26678 26721 26703 26664 26664 26678 26681 26690 26699 26723 26761 26786 26802 26813 26827 26847 26819 26836 26812 26837 26880 26909 26924 26960 26988 27008 27049 27099 27075 27058 27058 26982 26986 26967 26981 27008 27013 27039 27046 27069 27096 27075 27075 27056 27069 27130 27130 27146 27252 27352 27514 27657 27759 27692 27562 27489 27288 27287 27303 27321 27315 27329 27310 27279 27268 27290 27293 27264 27156 27121 27074 27040 27072 27087 27116 27160 27165 27190 27217 27231 27242 27210 27223 27253 27288 27389 27440 27479 27511 27537 27553 27588 27585 27539 27481 27554 27716 27814 27771 27789 27727 27710 27669 27604 27482 27395 27290 27186 27110 27044 26983 26916 26845 26801 26776 26742 26712 26706 26619 26525 26419 26322 26236 26181 26152 26098 26067 26045 26007 25994 26006 25982 25901 25829 25780 25751 25756 25773 25791 25782 25810 25819 25817 25819 25823 25756 25690 25657 25655 25682 25677 25721 25750 25780 25790 25798 25829 25817 25728 25658 25626 25595 25581 25574 25609 25616 25633 25623 25642 25653 25653 25595 25535 25502 25489 25454 25488 25477 25468 25463 25469 25452 25456 25427 25382 25399 25401 25399 25414 25401 25442 25520 25575 25619 25666 25690 25682 25689 25669 25667 25672 25679 25706 25733 25772 25819 25867 25871 25898 25900 25869 25823 25803 25783 25762 25768 25766 25769 25770 25843 25889 25940 25953 25936 25910 25906 25885 25899 25904 25918 25977 25991 26009 26054 26078 26072 26027 26011 25996 25985 25978 25965 25953 25939 25915 25902 25868 25868 25847 25790 25742 25708 25655 25639 25607 25590 25618 25583 25609 25607 25695 25729 25760 25748 25763 25782 25810 25829 25861 25856 25847 25840 25797 25805 25778 25754 25701 25651 25640 25622 25620 25679 25708 25695 25720 25713 25736 25784 25815 25841 25831 25829 25809 25836 25852 25898 25925 25938 25930 25945 25925 25972 25994 25974 25967 26004 26019 26099 26157 26181 26193 26222 26215 26244 26257 26249 26262 26252 26198 26144 26113 26106 26098 26118 26112 26097 26092 26078 26084 26049 26051 26016 25993 25967 25934 25920 25942 25929 25997 26031 26077 26091 26105 26105 26109 26139 26113 26077 26076 26061 26059 26073 26067 26058 26049 26045 26039 26019 26021 26016 25981 25919 25892 25882 25897 25912 25911 25940 26022 26052 26078 26084 26110 26144 26124 26108 26089 26080 26073 26064 26071 26073 26078 26056 26046 26051 26039 26028 25984 25949 25945 25962 25984 25990 25993 26004 25995 25971 26028 26049 26069 26070 26028 25985 25947 25922 25901 25884 25864 25860 25838 25825 25810 25797 25794 25749 25743 25770 25763 25811 25819 25807 25802 25791 25780 25758 25745 25783 25843 25820 25797 25798 25775 25789 25783 25777 25762 25741 25725 25701 25682 25680 25656 25623 25586 25543 25593 25643 25685 25710 25716 25704 25719 25694 25693 25673 25636 25585 25533 25509 25512 25510 25468 25458 25455 25422 25488 25522 25533 25514 25515 25494 25579 25667 25726 25748 25779 25793 25833 25844 25863 25861 25857 25830 25787 25798 25808 25785 25778 25813 25825 25844 25861 25877 25911 25910 25924 25895 25849 25868 25890 25959 25988 25982 25990 26002 26069 26077 26100 26099 26066 26052 26009 26041 26061 26070 26094 26093 26112 26216 26268 26287 26359 26344 26317 26342 26321 26378 26393 26375 26396 26403 26414 26418 26451 26453 26448 26395 26402 26414 26433 26474 26503 26523 26556 26579 26606 26633 26658 26637 26610 26624 26627 26644 26667 26679 26691 26716 26740 26763 26797 26810 26843 26998 27007 27013 26941 26911 26885 26883 26925 26948 26972 26997 27087 27278 27419 27497 27555 27572 27480 27437 27456 27353 27286 27223 27205 27191 27193 27188 27169 27160 27155 27158 27173 27186 27202 27205 27230 27230 27238 27253 27248 27240 27230 27244 27230 27229 27248 27231 27244 27256 27273 27279 27292 27279 27259 27242 27236 27226 27222 27218 27259 27366 27476 27570 27645 27743 27729 27695 27682 27719 27712 27672 27623 27565 27501 27418 27398 27403 27375 27380 27300 27238 27195 27150 27117 27107 27091 27072 27045 27033 27024 27020 26968 26901 26842 26664 26658 26669 26659 26674 26658 26629 26582 26515 26485 26431 26422 26398 26396 26375 26373 26397 26389 26388 26384 26346 26262 26221 26198 26161 26168 26161 26140 26149 26178 26176 26176 26188 26159 26093 26065 26043 26034 26051 26026 26044 26056 26053 26080 26080 26106 26103 26072 26059 26047 26045 26032 26035 26047 26035 26051 26052 26072 26083 26058 26053 26027 26085 26103 26144 26161 26219 26273 26306 26340 26432 26460 26503 26490 26499 26473 26453 26402 26386 26438 26480 26516 26550 26575 26630 26658 26671 26668 26671 26682 26692 26704 26739 26797 26864 26930 26996 27121 27285 27399 27454 27409 27387 27377 27362 27369 27364 27369 27340 27361 27443 27411 27380 27275 27205 27144 27110 27085 27063 27070 27027 27043 27042 27041 27060 27065 27031 26966 26937 26895 26856 26821 26823 26824 26814 26801 26806 26822 26811 26761 26695 26636 26594 26554 26551 26541 26537 26550 26545 26554 26553 26560 26541 26439 26377 26324 26261 26225 26209 26193 26177 26201 26181 26169 26164 26141 26089 26006 25954 25910 25897 25872 25883 25852 25862 25838 25823 25828 25817 25750 25653 25578 25524 25481 25479 25493 25503 25524 25502 25504 25501 25487 25442 25365 25310 25272 25249 25292 25315 25311 25358 25407 25454 25503 25529 25551 25479 25447 25435 25396 25424 25446 25484 25501 25530 25579 25607 25609 25633 25610 25525 25458 25411 25377 25371 25397 25442 25460 25473 25487 25482 25497 25490 25435 25388 25338 25347 25361 25435 25438 25480 25485 25534 25538 25566 25597 25541 25505 25472 25458 25417 25435 25452 25462 25478 25492 25495 25494 25548 25563 25518 25507 25508 25561 25574 25613 25613 25645 25648 25651 25646 25647 25649 25597 25534 25493 25504 25504 25502 25507 25496 25498 25486 25487 25514 25523 25504 25491 25499 25555 25610 25671 25705 25753 25786 25816 25811 25839 25863 25852 25789 25736 25712 25700 25693 25678 25676 25678 25655 25684 25678 25684 25689 25641 25620 25599 25620 25650 25648 25658 25685 25741 25744 25762 25756 25761 25724 25663 25633 25573 25554 25533 25565 25766 26056 26163 26275 26513 26776 26994 26900 26916 26869 26828 26810 26771 26774 26747 26785 26786 26760 26759 26721 26660 26618 26582 26559 26549 26540 26545 26545 26551 26578 26568 26601 26625 26605 26561 26545 26511 26505 26491 26484 26513 26524 26512 26512 26517 26506 26512 26460 26410 26368 26311 26293 26264 26278 26255 26276 26288 26280 26274 26288 26301 26243 26190 26152 26121 26119 26122 26136 26123 26118 26152 26124 26140 26157 26097 26075 26013 25985 25945 25979 25991 25999 25990 26050 26085 26113 26117 26155 26185 26173 26190 26170 26165 26153 26173 26184 26202 26212 26242 26235 26255 26248 26278 26236 26186 26159 26140 26132 26108 26139 26151 26183 26221 26222 26266 26296 26296 26276 26267 26235 26247 26243 26245 26232 26258 26255 26286 26290 26297 26336 26346 26360 26387 26418 26445 26435 26459 26470 26486 26510 26544 26524 26490 26479 26460 26439 26445 26427 26413 26415 26407 26439 26452 26482 26483 26438 26424 26411 26391 26431 26438 26447 26479 26472 26472 26424 26363 26351 26332 26305 26297 26322 26331 26345 26322 26351 26346 26368 26362 26353 26297 26274 26257 26249 26250 26256 26271 26291 26316 26330 26365 26382 26410 26369 26346 26294 26269 26259 26269 26261 26252 26258 26260 26265 26269 26294 26287 26243 26219 26214 26224 26229 26231 26260 26249 26303 26358 26392 26433 26479 26483 26438 26410 26393 26382 26363 26372 26362 26369 26366 26372 26373 26378 26413 26391 26335 26278 26244 26217 26220 26211 26235 26257 26275 26317 26363 26400 26450 26410 26382 26359 26301 26294 26281 26287 26297 26288 26320 26360 26390 26422 26427 26448 26579 26788 26907 26971 27121 27256 27284 27305 27200 27076 27047 27045 26982 26886 26792 26746 26708 26665 26677 26651 26640 26635 26603 26614 26612 26586 26524 26439 26399 26352 26325 26289 26278 26244 26223 26217 26224 26232 26254 26213 26179 26136 26103 26108 26100 26102 26093 26088 26079 26084 26084 26098 26069 25996 25917 25886 25845 25816 25803 25782 25776 25775 25792 25817 25852 25855 25820 25819 25780 25780 25779 25773 25770 25785 25784 25813 25837 25801 25804 25799 25834 25971 26131 26260 26291 26321 26367 26453 26557 26622 26798 26941 26873 26998 27249 27385 27342 27469 27504 27538 27567 27635 27727 27813 27881 27924 27947 27976 27981 27974 27945 27852 28068 28237 28372 28459 28548 28579 28644 28654 28625 28656 28648 28646 28636 28647 28611 28588 28556 28539 28513 28513 28487 28452 28402 28385 28355 28354 28337 28281 28171 28091 28058 28023 27963 27968 27934 27925 27896 27896 27877 27856 27831 27771 27720 27681 27667 27655 27674 27671 27680 27676 27694 27641 27585 27519 27408 27284 27147 27069 27011 26949 26875 26767 26728 26673 26624 26589 26452 26317 26239 26135 26061 26010 26001 25997 26003 25993 25990 26009 25989 25905 25777 25661 25574 25547 25525 25513 25496 25500 25491 25494 25542 25564 25485 25436 25416 25401 25387 25430 25420 25433 25436 25454 25483 25514 25469 25353 25249 25193 25171 25154 25185 25195 25255 25281 25297 25367 25417 25479 25430 25370 25349 25317 25316 25321 25328 25329 25348 25364 25359 25401 25418 25305 25246 25196 25185 25224 25251 25336 25379 25418 25483 25492 25519 25500 25424 25387 25360 25359 25362 25375 25349 25333 25385 25429 25453 25455 25393 25414 25434 25459 25485 25547 25559 25587 25631 25679 25691 25720 25691 25677 25606 25601 25587 25589 25601 25621 25665 25668 25686 25661 25658 25601 25644 25659 25710 25741 25768 25791 25814 25842 25858 25879 25877 25839 25800 25749 25729 25746 25743 25784 25852 25895 25905 25927 25923 25953 25931 25932 25925 25917 25955 25941 26019 26071 26078 26126 26121 26140 26113 26111 26104 26103 26140 26162 26230 26256 26295 26344 26358 26381 26390 26339 26289 26262 26253 26248 26242 26248 26222 26246 26236 26247 26247 26180 26117 26063 26069 26063 26071 26057 26031 26078 26099 26104 26098 26084 26039 25966 26003 26039 26056 26065 26066 26083 26070 26068 26087 26094 26029 25946 25910 25876 25900 25881 25911 25927 25904 25828 25746 25721 25733 25778 25838 25860 25916 25898 25952 25973 25996 25926 25855 25820 25764 25747 25734 25739 25732 25727 25706 25692 25703 25665 25630 25548 25540 25531 25584 25642 25651 25676 25711 25750 25757 25769 25797 25751 25712 25688 25659 25669 25674 25678 25688 25681 25664 25700 25703 25694 25631 25609 25583 25587 25606 25637 25666 25675 25735 25793 25812 25818 25809 25760 25706 25656 25656 25664 25693 25745 25765 25782 25800 25804 25823 25904 25921 25953 25940 25985 26054 26128 26150 26166 26214 26216 26241 26284 26330 26368 26350 26335 26308 26319 26324 26308 26316 26333 26315 26350 26375 26382 26375 26357 26313 26283 26257 26249 26260 26273 26277 26340 26372 26407 26453 26471 26513 26462 26486 26463 26447 26415 26420 26408 26386 26383 26386 26393 26410 26444 26464 26456 26426 26399 26375 26343 26335 26351 26355 26371 26378 26372 26381 26403 26385 26356 26295 26305 26314 26331 26343 26362 26365 26376 26372 26326 26280 26227 26275 26275 26269 26301 26343 26345 26353 26358 26360 26346 26333 26280 26220 26214 26187 26228 26251 26252 26280 26275 26277 26302 26282 26284 26294 26248 26215 26165 26143 26128 26138 26123 26139 26159 26165 26211 26241 26278 26248 26214 26205 26193 26177 26174 26194 26208 26265 26304 26334 26364 26389 26413 26413 26362 26354 26349 26342 26388 26389 26415 26423 26427 26403 26394 26394 26337 26264 26209 26178 26146 26144 26121 26146 26167 26168 26173 26160 26173 26115 26078 26013 25971 25938 25924 25924 25889 25920 25936 25936 25938 25927 25911 25833 25804 25790 25771 25776 25804 25841 25845 25887 25903 25906 25911 25905 25870 25823 25790 25782 25775 25781 25805 25844 25871 25879 25894 25937 25989 25973 25995 25990 25992 26006 26011 26000 26009 26013 26043 26067 26078 26064 26038 26013 26053 26046 26065 26070 26083 26082 26120 26162 26207 26239 26247 26233 26249 26251 26290 26324 26339 26349 26372 26405 26428 26464 26480 26469 26447 26414 26407 26422 26410 26400 26397 26384 26384 26387 26397 26393 26374 26335 26315 26334 26332 26390 26438 26461 26466 26510 26515 26529 26539 26499 26477 26442 26432 26400 26380 26392 26385 26363 26362 26343 26359 26353 26309 26259 26224 26218 26227 26254 26283 26317 26335 26344 26320 26325 26319 26246 26211 26168 26158 26176 26182 26179 26187 26178 26151 26149 26172 26165 26140 26081 26037 26006 25999 26055 26092 26117 26147 26196 26259 26302 26304 26261 26212 26206 26207 26177 26190 26209 26224 26255 26288 26292 26300 26266 26199 26165 26159 26160 26174 26174 26174 26201 26249 26272 26298 26312 26335 26317 26306 26298 26308 26320 26303 26312 26300 26311 26305 26292 26292 26279 26237 26178 26147 26116 26080 26076 26049 26068 26085 26115 26128 26138 26146 26117 26099 26067 26042 26031 26056 26099 26110 26156 26155 26175 26194 26193 26176 26174 26166 26146 26139 26187 26206 26219 26243 26258 26304 26357 26391 26408 26377 26376 26360 26352 26352 26362 26356 26357 26365 26371 26399 26405 26416 26401 26388 26386 26368 26360 26367 26373 26407 26421 26427 26440 26451 26450 26489 26492 26547 26546 26572 26565 26572 26569 26555 26557 26592 26608 26638 26637 26614 26595 26565 26580 26558 26562 26549 26541 26522 26547 26548 26553 26547 26500 26462 26455 26466 26520 26627 26733 26770 26777 26816 26819 26850 26886 26890 26879 26886 26905 26912 26968 27143 27287 27426 27468 27613 27523 27511 27488 27440 27464 27386 27351 27361 27425 27392 27434 27512 27540 27560 27551 27431 27355 27281 27228 27177 27167 27144 27166 27178 27195 27215 27241 27308 27344 27348 27255 27180 27090 27065 27044 27009 26986 26949 26917 26893 26844 26859 26788 26676 26585 26528 26474 26443 26417 26396 26339 26315 26284 26287 26259 26201 26082 25966 25909 25882 25843 25823 25829 25799 25827 25822 25802 25815 25792 25670 25560 25500 25456 25449 25464 25486 25481 25475 25478 25480 25464 25448 25399 25314 25267 25233 25217 25220 25215 25254 25284 25301 25319 25343 25323 25249 25193 25138 25125 25120 25122 25114 25114 25119 25119 25131 25133 25121 25101 25075 25109 25120 25139 25182 25206 25241 25301 25319 25362 25371 25453 25474 25488 25539 25567 25619 25662 25704 25768 25877 25956 26048 26117 26157 26210 26256 26236 26240 26228 26238 26250 26263 26282 26280 26302 26338 26377 26389 26429 26447 26451 26430 26428 26426 26490 26489 26493 26493 26522 26505 26502 26497 26506 26519 26479 26505 26499 26495 26496 26509 26496 26542 26561 26574 26589 26588 26587 26575 26584 26589 26595 26592 26601 26641 26692 26751 26770 26795 26800 26803 26809 26854 26875 26904 26911 26936 26934 26950 26955 26953 26939 26930 26933 26925 26922 26910 26915 26918 26906 26940 26933 27031 27208 27270 27247 27235 27229 27169 27207 27152 27240 27327 27410 27444 27403 27436 27438 27324 27293 27256 27226 27201 27187 27194 27199 27213 27215 27228 27210 27202 27202 27207 27223 27227 27246 27240 27254 27272 27275 27282 27251 27238 27225 27213 27220 27232 27223 27224 27282 27408 27574 27746 27824 27826 27807 27782 27858 27783 27739 27690 27646 27577 27567 27589 27373 27325 27276 27257 27240 27217 27191 27180 27159 27156 27110 27021 26921 26829 26761 26701 26692 26683 26681 26666 26665 26652 26636 26646 26572 26485 26421 26342 26297 26265 26251 26234 26191 26205 26180 26186 26203 26174 26114 26046 25990 26002 25985 25984 25972 25967 25949 25942 25940 25933 25912 25822 25750 25681 25660 25615 25607 25582 25565 25593 25584 25609 25648 25658 25654 25603 25569 25539 25527 25544 25567 25605 25618 25667 25726 25776 25807 25822 25784 25799 25791 25791 25802 25806 25804 25823 25846 25823 25887 25918 25937 25961 25951 25997 26019 26033 26044 26064 26070 26069 26074 26033 26000 26001 25984 26006 26035 26034 26073 26069 26067 26114 26111 26138 26139 26131 26223 26224 26257 26243 26272 26300 26250 26247 26234 26196 26178 26182 26172 26182 26160 26159 26138 26139 26116 26089 26033 25983 25972 25921 25916 25894 25881 25868 25867 25886 25896 25926 25968 25973 25965 25981 25990 25989 26010 26020 26044 26077 26073 26098 26151 26153 26130 26108 26079 26047 26062 26075 26049 26076 26078 26069 26091 26089 26111 26076 26019 25963 25940 25927 25915 25924 25921 25908 25906 25906 25873 25873 25864 25799 25795 25752 25735 25735 25771 25764 25801 25817 25840 25862 25868 25841 25808 25792 25753 25771 25791 25794 25848 25970 26127 26155 26249 26343 26341 26310 26273 26258 26249 26265 26330 26395 26491 26653 26760 26908 27037 27130 27174 27207 27238 27219 27229 27292 27325 27349 27472 27462 27448 27455 27456 27449 27491 27556 27584 27595 27624 27628 27638 27678 27645 27631 27599 27593 27594 27605 27591 27580 27536 27569 27609 27601 27563 27487 27337 27111 26939 26780 26769 26866 26966 27076 27186 27231 27210 27079 26963 26890 26800 26736 26688 26665 26566 26488 26418 26376 26356 26324 26254 26076 25954 25859 25771 25737 25679 25672 25677 25654 25671 25668 25661 25637 25500 25422 25355 25334 25337 25321 25385 25414 25426 25448 25483 25521 25481 25402 25309 25265 25242 25261 25274 25313 25341 25362 25418 25468 25510 25539 25478 25437 25410 25402 25420 25451 25485 25495 25531 25563 25597 25647 25691 25644 25605 25584 25597 25604 25627 25655 25678 25710 25729 25772 25785 25838 25840 25795 25852 25898 25932 25963 25991 26028 26066 26057 26043 26032 26011 26003 26034 26047 26088 26112 26144 26163 26189 26220 26231 26196 26176 26155 26160 26179 26175 26188 26220 26248 26280 26307 26334 26319 26297 26283 26276 26270 26266 26301 26328 26330 26366 26374 26409 26448 26460 26434 26431 26419 26413 26444 26453 26452 26466 26462 26478 26497 26493 26513 26490 26458 26454 26431 26426 26405 26408 26410 26412 26413 26418 26453 26471 26489 26461 26438 26437 26438 26465 26459 26474 26474 26499 26481 26506 26504 26445 26396 26356 26308 26295 26281 26288 26321 26313 26312 26321 26321 26324 26292 26230 26208 26198 26198 26210 26236 26258 26291 26299 26326 26333 26352 26331 26290 26241 26233 26209 26188 26201 26191 26283 26250 26198 26148 26126 26120 26107 26111 26118 26116 26122 26113 26133 26156 26079 26060 25987 26045 26014 26078 26133 26141 26209 26230 26408 26467 26536 26528 26479 26491 26658 26723 26758 26880 27069 27182 27216 27176 27248 27231 27145 27015 26888 26775 26716 26682 26658 26605 26586 26562 26551 26536 26527 26483 26403 26291 26228 26174 26155 26133 26164 26176 26200 26210 26266 26296 26316 26299 26246 26241 26251 26247 26233 26244 26262 26273 26281 26275 26286 26288 26224 26166 26118 26090 26122 26132 26171 26190 26186 26186 26213 26220 26223 26217 26161 26114 26112 26055 26067 26131 26176 26192 26200 26230 26239 26303 26251 26182 26156 26125 26100 26128 26122 26171 26174 26212 26241 26261 26303 26317 26286 26236 26200 26219 26209 26218 26211 26230 26226 26260 26276 26302 26348 26325 26305 26317 26299 26313 26327 26367 26360 26403 26411 26432 26466 26475 26445 26403 26393 26370 26326 26318 26310 26312 26304 26293 26291 26292 26311 26300 26246 26246 26237 26218 26234 26249 26297 26275 26310 26314 26375 26405 26423 26381 26370 26349 26320 26307 26292 26266 26252 26237 26228 26232 26248 26260 26233 26205 26194 26182 26210 26242 26270 26333 26363 26395 26416 26437 26458 26448 26394 26321 26284 26255 26253 26244 26272 26276 26306 26323 26335 26344 26351 26314 26252 26174 26189 26155 26184 26178 26195 26205 26224 26271 26287 26309 26267 26219 26177 26169 26159 26174 26171 26183 26163 26176 26227 26288 26319 26300 26228 26165 26142 26127 26137 26129 26133 26142 26136 26175 26173 26178 26148 26058 26006 26001 25958 25993 26011 26009 26023 26061 26095 26128 26168 26175 26115 26087 26065 26026 26017 26005 25994 25988 25991 25984 25856 25807 25809 25793 25786 25786 25764 25753 26052 26092 26104 26138 26151 26162 26138 26083 26053 26041 26053 26099 26099 26138 26170 26185 26209 26222 26248 26236 26174 26174 26185 26211 26220 26236 26238 26240 26260 26262 26288 26280 26218 26188 26160 26121 26126 26108 26119 26102 26141 26161 26178 26215 26190 26160 26152 26161 26145 26143 26147 26168 26162 26178 26182 26201 26171 26145 26119 26089 26095 26112 26119 26166 26159 26175 26195 26237 26270 26272 26240 26198 26193 26193 26178 26189 26177 26178 26191 26189 26244 26256 26243 26228 26213 26228 26229 26230 26248 26289 26315 26338 26355 26375 26388 26372 26336 26302 26270 26246 26256 26238 26217 26212 26274 26267 26271 26276 26264 26271 26271 26326 26376 26425 26488 26499 26539 26544 26556 26537 26517 26538 26547 26558 26568 26563 26590 26571 26574 26580 26568 26535 26521 26490 26480 26489 26499 26505 26501 26499 26490 26510 26505 26510 26511 26500 26502 26528 26520 26597 26602 26612 26631 26650 26668 26678 26682 26684 26668 26682 26688 26695 26690 26702 26707 26738 26768 26776 26783 26770 26738 26735 26734 26751 26752 26743 26752 26769 26795 26808 26833 26804 26777 26782 26773 26789 26772 26765 26775 26763 26765 26771 26774 26778 26745 26717 26799 26820 26829 26842 26833 26844 26814 26768 26765 26748 26745 26768 26764 26769 26802 26837 26827 26847 26809 26736 26588 26505 26490 26476 26487 26471 26491 26514 26433 26445 26445 26359 26276 26210 26202 26195 26170 26193 26190 26209 26239 26243 26272 26224 26189 26167 26110 26106 26143 26108 26124 26144 26140 26128 26140 26108 26060 26006 25974 25993 25983 25986 25995 26038 26053 26046 26068 26111 26101 26114 26118 26116 26132 26132 26159 26163 26177 26214 26215 26229 26231 26246 26218 26234 26221 26219 26277 26270 26285 26316 26327 26364 26357 26363 26362 26294 26325 26327 26351 26368 26417 26456 26480 26515 26509 26583 26624 26666 26661 26620 26604 26634 26606 26630 26711 26731 26856 26845 26841 26828 26821 26800 26829 26861 26903 26921 26931 26936 26988 26950 26988 26949 27023 26961 26954 26939 26982 26980 27010 27027 27049 27093 27090 27083 27006 27031 27028 27028 27022 27028 27063 27059 27077 27013 27023 27020 27009 27005 27001 27021 27031 27035 27037 27049 27044 27054 27028 26994 26934 26903 26882 26864 26857 26872 26857 26870 26851 26859 26864 26833 26814 26768 26729 26718 26683 26685 26675 26688 26709 26718 26751 26760 26783 26784 26719 26687 26641 26629 26602 26596 26614 26594 26603 26597 26625 26614 26620 26596 26565 26508 26532 26524 26530 26506 26540 26527 26542 26557 26550 26594 26569 26510 26462 26462 26458 26463 26447 26467 26439 26461 26436 26434 26433 26366 26320 26255 26217 26201 26223 26290 26338 26378 26409 26453 26493 26527 26529 26496 26493 26450 26453 26452 26478 26473 26467 26484 26512 26498 26521 26535 26494 26475 26476 26452 26433 26427 26460 26466 26458 26484 26512 26509 26514 26484 26436 26387 26391 26357 26394 26384 26379 26372 26400 26410 26418 26406 26398 26339 26285 26277 26267 26280 26287 26299 26294 26320 26287 26244 26202 26223 26244 26245 26222 26258 26256 26280 26307 26315 26315 26263 26210 26205 26211 26197 26189 26177 26161 26176 26178 26174 26158 26216 26208 26167 26120 26141 26134 26151 26163 26173 26185 26200 26206 26229 26251 26190 26130 26084 26073 26066 26052 26071 26081 26071 26107 26150 26172 26227 26168 26122 26070 26084 26085 26123 26095 26108 26131 26160 26160 26189 26202 26133 26097 26036 26065 26065 26076 26080 26103 26098 26105 26118 26133 26120 26039 25983 25943 25911 25894 25920 25918 25951 25972 26007 26070 26131 26132 26107 26077 26102 26110 26155 26187 26220 26246 26296 26304 26349 26328 26298 26210 26182 26122 26090 26093 26088 26076 26108 26111 26130 26160 26173 26148 26127 26092 26079 26092 26142 26133 26157 26188 26222 26258 26277 26298 26251 26210 26187 26197 26202 26193 26199 26208 26201 26259 26266 26286 26324 26278 26276 26287 26288 26286 26303 26311 26306 26322 26327 26337 26376 26374 26317 26292 26266 26279 26305 26303 26302 26302 26313 26332 26358 26386 26399 26387 26343 26319 26348 26336 26347 26350 26366 26385 26402 26419 26453 26454 26428 26419 26399 26393 26366 26376 26374 26375 26392 26406 26408 26407 26477 26441 26438 26430 26426 26438 26461 26462 26519 26537 26544 26552 26558 26576 26563 26527 26499 26477 26462 26435 26436 26426 26480 26465 26497 26519 26561 26600 26570 26558 26561 26562 26577 26620 26628 26639 26641 26656 26685 26683 26704 26659 26603 26597 26574 26592 26601 26603 26629 26651 26664 26692 26697 26730 26734 26716 26676 26671 26664 26664 26672 26662 26734 26741 26733 26808 26870 26914 26866 26849 26859 26857 26848 26851 26829 26848 26847 26866 26891 26888 26902 26885 26854 26811 26807 26800 26816 26812 26824 26813 26824 26810 26769 26763 26757 26745 26743 26740 26750 26750 26779 26774 26768 26767 26693 26674 26630 26607 26601 26593 26580 26561 26570 26563 26572 26577 26579 26571 26578 26564 26549 26545 26563 26554 26562 26579 26596 26632 26632 26643 26599 26563 26515 26492 26479 26467 26438 26432 26432 26402 26398 26397 26388 26344 26311 26284 26262 26270 26266 26345 26559 26717 26797 26768 26778 26855 26873 26847 26783 26773 26803 26846 26887 26938 27034 27098 27162 27216 27237 27264 27284 27326 27354 27393 27400 27382 27288 27237 27220 27161 27126 27097 27037 26967 26916 26913 26939 26951 26937 26994 27097 27109 27169 27202 27241 27293 27299 27306 27244 27216 27196 27175 27168 27160 27123 27122 27103 27102 27063 27018 27012 27007 27031 27063 27097 27129 27144 27135 27131 27144 27079 26946 26791 26653 26575 26522 26480 26422 26395 26364 26341 26345 26346 26243 26160 26150 26136 26114 26118 26091 26105 26077 26054 26125 26274 26358 26434 26578 26706 26805 26910 26975 27034 27002 26933 26869 26808 26760 26746 26677 26603 26568 26539 26413 26456 26439 26453 26458 26422 26368 26334 26360 26374 26373 26386 26389 26402 26408 26422 26428 26383 26365 26358 26363 26354 26358 26367 26371 26398 26407 26439 26442 26460 26439 26427 26410 26428 26420 26444 26461 26492 26515 26536 26543 26564 26588 26563 26534 26510 26491 26485 26495 26509 26530 26543 26549 26603 26597 26631 26608 26585 26561 26540 26511 26541 26580 26592 26601 26628 26664 26675 26679 26642 26583 26581 26574 26593 26621 26615 26625 26628 26652 26670 26691 26719 26686 26677 26675 26673 26684 26694 26711 26709 26746 26769 26772 26800 26758 26772 26727 26704 26699 26715 26709 26718 26720 26739 26735 26771 26787 26795 26787 26725 26747 26749 26771 26768 26794 26831 26835 26869 26893 26910 26919 26858 26825 26806 26787 26767 26764 26772 26787 26793 26803 26803 26830 26816 26804 26783 26772 26778 26777 26791 26783 26806 26792 26798 26807 26852 26853 26801 26772 26744 26748 26723 26787 26796 26799 26724 26724 26671 26686 26688 26687 26692 26689 26702 26707 26715 26731 26697 26632 26604 26598 26592 26589 26581 26581 26596 26604 26607 26618 26597 26521 26476 26442 26410 26403 26396 26405 26408 26433 26455 26451 26433 26396 26367 26343 26314 26313 26290 26287 26270 26270 26265 26300 26318 26292 26249 26241 26246 26258 26266 26292 26328 26378 26322 26296 26268 26273 26274 26259 26272 26298 26321 26356 26372 26374 26330 26282 26266 26225 26223 26228 26181 26218 26257 26251 26277 26255 26254 26199 26152 26167 26152 26142 26178 26193 26238 26233 26259 26286 26323 26281 26253 26238 26254 26259 26282 26297 26293 26332 26334 26353 26355 26372 26334 26285 26247 26226 26238 26230 26261 26306 26366 26390 26448 26467 26486 26472 26422 26399 26386 26389 26387 26400 26410 26416 26420 26441 26462 26460 26400 26379 26364 26341 26345 26352 26367 26388 26391 26398 26418 26423 26421 26376 26362 26332 26333 26329 26338 26346 26348 26349 26344 26365 26363 26350 26358 26350 26348 26360 26361 26391 26390 26426 26446 26457 26491 26499 26538 26546 26525 26499 26505 26523 26519 26504 26498 26508 26495 26455 26421 26434 26433 26441 26457 26477 26474 26495 26507 26518 26542 26548 26527 26499 26483 26489 26481 26466 26482 26481 26498 26506 26493 26502 26533 26539 26533 26529 26524 26514 26520 26512 26527 26519 26511 26503 26508 26537 26550 26521 26524 26618 26675 26723 26774 26823 26841 26847 26860 26897 26928 26921 26910 26875 26862 26867 26867 26864 26876 26887 26906 26930 26927 26947 26959 26935 26865 26833 26834 26812 26798 26821 26801 26813 26814 26804 26814 26808 26778 26721 26646 26602 26580 26557 26531 26524 26496 26492 26491 26497 26505 26510 26443 26397 26332 26340 26394 26381 26376 26398 26398 26408 26432 26440 26442 26345 26248 26189 26159 26121 26100 26077 26049 26073 26073 26057 26074 26091 26041 25951 25908 25897 25896 25896 25894 25888 25901 25855 25912 25931 25923 25898 25790 25755 25701 25718 25740 25744 25764 25768 25809 25821 25864 25949 26000 25950 25916 25886 25890 25920 25925 25997 26010 26069 26067 26106 26123 26157 26106 26052 26046 26037 26012 26018 26041 26051 26053 26071 26086 26127 26129 26133 26117 26097 26084 26113 26144 26176 26218 26248 26290 26325 26347 26383 26433 26402 26382 26387 26380 26398 26423 26450 26472 26499 26518 26546 26552 26597 26564 26552 26564 26583 26599 26614 26639 26726 26745 26746 26722 26732 26727 26725 26736 26766 26782 26803 26817 26849 26849 26867 26883 26881 26838 26804 26822 26796 26807 26832 26823 26818 26832 26826 26831 26845 26833 26787 26776 26755 26737 26731 26738 26716 26763 26777 26799 26815 26830 26842 26843 26775 26739 26698 26648 26654 26664 26638 26660 26655 26638 26641 26643 26626 26615 26566 26509 26499 26511 26524 26535 26515 26576 26583 26573 26593 26594 26612 26582 26535 26516 26507 26527 26538 26546 26563 26562 26567 26575 26595 26583 26635 26598 26543 26510 26473 26484 26489 26491 26495 26500 26512 26508 26513 26525 26522 26474 26424 26390 26385 26365 26368 26370 26382 26398 26393 26431 26464 26488 26522 26521 26512 26525 26527 26528 26534 26566 26571 26567 26581 26594 26596 26587 26598 26585 26539 26508 26502 26497 26493 26506 26511 26526 26514 26530 26548 26590 26611 26644 26632 26633 26643 26666 26682 26702 26710 26718 26718 26748 26777 26786 26794 26768 26735 26733 26703 26691 26674 26702 26699 26741 26786 26793 26814 26838 26831 26824 26813 26812 26812 26814 26811 26812 26813 26811 26823 26841 26861 26872 26845 26825 26871 26897 26912 26922 26952 26963 26994 27005 26997 26954 26941 26919 26906 26888 26880 26866 26868 26867 26872 26854 26850 26791 26716 26695 26644 26649 26652 26663 26662 26662 26658 26668 26669 26696 26680 26623 26583 26554 26524 26521 26501 26500 26488 26494 26512 26521 26518 26556 26533 26508 26493 26468 26460 26458 26461 26517 26541 26531 26558 26544 26569 26532 26501 26451 26423 26408 26433 26417 26464 26504 26490 26494 26488 26481 26503 26473 26447 26456 26436 26445 26471 26492 26550 26590 26623 26640 26661 26703 26697 26650 26640 26624 26641 26646 26651 26680 26663 26657 26674 26683 26689 26714 26687 26680 26649 26646 26649 26665 26699 26727 26716 26717 26747 26767 26765 26787 26769 26770 26770 26794 26801 26805 26827 26817 26843 26870 26883 26893 26893 26876 26860 26864 26863 26861 26882 26881 26889 26900 26908 26914 26937 26943 26983 26971 26951 26927 26919 26917 26901 26895 26917 26923 26925 26910 26963 26963 26994 26961 26933 26935 26935 26932 26962 26959 26975 26940 26963 26965 26998 27013 27031 26998 26979 26969 26969 26970 26987 26966 26948 26940 26948 26928 26952 26951 26947 26906 26873 26859 26832 26831 26816 26811 26822 26806 26821 26845 26857 26868 26860 26832 26814 26776 26781 26770 26758 26747 26736 26713 26707 26700 26704 26704 26693 26657 26648 26635 26631 26622 26621 26619 26610 26587 26587 26581 26549 26552 26505 26445 26426 26407 26366 26358 26311 26307 26292 26310 26314 26343 26366 26365 26348 26300 26292 26311 26303 26291 26287 26286 26315 26302 26329 26296 26275 26292 26299 26301 26292 26292 26307 26319 26331 26334 26347 26371 26338 26306 26266 26293 26303 26320 26325 26329 26353 26360 26373 26411 26421 26431 26451 26397 26453 26473 26497 26519 26489 26536 26553 26563 26615 26642 26677 26687 26678 26647 26625 26623 26623 26633 26622 26637 26640 26652 26638 26665 26659 26685 26655 26634 26640 26653 26659 26656 26695 26684 26723 26717 26754 26765 26788 26748 26728 26712 26684 26657 26649 26634 26630 26605 26619 26613 26609 26611 26605 26575 26547 26518 26508 26491 26484 26494 26488 26491 26507 26522 26554 26599 26612 26621 26592 26612 26645 26655 26697 26713 26756 26773 26822 26863 26884 26904 26908 26856 26858 26857 26925 26954 27064 27258 27437 27474 27422 27395 27336 27286 27248 27207 27212 27235 27269 27267 27231 27265 27338 27286 27232 27166 27116 27087 27076 27076 27083 27098 27105 27131 27154 27165 27189 27202 27205 27200 27171 27176 27194 27205 27214 27238 27260 27271 27288 27291 27284 27273 27260 27293 27397 27554 27703 27820 27809 27785 27783 27759 27707 27726 27693 27650 27624 27527 27485 27447 27433 27426 27400 27420 27400 27393 27408 27369 27407 27503 27592 27537 27509 27486 27429 27345 27230 27251 27230 27158 27148 27121 27107 27111 27025 26968 26894 26843 26808 26772 26759 26741 26727 26731 26733 26717 26739 26745 26673 26634 26621 26605 26594 26566 26549 26560 26565 26561 26573 26601 26599 26610 26611 26571 26541 26521 26511 26505 26494 26492 26476 26461 26470 26471 26468 26483 26481 26440 26409 26395 26383 26382 26431 26463 26505 26535 26548 26580 26579 26588 26615 26603 26590 26570 26572 26573 26620 26679 26663 26683 26707 26706 26689 26659 26674 26649 26671 26704 26703 26725 26726 26749 26763 26780 26801 26812 26836 26793 26797 26783 26773 26762 26767 26774 26769 26774 26774 26793 26788 26808 26801 26765 26722 26693 26688 26659 26666 26655 26706 26717 26761 26763 26786 26815 26810 26831 26775 26734 26734 26731 26716 26703 26715 26694 26692 26687 26675 26667 26676 26655 26644 26625 26574 26554 26552 26558 26590 26597 26606 26615 26608 26620 26627 26628 26607 26616 26577 26527 26491 26441 26452 26427 26376 26399 26390 26341 26395 26458 26462 26483 26455 26420 26384 26376 26340 26359 26340 26338 26334 26298 26292 26310 26293 26321 26317 26289 26237 26187 26127 26084 26080 26076 26048 26063 26057 26046 26068 26074 26100 26139 26152 26115 26083 26035 26004 25985 26004 25960 26009 26025 26041 26056 26067 26077 26068 26063 25983 25996 25970 25940 25954 25933 25925 25922 25947 25929 26011 26018 26006 26054 26017 25983 25925 25922 25905 25927 25928 25948 25984 25983 25992 25979 25995 25996 26015 25971 25913 25897 25862 25836 25817 25843 25834 25835 25814 25817 25841 25841 25859 25842 25836 25767 25765 25729 25728 25755 25801 25825 25845 25860 25876 25891 25884 25912 25950 25954 25939 25943 25947 26114 26295 26452 26425 26404 26448 26410 26375 26381 26416 26409 26472 26486 26533 26605 26641 26669 26681 26698 26686 26738 26709 26648 26622 26614 26569 26577 26576 26518 26541 26553 26610 26731 26724 26731 26822 26811 26843 26916 27015 27042 26985 26833 26872 26850 26852 26856 26895 26917 26977 26963 26959 26965 26994 27001 26966 26917 26848 26803 26787 26783 26767 26756 26744 26673 26621 26561 26521 26507 26490 26462 26331 26243 26159 26086 26031 26004 25993 25967 26012 26128 26366 26445 26526 26749 26893 27016 27051 27011 26951 26873 26780 26735 26680 26658 26623 26601 26567 26552 26550 26477 26520 26543 26458 26470 26349 26413 26390 26357 26367 26384 26329 26339 26330 26319 26272 26211 26141 26101 26110 26097 26095 26098 26090 26072 26071 26088 26077 26101 26087 25989 25943 25914 25880 25878 25865 25888 25903 25913 25907 25926 25949 25950 25972 25930 25878 25845 25825 25818 25838 25850 25859 25881 25907 25929 25950 25995 26038 25997 25962 25930 25904 25926 25942 25958 26100 26122 26143 26149 26112 26074 26066 26060 26068 26123 26144 26162 26187 26214 26225 26279 26315 26345 26348 26317 26540 26509 26502 26457 26453 26445 26468 26450 26464 26487 26500 26525 26543 26548 26558 26534 26512 26484 26478 26496 26488 26495 26521 26529 26533 26559 26585 26618 26641 26632 26622 26629 26630 26637 26654 26668 26685 26710 26718 26765 26775 26796 26820 26834 26836 26834 26826 26840 26836 26849 26856 26870 26900 26924 26921 26950 26984 26993 27014 27024 26993 27005 26988 26992 26990 27010 26987 27000 26994 27003 26990 26994 27014 27033 27016 26993 26974 26959 26943 26964 26958 26959 26947 26953 26955 26945 26955 26992 26983 26942 26936 26926 26908 26873 26899 26888 26905 26899 26908 26931 26934 26957 26980 27004 26982 26994 26975 26958 26972 27041 27328 27361 27415 27469 27465 27363 27221 27146 27096 26994 26951 26865 26864 26903 26971 27040 27152 27144 27170 26999 26939 26952 26841 26727 26609 26527 26473 26414 26410 26376 26366 26333 26298 26279 26275 26257 26183 26097 26010 25919 25894 25886 25868 25805 25836 25838 25843 25841 25839 25831 25774 25680 25548 25472 25389 25349 25322 25343 25318 25290 25335 25336 25391 25390 25280 25185 25095 25033 25024 25022 25063 25068 25051 25093 25110 25143 25194 25133 25016 24936 24993 24979 25028 25028 25101 25130 25128 25176 25232 25270 25317 25333 25218 25196 25211 25196 25216 25241 25258 25251 25307 25325 25268 25260 25212 25222 25205 25233 25268 25283 25262 25243 25173 25153 25120 25159 25174 25222 25175 25262 25358 25411 25493 25463 25581 25656 25655 25692 25650 25646 25738 25782 25790 25818 25863 25903 25940 25981 26038 26093 26114 26115 26129 26119 26169 26188 26221 26273 26339 26357 26404 26450 26474 26506 26500 26491 26479 26506 26531 26577 26615 26668 26694 26735 26733 26788 26824 26842 26821 26831 26840 26840 26860 26852 26892 26921 26930 26955 27010 27065 27070 27036 27032 27035 27020 27017 27051 27070 27095 27094 27120 27119 27126 27118 27097 27058 27065 27028 27029 26996 26985 26976 26967 26981 27007 27013 26978 26912 26827 26759 26712 26668 26646 26651 26641 26626 26601 26613 26620 26606 26520 26398 26315 26248 26199 26169 26140 26143 26137 26128 26143 26179 26179 26123 26048 25992 25967 25980 25981 25981 25965 25940 25911 25913 25929 25934 25822 25737 25662 25601 25600 25638 25698 25861 26059 26232 26313 26364 26446 26532 26647 26686 26646 26651 26641 26573 26551 26523 26532 26600 26609 26606 26591 26539 26571 26664 26778 26894 27011 27085 27211 27278 27402 27417 27570 27498 27371 27253 27194 27123 27051 27008 26970 26905 26877 26875 26849 26833 26692 26582 26480 26391 26356 26263 26124 26319 26455 26459 26665 26828 26905 26843 26752 26673 26592 26584 26587 26585 26574 26574 26554 26541 26536 26511 26457 26374 26297 26237 26174 26142 26152 26131 26127 26145 26163 26203 26181 26108 25996 25955 25929 25917 25921 25957 25961 25970 26001 26012 26007 26019 25942 25889 25852 25813 25810 25830 25842 25833 25825 25876 25916 25915 25917 25868 25792 25775 25749 25771 25832 25858 25909 25936 25949 26016 26026 25986 25869 25856 25780 25778 25807 25796 25833 25896 25921 25980 26022 26063 26049 25996 25946 25920 25898 25908 25941 25939 25945 25946 25973 26027 26050 25995 25933 25853 25829 25792 25833 25845 25889 25932 25963 25991 26038 26033 25980 25918 25884 25867 25865 25879 25869 25956 25993 25989 26031 26049 26094 26060 26000 25976 25966 25974 26027 26028 26047 26070 26106 26123 26184 26169 26150 26137 26098 26091 26104 26146 26225 26252 26266 26313 26334 26332 26312 26252 26218 26191 26192 26225 26258 26280 26335 26337 26382 26449 26480 26429 26400 26364 26340 26309 26292 26288 26317 26333 26366 26397 26438 26424 26343 26265 26249 26213 26286 26291 26286 26285 26275 26238 26262 26256 26229 26176 26076 26063 26067 26087 26095 26097 26103 26124 26151 26171 26176 26098 25997 25902 25838 25777 25874 25918 25952 25989 26021 26090 26096 26115 26041 26021 26000 25973 25963 25967 25967 25994 25986 25993 26025 26066 26094 26043 26002 25968 25947 25943 25921 25971 26003 26016 26024 26037 26066 26050 25952 25853 25848 25852 25853 25886 25897 25934 25991 26000 25981 26027 26048 26021 25998 26010 26050 26091 26077 26127 26140 26158 26186 26201 26225 26194 26142 26085 26082 26037 26109 26153 26180 26248 26241 26259 26225 26324 26324 26317 26309 26176 26258 26303 26282 26312 26360 26373 26396 26392 26382 26336 26293 26251 26233 26271 26286 26316 26313 26333 26335 26343 26369 26327 26287 26229 26255 26245 26264 26279 26275 26237 26318 26341 26383 26352 26298 26256 26221 26242 26252 26261 26292 26335 26329 26304 26359 26405 26283 26319 26288 26259 26278 26285 26382 26373 26412 26478 26502 26506 26452 26415 26353 26371 26380 26381 26392 26417 26413 26429 26455 26500 26457 26377 26369 26281 26299 26308 26408 26431 26486 26517 26497 26486 26443 26393 26369 26337 26287 26300 26326 26349 26331 26367 26400 26398 26376 26296 26239 26161 26125 26166 26189 26127 26177 26210 26185 26216 26167 26105 26051 26017 25976 25999 25997 26016 26037 26047 26119 26155 26090 25989 25900 25874 25919 25927 25946 25970 25979 25975 26013 26056 25989 25893 25804 25757 25744 25722 25773 25791 25757 25835 25866 25818 25732 25609 25522 25491 25464 25474 25533 25568 25610 25636 25654 25699 25640 25538 25374 25362 25336 25416 25354 25341 25350 25443 25530 25509 25370 25153 25093 25073 25077 25103 25138 25171 25173 25175 25237 25143 24918 24844 24820 24847 24932 24967 25021 25092 25108 25162 25201 25179 25065 24978 24854 24814 24810 24867 24908 24943 24975 24988 25072 24863 24706 24686 24649 24689 24752 24817 24870 24900 24889 24891 24857 24689 24665 24660 24672 24731 24796 24824 24877 24927 24983 25044 25018 24850 24749 24699 24678 24725 24795 24875 24955 25005 25066 25067 24963 24885 24848 24855 24909 24953 24982 24996 25020 25069 25070 25032 24970 24915 24938 24944 24992 25071 25080 25159 25197 25260 25331 25211 25138 25115 25120 25207 25274 25332 25370 25444 25482 25554 25506 25436 25443 25442 25485 25525 25568 25616 25632 25663 25736 25686 25586 25524 25495 25491 25521 25561 25625 25675 25692 25764 25806 25709 25659 25611 25625 25662 25757 25822 25995 26281 26547 26579 26533 26490 26592 26623 26677 26675 26568 26463 26424 26372 26358 26345 26251 26128 26165 26246 26269 26191 26149 26134 26152 26224 26237 26146 26121 25979 25918 25846 25809 25796 25770 25747 25733 25691 25576 25451 25352 25300 25283 25269 25283 25288 25294 25299 25328 25213 25095 24966 24883 24871 24893 24924 24944 24972 25012 25024 24972 24800 24706 24658 24685 24781 24909 25003 25123 25199 25206 25216 25001 24814 24666 24560 24595 24739 24880 24956 24978 25018 25029 24905 24703 24528 24410 24404 24387 24421 24401 24391 24395 24424 24396 24158 23994 23870 23854 23871 23918 24004 24078 24099 24131 24103 24043 23952 23903 23924 23963 24077 24120 24100 24100 24080 24169 24171 24021 23903 23808 23855 23880 23915 24035 24109 24196 24296 24353 24396 24273 24120 24004 23954 24027 24114 24213 24286 24281 24392 24432 24272 24204 24072 24089 24116 24204 24277 24331 24387 24373 24326 24279 24304 24317 24304 24312 24312 24329 24342 24322 24385 24403 24534 24578 24536 24527 24507 24594 24618 24623 24658 24685 24741 24744 24770 24596 24395 24315 24249 24344 24351 24463 24582 24664 24740 24840 24875 24790 24644 24519 24533 24572 24675 24682 24712 24791 24885 24926 24824 24674 24633 24717 24773 24910 24995 25116 25190 25239 25266 25257 25190 25101 25073 25113 25142 25184 25356 25555 25671 25661 25663 25641 25490 25298 25296 25459 25636 25738 25718 25801 25781 25687 25589 25409 25238 25102 25023 24986 24946 24966 25000 25055 25074 25117 25050 24931 24851 24812 24821 24849 24883 24921 24949 24950 25006 25007 24840 24740 24715 24746 24859 24921 25019 25107 25247 25279 25317 25316 25184 25024 24914 24851 24848 24850 24853 24855 24874 24907 24865 24710 24595 24565 24579 24612 24611 24602 24677 24788 24978 25222 25238 25291 25329 25133 24991 24920 25012 25123 25176 25285 25246 25159 24955 24760 24674 24650 24616 24614 24551 24500 24440 24408 24211 23943 23773 23796 23833 23965 24097 24275 24337 24395 24449 24423 24228 24131 24091 24131 24178 24226 24272 24267 24300 24283 24354 24237 24050 23954 23972 24068 24198 24337 24421 24468 24485 24511 24458 24336 24233 24190 24099 24171 24201 24212 24266 24408 24455 24408 24209 24115 24109 24173 24308 24420 24414 24485 24513 24580 24652 24488 24342 24278 24175 24150 24076 24086 24082 24121 24161 24281 24155 24133 24137 24163 24171 24150 24247 24247 24325 24426 24477 24298 24026 23870 23731 23825 23904 24007 24175 24264 24335 24384 24265 24166 24044 24043 23998 23974 24012 24058 24096 24036 24181 24163 24072 24001 23927 23848 23871 23979 24171 24207 24287 24361 24293 24215 24245 24337 24440 24505 24505 24522 24571 24586 24622 24532 24409 24335 24238 24137 24026 24060 24176 24382 24472 24504 24381 24267 24256 24360 24468 24521 24513 24597 24650 24694 24733 24723 24582 24452 24286 24249 24211 24331 24332 24431 24460 24458 24454 24365 24375 24374 24475 24547 24676 24772 24823 24879 24961 24804 24694 24585 24531 24436 24364 24380 24456 24550 24626 24644 24516 24442 24405 24445 24539 24654 24693 24688 24709 24794 24776 24610 24526 24508 24588 24679 24720 24762 24774 24783 24858 24847 24691 24555 24551 24560 24630 24758 24846 24911 24928 25013 24946 24737 24672 24647 24648 24662 24861 24992 25027 25028 25046 24918 24646 24588 24576 24663 24753 24791 24838 24900 24947 25003 24813 24591 24479 24442 24497 24545 24588 24627 24658 24708 24785 24611 24387 24276 24288 24321 24390 24459 24490 24527 24565 24442 24275 24172 24124 24198 24234 24261 24298 24372 24396 24413 24224 24069 23975 23946 23915 23943 24034 24087 24211 24241 24333 24159 24065 24029 24093 24217 24315 24490 24582 24649 24651 24528 24367 24252 24260 24307 24367 24443 24514 24528 24511 24447 24231 24131 24209 24227 24293 24388 24492 24563 24676 24785 24759 24649 24559 24531 24540 24607 24654 24692 24819 24874 24953 24890 24751 24688 24622 24681 24755 24829 24927 24983 25052 25052 24862 24783 24784 24875 25023 25135 25223 25258 25257 25249 25199 25009 24888 24886 24908 25016 25083 25102 25121 25106 25165 25154 25114 25087 25180 25248 25294 25323 25307 25430 25526 25564 25475 25264 25127 25036 25013 25034 25105 25184 25223 25302 25341 25202 25015 24883 24922 25096 25227 25254 25309 25329 25293 25063 24750 24587 24681 24778 24936 25016 25049 25122 25155 25228 25070 24880 24840 24861 24922 24983 25020 25074 25115 25149 25154 24949 24736 24587 24574 24635 24692 24747 24806 24822 24929 25010 24772 24587 24666 24760 24825 24835 24845 24852 24885 24900 24853 24592 24323 24170 24220 24321 24445 24471 24535 24588 24655 24535 24347 24285 24256 24328 24442 24552 24622 24683 24763 24772 24583 24399 24333 24337 24398 24465 24528 24540 24559 24569 24443 24233 24073 24039 24103 24199 24338 24463 24589 24681 24751 24697 24479 24330 24300 24337 24341 24432 24517 24559 24571 24502 24315 24112 24067 24129 24188 24209 24249 24301 24394 24529 24623 24543 24476 24451 24446 24483 24580 24648 24729 24768 24853 24885 24715 24628 24584 24574 24668 24722 24747 24797 24858 24945 24856 24667 24619 24583 24632 24699 24742 24847 24896 24966 25016 24907 24767 24618 24602 24637 24712 24764 24763 24676 24598 24556 24355 24285 24283 24316 24357 24460 24540 24679 24811 24919 24860 24692 24622 24636 24672 24720 24847 24941 25019 25121 25178 25065 24847 24703 24646 24607 24754 24768 24802 24725 24737 24770 24601 24551 24594 24684 24818 24940 25028 25088 25158 25163 25043 24807 24696 24649 24639 24737 24773 24826 24874 24939 24987 24839 24657 24573 24541 24596 24651 24718 24745 24790 24789 24760 24460 24256 24179 24167 24214 24331 24488 24592 24664 24712 24570 24259 24014 23964 23935 23962 24033 24082 24136 24117 24146 23912 23749 23683 23748 23873 23934 24052 24141 24312 24440 24504 24237 24049 23935 24002 24080 24165 24208 24310 24349 24486 24357 24206 24089 24136 24222 24392 24470 24532 24579 24598 24638 24479 24393 24356 24488 24610 24665 24825 24969 25018 25056 25053 24800 24731 24747 24683 24773 24747 24748 24739 24772 24792 24695 24550 24448 24465 24512 24605 24670 24711 24765 24782 24758 24535 24370 24315 24353 24433 24541 24620 24673 24730 24781 24763 24600 24487 24469 24502 24550 24590 24640 24796 24975 25201 25272 25032 24727 24638 24702 24908 25118 25224 25335 25377 25350 25133 24949 24761 24636 24565 24577 24583 24655 24704 24850 24885 24714 24665 24656 24740 24768 24811 24893 24899 24859 25038 25073 24896 24732 24569 24412 24332 24422 24487 24543 24604 24645 24560 24442 24447 24541 24620 24719 24775 24886 24932 24974 24989 24820 24612 24532 24567 24603 24658 24684 24709 24642 24565 24445 24180 24069 23997 24043 24182 24290 24404 24495 24644 24774 24747 24563 24447 24350 24319 24341 24381 24361 24485 24512 24519 24302 24111 24069 23943 23851 23866 23926 24023 24175 24299 24348 24111 24021 24040 24157 24242 24286 24304 24315 24385 24404 24345 24027 23907 23868 23892 23948 23950 23918 23817 23677 23658 23390 23305 23318 23429 23485 23545 23730 23866 23946 24005 24008 23875 23827 23838 23883 24029 24114 24180 24256 24306 24343 24296 24038 23917 23854 23790 23807 23844 23845 23934 23981 24118 24048 24004 24027 24122 24252 24365 24396 24460 24537 24592 24578 24389 24271 24233 24272 24409 24506 24598 24628 24651 24639 24519 24322 24325 24405 24514 24656 24782 24874 24961 25056 25176 25056 24978 24944 24916 24909 24981 25005 25036 25089 25101 25041 24827 24661 24615 24572 24575 24566 24651 24730 24812 24890 24718 24551 24593 24679 24828 24936 25045 25144 25232 25280 25264 25049 24913 24842 24830 24899 24880 24940 24929 24822 24796 24548 24331 24193 24263 24427 24565 24643 24735 24846 24958 24975 24782 24719 24751 24787 24863 24911 24949 24995 25010 25029 24876 24598 24493 24495 24494 24499 24450 24533 24576 24615 24650 24461 24419 24432 24479 24490 24542 24586 24653 24665 24739 24703 24391 24243 24278 24348 24511 24618 24635 24626 24583 24451 24230 24044 23920 24048 24070 24113 24184 24242 24307 24435 24371 24151 24172 24151 24243 24285 24343 24378 24371 24432 24429 24406 24291 24223 24267 24272 24294 24350 24347 24429 24420 24376 24172 24154 24148 24180 24206 24338 24417 24545 24633 24709 24517 24356 24253 24277 24309 24389 24439 24551 24614 24669 24591 24256 24033 24001 24043 24105 24258 24381 24453 24579 24718 24613 24497 24414 24397 24493 24571 24567 24611 24570 24564 24540 24414 24251 24255 24280 24314 24314 24386 24464 24452 24446 24288 24097 24078 24136 24273 24490 24668 24817 24927 24999 25030 24856 24754 24740 24705 24793 24777 24789 24859 24876 24912 24903 24719 24622 24662 24828 24998 25138 25297 25441 25546 25646 25399 25236 25080 25018 25109 25279 25575 25864 26067 26241 26347 26296 26281 26347 26432 26505 26578 26633 26718 26783 26850 26785 26551 26408 26338 26262 26203 26146 26064 26037 26009 25882 25557 25270 25061 25086 25177 25292 25400 25506 25521 25531 25258 24961 24759 24635 24652 24652 24608 24593 24487 24457 24281 24093 23966 23871 23822 23771 23834 24036 24135 24309 24400 24176 23988 23900 23961 24075 24142 24277 24328 24391 24442 24377 24109 23957 23858 23856 23912 24040 24317 24459 24573 24687 24522 24338 24176 24151 24286 24285 24464 24368 24355 24331 24289 24013 23855 23807 23839 23879 23928 23965 24019 24069 24118 23967 23789 23706 23718 23809 23901 23995 24084 24147 24205 24236 24050 23900 23855 23906 23986 24106 24231 24260 24365 24530 24554 24322 24220 24124 24144 24192 24247 24284 24351 24423 24423 24267 24154 24125 24163 24229 24316 24366 24437 24499 24562 24479 24337 24265 24280 24335 24442 24532 24620 24686 24743 24752 24585 24456 24406 24437 24482 24556 24598 24665 24707 24748 24767 24970 24821 24753 24786 24773 24760 24792 24829 24846 24845 24683 24599 24584 24607 24671 24715 24765 24776 24797 24802 24691 24527 24453 24476 24536 24619 24702 24741 24797 24824 24829 24684 24586 24568 24608 24647 24702 24745 24794 24842 24967 25121 25138 25071 24974 24998 25055 25076 25195 25227 25261 25296 25200 24949 24766 24669 24701 24702 24677 24642 24607 24577 24536 24401 24405 24409 24507 24585 24670 24721 24758 24836 24937 24786 24526 24484 24543 24588 24630 24692 24709 24819 24850 24887 24631 24447 24389 24496 24554 24620 24699 24740 24789 24866 24741 24512 24393 24416 24491 24569 24616 24614 24649 24714 24712 24418 24224 24168 24218 24278 24357 24363 24383 24398 24416 24325 24126 24031 23993 24041 24169 24333 24486 24550 24646 24708 24449 24242 24218 24286 24383 24449 24489 24525 24564 24564 24439 24282 24239 24216 24323 24382 24448 24465 24476 24401 24265 23980 23858 23909 24028 24224 24387 24512 24586 24686 24810 24795 24543 24380 24331 24301 24355 24481 24549 24520 24466 24395 24191 24160 24166 24211 24326 24369 24564 24624 24722 24818 24635 24523 24485 24532 24670 24815 24907 24981 25001 25076 25076 24872 24788 24721 24811 24871 24966 25114 25232 25296 25327 25171 25106 25103 25115 25288 25483 25426 25355 25333 25196 25030 25122 25201 25150 25126 25244 25299 25064 24933 24943 25022 24936 24787 24679 24690 24953 25038 25112 25186 25207 25172 25093 24890 24764 24749 24818 24874 24958 24996 25027 25076 25044 24862 24747 24718 24758 24817 24902 24952 25026 25080 25106 24948 24810 24758 24757 24817 24899 24986 25053 25077 25125 25062 24869 24734 24728 24754 24845 24885 24937 24961 24983 24926 24727 24578 24511 24535 24601 24690 24764 24840 24913 24978 24847 24651 24588 24593 24659 24732 24819 24876 24938 24966 24931 24718 24546 24484 24497 24558 24623 24658 24697 24731 24716 24520 24424 24400 24425 24470 24516 24527 24523 24530 24513 24360 24264 24259 24306 24361 24417 24493 24526 24565 24574 24542 24359 24260 24246 24287 24404 24544 24632 24693 24762 24757 24522 24331 24258 24301 24439 24755 24988 25093 25108 25147 24913 24749 24725 24769 24813 24831 24855 24863 24798 24786 24755 24708 24831 25020 25349 25676 25925 25996 26074 26266 26415 26295 26006 25682 25456 25369 25423 25416 25404 25356 25315 25066 24885 24806 24726 24726 24705 24745 24736 24686 24661 24546 24453 24353 24353 24466 24644 24786 24798 24859 24900 24949 24799 24745 24730 24813 24897 24953 24952 24984 24985 24940 24787 24538 24361 24268 24230 24175 24279 24360 24343 24397 24353 24181 24264 24328 24478 24523 24479 24572 24648 24636 24641 24305 24250 24223 24235 24302 24361 24469 24443 24442 24416 24260 24100 24072 24173 24269 24349 24526 24586 24683 24869 24922 24781 24712 24681 24756 24741 25000 25077 25122 25161 25247 25008 24742 24710 24717 24753 24783 24877 24875 24914 25000 24852 24732 24706 24772 24845 24940 25025 25118 25148 25202 25214 25011 24875 24889 24910 24966 25005 25021 25012 25106 25120 24939 24775 24717 24770 24875 25018 25146 25243 25313 25395 25275 25129 25052 25019 25064 25103 25116 25135 25151 25201 25104 24768 24539 24352 24367 24406 24499 24615 24657 24782 24800 24712 24660 24629 24730 24844 24980 25062 25132 25204 25219 25001 24818 24721 24658 24687 24755 24761 24805 24828 24878 24746 24641 24604 24603 24730 24906 25034 25125 25237 25314 25249 24985 24859 24824 24870 24966 25034 25125 25197 25162 25000 24736 24608 24597 24611 24650 24897 25062 25149 25326 25355 25100 25104 24964 24917 25045 25147 25210 25199 25299 25370 25295 25066 24886 24885 24880 24921 24965 25062 25181 25249 25244 25035 24875 24870 24965 25071 25084 25119 25228 25321 25321 25158 25069 25014 24959 24980 24976 25052 25043 25035 24940 24780 24732 24757 24822 24968 25131 25266 25407 25484 25533 25431 25263 25152 25039 24951 24976 25145 25224 25290 25241 25054 24896 24932 24976 25134 25272 25390 25469 25544 25610 25574 25368 25248 25208 25279 25284 25328 25372 25378 25360 25396 25276 25174 25181 25201 25246 25276 25315 25348 25387 25391 25330 25235 25261 25307 25374 25473 25554 25636 25696 25757 25642 25388 25251 25399 25456 25383 25630 25769 25846 25964 25878 25588 25534 25476 25468 25570 25681 25675 25717 25795 25786 25551 25418 25383 25432 25504 25563 25578 25602 25640 25634 25418 25308 25257 25282 25355 25416 25482 25547 25562 25590 25397 25265 25236 25268 25310 25407 25495 25575 25644 25630 25382 25136 25079 25141 25275 25315 25352 25323 25334 25420 25309 25081 24994 24926 25041 25082 25110 25174 25312 25395 25363 25218 25143 25138 25262 25375 25479 25523 25612 25701 25739 25566 25448 25519 25843 26146 26310 26396 26370 26320 26218 25829 25422 25213 25020 24905 24854 24896 24977 25028 25055 24875 24688 24727 24727 24869 24894 24946 24956 25000 25012 24915 24666 24570 24576 24671 24803 24894 24910 24958 25007 25059 24872 24688 24687 24706 24739 24811 24857 24932 24924 24955 24804 24572 24559 24543 24576 24605 24663 24727 24745 24733 24559 24405 24426 24472 24540 24538 24591 24637 24682 24784 24818 24622 24479 24369 24478 24566 24605 24585 24610 24617 24740 24540 24303 24275 24438 24593 24760 24779 24779 24760 24771 24708 24676 24613 24655 24571 24597 24762 24813 24788 24825 24894 24740 24618 24583 24636 24772 24852 24892 24894 24895 24919 24868 24852 24897 24968 24984 25022 25098 25166 25188 25184 25147 24990 24940 24989 25085 25202 25310 25434 25489 25576 25581 25349 25163 25109 25133 25089 25111 25023 25041 25103 25132 24985 24849 24811 24812 24888 24998 25114 25230 25302 25237 25167 24939 24867 24848 24947 24955 25068 25075 25150 25187 25245 25179 25124 25021 24994 25052 25045 25158 25220 25349 25383 25361 25249 25157 25161 25199 25265 25344 25370 25352 25273 25238 25026 24936 24934 24967 25094 25208 25307 25336 25340 25262 25007 24973 24930 24931 24979 25069 25131 25196 25213 25263 25285 25161 25132 25100 25116 25154 25224 25303 25305 25344 25375 25293 25149 25048 24935 24913 24864 24853 24935 24960 24971 24940 24763 24663 24615 24602 24596 24653 24695 24748 24794 24903 24774 24800 24791 24818 24883 24866 24937 24920 24865 24851 24757 24637 24627 24725 24761 24856 24912 24926 24884 24935 25023 24865 24841 24847 24913 25004 25079 25082 25126 25232 25257 25156 24884 24777 24766 24813 24863 24895 24819 24795 24927 24914 24756 24715 24827 24914 24941 24944 25050 25224 25308 25381 25188 25009 24971 25064 25205 25264 25326 25377 25432 25479 25526 25675 25838 25892 26008 26060 26191 26099 26161 26311 26423 26402 26328 26251 26236 26274 25996 25852 25840 25875 25894 25831 25678 25609 25581 25628 25656 25700 25730 25790 25837 25829 25673 25571 25569 25589 25636 25652 25721 25747 25811 25840 25676 25550 25475 25484 25521 25564 25605 25662 25696 25743 25556 25360 25324 25413 25471 25572 25589 25639 25669 25671 25557 25333 25263 25282 25328 25365 25378 25355 25372 25386 25385 25131 24916 24845 24834 24952 24981 24988 24930 24918 24840 24640 24491 24266 24279 24359 24426 24361 24325 24196 24308 24063 23799 23679 23568 23788 24034 24200 24261 24450 24543 24631 24453 24327 24278 24218 24175 24176 24274 24294 24319 24363 24181 24045 24125 24096 24140 24225 24321 24368 24362 24438 24282 24186 24043 24009 23986 23984 24073 24037 24033 23979 24054 23877 23873 23924 24026 24128 24216 24315 24351 24360 24331 24102 23902 23908 24007 24112 24181 24143 24174 24249 24274 24223 24133 24008 24089 24108 24273 24303 24482 24443 24430 24419 24254 24134 24099 24137 24128 24204 24310 24303 24374 24346 24157 24098 24057 24233 24255 24377 24387 24481 24482 24464 24372 24290 24221 24195 24177 24331 24322 24407 24372 24383 24477 24369 24300 24290 24359 24343 24397 24412 24400 24314 24362 24148 24077 24055 24081 24123 24194 24331 24332 24397 24530 24501 24421 24373 24268 24441 24432 24470 24551 24558 24662 24643 24511 24429 24392 24430 24446 24493 24547 24578 24774 24809 24711 24568 24502 24552 24658 24613 24674 24650 24754 24775 24782 24725 24761 24810 24787 24787 24800 24867 24896 24944 24953 24832 24653 24568 24530 24596 24570 24680 24655 24660 24771 24700 24609 24552 24605 24584 24720 24769 24875 24815 24761 24728 24624 24464 24402 24314 24265 24238 24244 24365 24446 24522 24526 24401 24314 24281 24459 24463 24605 24608 24609 24618 24701 24490 24401 24322 24303 24359 24345 24337 24371 24444 24401 24253 24166 24011 24206 24300 24312 24280 24316 24347 24284 24410 24234 24079 24010 24163 24092 24181 24192 24233 24279 24270 24256 24052 24114 24144 24196 24163 24262 24374 24388 24370 24407 24238 24109 24194 24223 24237 24342 24358 24362 24449 24494 24417 24382 24394 24351 24476 24492 24517 24653 24704 24677 24671 24515 24391 24381 24436 24434 24539 24571 24589 24595 24549 24475 24463 24519 24558 24600 24669 24682 24786 24839 24854 24821 24730 24645 24628 24648 24700 24713 24727 24840 24865 24894 24745 24756 24775 24803 24881 25049 25154 25220 25344 25359 25264 25053 24941 24864 24797 24755 24895 24873 24999 25077 25200 25216 25236 25202 25224 25266 25268 25423 25502 25554 25555 25465 25199 25161 25092 25160 25284 25301 25377 25386 25398 25346 25153 25003 25102 25150 25193 25173 25186 25130 25058 25101 25049 24939 24936 24925 24917 24930 25006 25135 25178 25217 25196 25156 24961 24888 24782 24906 24954 25048 25058 25099 25179 25251 25062 25056 25058 25094 25229 25280 25359 25369 25390 25403 25299 25057 24897 24786 24721 24797 24831 24824 24832 24812 24710 24692 24604 24703 24713 24696 24628 24700 24715 24751 24762 24745 24598 24520 24428 24686 24745 24837 24937 24928 24979 25018 24949 24919 24895 24888 24883 24884 24830 24856 24879 24824 24865 24737 24724 24801 24888 24959 24978 25042 25031 25197 25257 25185 25004 24889 24922 24931 25046 25002 25021 25035 25090 25073 24952 24878 24995 24980 25006 25048 25166 25188 25256 25276 25364 25304 25164 25118 25087 25122 25162 25169 25123 25121 25155 25106 24982 24908 24946 24932 25010 25035 25095 25172 25257 25333 25237 25196 25135 25099 25192 25244 25193 25374 25504 25631 25704 25739 25965 26220 26504 26528 26649 26763 26962 27039 27056 26916 26815 26803 26707 26658 26590 26546 26523 26541 26509 26506 26352 26196 26169 26197 26205 26199 26189 26187 26206 26267 26216 26026 25926 25863 25814 25780 25763 25845 25913 25992 26180 26296 26383 26190 26057 26358 26437 26509 26548 26596 26659 26663 26490 26228 26027 25895 25776 25721 25678 25652 25640 25628 25459 25203 24957 24826 24805 24827 24903 24991 24990 25045 25082 24820 24602 24497 24506 24599 24663 24719 24764 24844 24857 24835 24608 24473 24426 24448 24574 24681 24702 24716 24699 24662 24490 24325 24224 24284 24357 24543 24700 24744 24803 24840 24811 24607 24463 24415 24507 24568 24693 24736 24840 24968 25016 24883 24773 24730 24775 24819 24911 24999 25064 25116 25172 25084 24918 24807 24880 24903 25019 25134 25190 25277 25349 25378 25308 25187 25139 25118 25106 25112 25097 25047 25043 25041 25077 24915 24843 24892 24891 25082 25171 25245 25383 25431 25506 25447 25376 25352 25383 25395 25412 25405 25369 25384 25396 25389 25295 25186 25160 25195 25230 25330 25353 25345 25356 25330 25258 25100 25036 25016 25049 25054 25129 25174 25283 25374 25448 25447 25459 25507 25517 25566 25592 25645 25657 25664 25644 25516 25421 25332 25327 25296 25277 25257 25249 25266 25328 25283 25204 25103 25053 25142 25269 25431 25494 25586 25651 25685 25631 25592 25612 25695 25740 25782 25830 25866 25918 25991 25970 25845 25778 25773 25735 25735 25710 25703 25696 25711 25653 25547 25480 25423 25430 25515 25608 25691 25777 25811 25818 25726 25611 25593 25598 25596 25613 25657 25738 25762 25823 25827 25780 25706 25679 25677 25721 25790 25825 25817 25811 25850 25815 25706 25660 25641 25688 25677 25746 25717 25703 25736 25704 25552 25497 25453 25500 25522 25580 25638 25673 25683 25738 25736 25633 25589 25569 25546 25554 25571 25546 25511 25555 25521 25357 25381 25332 25379 25435 25513 25596 25684 25758 25804 25754 25653 25667 25653 25677 25696 25679 25699 25718 25726 25661 25581 25508 25542 25583 25637 25695 25751 25804 25862 25944 25868 25739 25664 25588 25547 25509 25497 25508 25479 25497 25382 25298 25296 25305 25333 25330 25430 25511 25610 25678 25706 25545 25367 25224 25167 25201 25239 25348 25454 25543 25602 25554 25390 25264 25161 25193 25261 25263 25268 25333 25387 25379 25177 25057 25031 25104 25192 25252 25272 25281 25380 25472 25381 25308 25297 25302 25337 25419 25445 25410 25518 25536 25548 25433 25374 25404 25494 25535 25577 25633 25642 25772 25875 25812 25683 25645 25640 25661 25757 25826 25858 25917 25957 25954 25830 25736 25697 25735 25782 25813 25834 25835 25863 25930 25877 25806 25751 25745 25781 25743 25733 25706 25771 25754 25787 25749 25701 25790 25856 25940 26047 26120 26165 26162 26203 26201 26122 26054 26010 25994 25948 25962 25927 25944 26036 26063 25998 25900 25868 25946 26027 26071 26108 26077 26090 26063 26055 25850 25648 25530 25437 25438 25464 25517 25486 25521 25486 25321 25270 25170 25096 25214 25262 25336 25388 25398 25372 25329 25125 24981 24971 24911 25027 25048 25144 25158 25143 25159 25134 24853 24635 24511 24430 24413 24434 24446 24452 24421 24351 24231 24096 24194 24268 24329 24330 24373 24402 24402 24492 24316 24194 24211 24251 24339 24401 24411 24410 24363 24379 24411 24296 24203 24197 24297 24267 24358 24453 24564 24583 24598 24499 24462 24423 24462 24462 24529 24547 24605 24617 24755 24763 24682 24589 24623 24675 24792 24866 24937 25061 25133 25241 25182 25070 24984 25090 25129 25168 25178 25116 25100 25076 25084 24976 25049 25057 25183 25275 25410 25548 25630 25703 25707 25643 25570 25508 25507 25499 25514 25490 25502 25494 25517 25475 25469 25419 25438 25505 25552 25596 25630 25683 25716 25774 25687 25631 25593 25580 25581 25601 25602 25584 25549 25517 25439 25349 25340 25343 25424 25521 25563 25598 25603 25571 25597 25480 25365 25334 25388 25410 25581 25624 25616 25588 25619 25569 25515 25419 25419 25431 25536 25572 25643 25638 25619 25635 25525 25413 25349 25364 25351 25371 25355 25386 25429 25456 25484 25421 25391 25392 25406 25511 25558 25596 25590 25563 25494 25334 25240 25219 25214 25195 25223 25309 25528 25835 26075 26128 26067 26011 25979 26002 26044 26092 26125 26138 26174 26155 25996 25883 25868 25869 25880 25911 25946 26009 26040 26012 25942 25770 25639 25601 25591 25604 25633 25670 25682 25676 25650 25392 25180 25092 25036 25074 25091 25164 25301 25492 25769 25955 26026 25926 25892 25842 25777 25692 25630 25601 25582 25559 25320 25070 24878 24732 24677 24659 24580 24595 24574 24713 24780 24754 24719 24761 24777 24783 24734 24719 24773 24786 24830 24692 24463 24253 24260 24203 24262 24378 24434 24535 24556 24628 24496 24407 24319 24375 24456 24579 24637 24733 24851 24976 25020 24871 24781 24737 24768 24839 24981 25060 25077 25084 25138 24989 24843 24793 24735 24762 24915 24986 25121 25158 25274 25311 25270 25132 25191 25165 25214 25178 25199 25214 25235 25195 25234 25082 25026 25006 25070 25137 25222 25283 25304 25328 25365 25337 25267 25246 25195 25096 25136 25178 25224 25327 25394 25429 25471 25398 25336 25301 25290 25305 25388 25421 25443 25447 25542 25507 25459 25420 25414 25503 25499 25566 25578 25570 25633 25638 25506 25382 25240 25178 25094 25072 25123 25257 25411 25452 25394 25233 25134 25129 25091 25139 25191 25239 25273 25378 25467 25456 25368 25376 25319 25318 25371 25409 25445 25509 25557 25573 25415 25318 25242 25255 25232 25283 25366 25385 25392 25426 25399 25245 25076 25064 25047 25110 25150 25192 25199 25288 25338 25227 25030 24930 24900 24955 25045 25095 25117 25145 25166 25257 25175 25102 25053 25035 25068 25094 25139 25123 25102 25204 25122 25073 25009 24970 24954 25032 25106 25126 25088 25087 25087 25024 24996 24954 25026 25042 25117 25176 25229 25258 25249 25195 25100 25113 25098 25123 25095 25061 25240 25319 25384 25372 25310 25172 25079 25079 25091 25117 25121 25147 25208 25192 25223 25108 25015 25010 25061 25097 25168 25278 25330 25388 25427 25371 25144 25107 25055 25057 25030 25060 25084 25094 25190 25268 25146 25021 25065 25006 25135 25171 25329 25352 25417 25449 25309 25111 25046 25026 25104 25117 25249 25306 25422 25449 25509 25355 25208 25089 25155 25211 25181 25116 25142 25156 25217 25239 25156 25118 25148 25217 25351 25463 25518 25611 25677 25711 25620 25447 25350 25268 25369 25365 25453 25460 25536 25665 25720 25582 25500 25470 25495 25568 25644 25665 25679 25733 25725 25651 25492 25449 25353 25413 25478 25551 25647 25733 25777 25824 25708 25630 25576 25565 25557 25541 25610 25682 25723 25753 25679 25498 25344 25282 25275 25309 25344 25359 25474 25519 25597 25547 25403 25280 25266 25265 25284 25323 25390 25378 25428 25453 25339 25213 25191 25190 25164 25207 25199 25219 25195 25250 25284 25113 25030 24957 25019 25048 25098 25134 25141 25146 25227 25202 25138 25189 25172 25277 25307 25341 25375 25393 25452 25478 25471 25365 25309 25286 25324 25384 25396 25447 25506 25559 25582 25587 25563 25505 25485 25467 25514 25506 25601 25605 25682 25680 25613 25514 25494 25434 25443 25495 25487 25566 25578 25610 25666 25592 25579 25541 25553 25545 25530 25584 25607 25600 25607 25636 25600 25651 25674 25798 25840 25865 25883 25904 25944 25936 25951 25874 25776 25695 25672 25619 25599 25600 25663 25687 25636 25578 25469 25424 25477 25533 25576 25562 25588 25631 25749 25813 25839 25734 25694 25672 25664 25691 25692 25716 25714 25715 25761 25771 25582 25455 25305 25274 25263 25276 25305 25272 25231 25281 25323 25203 25114 25140 25166 25188 25278 25290 25354 25353 25355 25207 25005 24804 24762 24761 24800 24874 24912 24911 24912 24941 24804 24571 24509 24506 24501 24587 24597 24670 24763 24831 24861 24713 24533 24497 24390 24386 24582 24708 24804 24885 24918 24955 24901 24710 24606 24649 24680 24713 24776 24813 24900 24876 24842 24806 24719 24756 24804 24833 24919 25011 25153 25220 25291 25350 25354 25196 25091 25069 25063 25087 25122 25114 25127 25095 25107 25162 25007 25017 24907 24921 24937 24974 25051 25096 25118 25138 25131 25134 25165 25190 25282 25363 25440 25485 25519 25517 25527 25534 25436 25384 25439 25453 25569 25644 25702 25730 25741 25728 25658 25513 25415 25380 25341 25388 25467 25548 25676 25779 25854 25845 25723 25616 25550 25535 25487 25593 25587 25643 25727 25769 25740 25524 25388 25298 25314 25316 25440 25484 25521 25613 25727 25684 25622 25511 25496 25474 25430 25472 25434 25429 25420 25412 25256 25077 24982 24847 24976 24974 25028 25051 25010 25121 25081 25045 24990 24945 24991 25062 25110 25087 25019 24982 24939 24742 24539 24342 24399 24432 24484 24530 24580 24563 24555 24581 24347 24391 24345 24404 24483 24602 24606 24606 24671 24709 24661 24534 24485 24399 24407 24420 24558 24620 24674 24675 24666 24525 24382 24302 24240 24333 24356 24406 24434 24491 24547 24505 24404 24314 24223 24293 24306 24333 24331 24408 24477 24477 24394 24233 24164 24174 24190 24299 24529 24682 24862 25008 25033 24994 24891 24817 24845 24912 24941 24953 24959 25013 25004 24956 24772 24635 24620 24655 24646 24681 24704 24858 24979 25098 25109 25035 25002 24999 25054 25038 25088 25094 25139 25139 25132 25084 24949 24930 24901 24960 24992 24945 24965 24973 24999 25084 25135 25134 25217 25202 25245 25262 25280 25310 25315 25320 25259 25106 25123 25108 25176 25187 25231 25289 25318 25352 25308 25189 25021 24957 24969 25071 25124 25192 25236 25267 25281 25278 25194 25073 25038 24987 25044 25012 25029 25061 25088 25153 25116 24951 24815 24775 24791 24835 24842 24915 24956 25077 25179 25108 24921 24828 24765 24727 24756 24697 24651 24579 24602 24577 24494 24293 24344 24327 24388 24445 24491 24500 24521 24573 24657 24634 24550 24594 24578 24681 24777 24753 24865 24851 24758 24661 24460 24256 24127 24111 24174 24117 24230 24296 24319 24349 24197 24285 24181 24093 24187 24264 24383 24468 24652 24689 24764 24606 24549 24533 24587 24622 24763 24843 24899 24942 24996 25020 24892 24821 24859 24877 24860 24856 24912 25024 25131 25177 25092 24924 24916 24943 24984 25005 25033 25078 25095 25154 25159 25007 24844 24843 24852 24899 24936 25005 25128 25136 25190 25173 25069 25085 25130 25267 25374 25416 25392 25368 25302 25358 25304 25222 25176 25146 25228 25280 25312 25316 25313 25310 25337 25313 25350 25314 25251 25337 25465 25564 25697 25781 25796 25779 25653 25634 25529 25519 25489 25490 25494 25513 25528 25545 25603 25497 25561 25563 25605 25613 25657 25658 25675 25753 25776 25816 25719 25634 25572 25614 25602 25672 25672 25649 25667 25653 25553 25381 25252 25187 25124 25277 25300 25333 25319 25381 25461 25464 25396 25286 25248 25184 25205 25170 25133 25083 25096 25123 25061 24934 24904 24910 24965 25027 25049 25102 25117 25185 25181 25138 25056 25004 24923 24874 24817 24819 24808 24766 24782 24807 24827 24652 24596 24561 24511 24543 24636 24592 24587 24627 24710 24700 24615 24652 24686 24798 24808 24814 24801 24824 24821 24838 24787 24718 24701 24696 24646 24656 24701 24679 24758 24789 24778 24688 24624 24633 24614 24600 24664 24650 24608 24597 24576 24593 24598 24595 24581 24695 24755 24813 24855 24884 24909 24995 25005 24985 24827 24879 24941 24926 24915 24967 25070 25107 25192 25215 25072 24889 24823 24762 24729 24692 24743 24857 24889 24992 25038 24949 24883 24795 24700 24741 24758 24855 24935 25005 25099 25083 25040 24957 24960 25019 25126 25214 25242 25273 25272 25339 25293 25101 25037 25020 25043 25100 25090 25153 25165 25219 25321 25286 25406 25722 25696 25754 25809 25933 25934 25989 26110 26145 26025 25983 25707 25588 25578 25586 25575 25593 25620 25670 25693 25601 25516 25452 25425 25464 25487 25535 25558 25593 25626 25564 25444 25382 25386 25432 25506 25582 25665 25748 25844 26086 26007 25940 25840 25766 25708 25745 25750 25755 25809 25844 25920 25903 25822 25764 25751 25787 25829 25867 25893 25917 25945 25956 25823 25690 25624 25595 25606 25631 25690 25734 25772 25829 25855 25768 25709 25703 25696 25683 25689 25758 25928 26063 26129 26135 25995 25885 25903 25922 25990 26014 26023 25981 25959 25929 25832 25656 25532 25401 25440 25453 25461 25421 25483 25475 25421 25306 25176 25130 25076 25056 25048 24998 24963 24972 24948 24984 24860 24721 24737 24714 24725 24730 24811 24817 24948 25041 25097 25022 24969 24944 24910 24953 24952 24954 25052 25076 25140 25099 24928 24753 24751 24732 24812 24810 24900 24942 24998 25031 24915 24786 24681 24675 24608 24632 24675 24707 24663 24676 24666 24443 24314 24216 24186 24240 24361 24356 24374 24391 24491 24513 24392 24355 24379 24399 24458 24545 24590 24582 24531 24514 24441 24167 24031 24029 24044 24219 24283 24314 24338 24381 24396 24346 24257 24165 24228 24354 24509 24526 24550 24570 24623 24664 24485 24302 24181 24169 24341 24369 24453 24440 24477 24540 24575 24574 24611 24657 24746 24809 24813 24794 24844 24854 24876 24805 24705 24563 24658 24619 24686 24801 24944 24951 24978 25031 24973 24924 25004 25015 25058 25043 25009 24989 24937 24937 24887 24742 24709 24627 24640 24698 24795 24818 24850 24858 24912 24895 24810 24773 24844 24860 24990 24982 24984 24984 25071 25039 25046 24929 24830 24761 24781 24843 24864 24851 24959 25026 25048 24942 24942 24859 24844 24881 25066 25115 25141 25194 25175 25260 25210 25213 25165 25137 25111 25185 25184 25197 25165 25117 25124 25025 25064 25025 25010 25052 25029 25106 25140 25118 25112 25052 24915 24833 24819 24821 24862 24875 24920 24878 24896 24937 24849 24704 24705 24675 24766 24855 24931 24920 24955 24973 24945 24843 24784 24804 24764 24746 24760 24792 24811 24886 24888 24851 24707 24573 24661 24685 24729 24734 24751 24739 24782 24793 24749 24661 24562 24726 24841 24880 24932 24919 24873 24820 24793 24704 24543 24399 24377 24464 24477 24491 24571 24596 24714 24739 24618 24628 24634 24651 24756 24812 24891 24943 25054 25126 25089 24979 24892 24927 24876 24913 24906 24884 24932 24982 24977 24923 24841 24792 24778 24773 24821 24825 24832 24870 24905 24915 24833 24892 24918 24974 25075 25063 25122 25128 25133 25140 25179 25089 25030 25068 25087 25088 25188 25260 25294 25328 25380 25403 25324 25286 25289 25306 25313 25402 25464 25521 25551 25562 25479 25440 25374 25351 25334 25297 25234 25272 25274 25336 25336 25252 25158 25063 25055 25088 25128 25136 25183 25207 25296 25357 25250 25213 25116 25119 25125 25129 25105 25073 25068 25098 25060 24921 24895 24959 25017 25046 25072 25055 25087 25182 25202 25208 25180 25524 25849 25983 25979 26026 26028 26061 26197 26198 26117 26024 25812 25763 25723 25731 25748 25742 25755 25769 25789 25693 25594 25534 25529 25552 25587 25618 25653 25686 25723 25734 25626 25572 25547 25562 25625 25701 25826 25883 26012 26180 26305 26347 26378 26490 26538 26613 26768 26806 26858 26928 26910 26801 26642 26705 26813 26822 26877 26920 26932 26949 27021 27074 27007 26943 26874 26813 26791 26798 26844 26881 26866 26858 26795 26657 26524 26428 26363 26311 26279 26248 26181 26184 26183 26011 25827 25741 25644 25623 25602 25643 25697 25767 25777 25765 25572 25419 25320 25278 25231 25234 25224 25198 25220 25207 25197 24955 24812 24749 24800 24852 24945 25032 25035 25111 25130 25008 24841 24696 24678 24617 24599 24616 24618 24667 24753 24758 24610 24414 24271 24331 24349 24469 24463 24555 24617 24571 24568 24346 24219 24173 24171 24247 24308 24328 24366 24393 24478 24426 24307 24198 24216 24244 24283 24281 24239 24226 24274 24329 24202 24108 24239 24393 24721 24994 25241 25424 25525 25549 25517 25343 25276 25328 25349 25421 25453 25492 25499 25478 25461 25410 25250 25065 24945 24877 24792 24743 24714 24730 24804 24834 24871 24752 24598 24543 24522 24637 24715 24868 24956 24993 25004 24897 24811 24731 24756 24709 24683 24695 24719 24682 24679 24649 24619 24587 24607 24660 24729 24727 24703 24677 24807 24827 24889 24891 24918 24939 24973 25055 25153 25225 25280 25294 25294 25276 25140 25065 24981 24950 24939 24916 25005 25170 25407 25684 25987 26104 26156 26300 26599 26846 26901 26981 26882 26879 26820 26598 26438 26316 26222 26189 26153 26142 26158 26270 26403 26526 26454 26331 26253 26199 26170 26141 26106 26083 26053 26018 25982 25755 25579 25502 25467 25482 25500 25486 25520 25508 25503 25464 25241 25022 24910 24863 24864 24873 24882 24877 24874 24887 24765 24529 24420 24424 24507 24574 24639 24703 24740 24773 24814 24686 24548 24565 24630 24676 24714 24744 24751 24819 24820 24867 24739 24528 24421 24406 24443 24477 24534 24577 24662 24758 24770 24670 24455 24471 24538 24679 24793 24881 24983 25031 25144 25176 25084 24958 24929 24973 25061 25096 25114 25110 25164 25188 25185 25050 24855 24779 24771 24820 24876 24951 25009 25045 25073 25093 24979 24901 24899 24908 24880 24862 24822 24804 24803 24806 24839 24821 24826 24891 25034 25201 25350 25511 25637 25771 25880 25954 25902 25824 25806 25816 25853 25875 25882 25904 25924 25918 25894 25778 25685 25637 25634 25658 25676 25703 25749 25841 25894 25955 25902 25867 25846 25841 25844 25905 25977 26041 26084 26065 26067 25983 25895 25805 25712 25666 25633 25622 25612 25615 25605 25586 25480 25297 25152 25111 25088 25093 25077 25106 25134 25217 25277 25218 25111 25024 24980 24986 25009 25013 25048 25083 25108 25147 25164 25094 25077 25054 25060 25049 25052 25029 25023 24993 24973 24931 24821 24725 24738 24824 25000 25288 25619 25840 26031 26149 26270 26397 26412 26465 26534 26673 26816 26947 27081 27169 27258 27310 27250 27025 26827 26640 26482 26376 26260 26171 26108 26037 25998 25944 25818 25614 25459 25345 25269 25213 25163 25127 25113 25084 25082 25074 24926 24813 24785 24796 24834 24871 24895 24917 24940 24960 24984 24925 24791 24762 24795 24884 24964 25002 25016 24997 24971 24959 24927 24781 24632 24519 24464 24416 24406 24413 24420 24475 24546 24676 24769 24708 24619 24631 24757 24959 25117 25241 25452 25529 25555 25586 25511 25328 25223 25179 25196 25220 25252 25289 25322 25363 25411 25437 25365 25295 25264 25302 25337 25397 25426 25479 25527 25584 25633 25657 25579 25542 25539 25568 25603 25650 25685 25729 25781 25829 25846 25871 25823 25775 25770 25783 25800 25843 25877 25909 25944 25987 25997 26016 26004 25980 25987 25974 25992 26025 26038 26060 26090 26107 26128 26073 26037 26014 26038 26046 26073 26086 26096 26121 26148 26193 26212 26178 26126 26117 26116 26159 26170 26187 26204 26241 26257 26265 26268 26245 26162 26156 26230 26345 26430 26501 26551 26560 26554 26537 26563 26546 26451 26395 26326 26266 26222 26175 26115 26064 25996 25955 25906 25774 25563 25434 25323 25268 25223 25197 25171 25136 25115 25102 25101 24960 24877 24870 24895 24942 24992 25063 25127 25157 25170 25158 25163 24969 24789 24662 24569 24529 24505 24496 24523 24588 24653 24683 24707 24569 24461 24411 24401 24392 24367 24338 24300 24254 24264 24254 24199 24049 23975 23953 23961 23964 23976 24000 24044 24071 24107 24161 24078 24016 24030 24077 24141 24200 24220 24279 24348 24451 24598 24795 24909 25032 25194 25345 25530 25674 25842 26024 26150 26332 26515 26719 26840 26973 27017 26996 26869 26769 26734 26694 26670 26648 26624 26526 26430 26348 26295 26248 26210 26163 26143 26117 26122 26141 26146 26109 26078 26073 26088 26120 26157 26180 26225 26259 26303 26347 26307 26260 26252 26247 26271 26290 26310 26338 26354 26385 26406 26394 26291 26217 26184 26164 26170 26163 26149 26155 26156 26167 26163 26033 25918 25863 25832 25812 25832 25848 25837 25863 25879 25888 25885 25752 25657 25633 25632 25655 25689 25693 25738 25758 25784 25830 25792 25667 25608 25611 25626 25659 25672 25715 25732 25755 25793 25812 25701 25607 25576 25585 25615 25630 25656 25676 25716 25729 25759 25759 25645 25587 25557 25573 25585 25616 25640 25675 25701 25726 25762 25736 25644 25600 25579 25599 25633 25661 25676 25698 25721 25752 25789 25715 25628 25603 25613 25640 25656 25690 25702 25733 25753 25785 25784 25694 25703 25847 26055 26230 26372 26474 26555 26594 26628 26601 26480 26379 26275 26203 26114 26064 25998 25931 25887 25841 25793 25761 25672 25482 25348 25235 25143 25079 25001 24945 24880 24860 24829 24822 24738 24665 24672 24718 24767 24805 24884 25087 25275 25473 25642 25755 25692 25606 25563 25532 25555 25584 25583 25584 25591 25598 25611 25614 25494 25405 25383 25390 25446 25496 25535 25598 25651 25697 25736 25757 25655 25591 25568 25586 25649 25712 25759 25821 25887 25957 26031 26057 25996 25944 25950 26000 26067 26118 26182 26222 26274 26302 26343 26335 26223 26125 26075 26051 26060 26072 26074 26086 26111 26101 26108 26078 25952 25870 25813 25786 25749 25755 25758 25745 25737 25722 25735 25706 25606 25523 25436 25418 25395 25378 25367 25360 25359 25374 25361 25366 25278 25194 25118 25084 25100 25085 25084 25082 25103 25124 25133 25151 25084 25030 25010 25024 25052 25079 25093 25121 25148 25159 25189 25212 25163 25116 25081 25057 25037 25029 25020 25016 25022 25018 25018 25020 25005 24944 24908 24882 24863 24865 24859 24867 24878 24892 24906 24940 24958 24913 24876 24876 24885 24898 24926 24925 24939 24966 24959 24969 24984 24910 24863 24834 24810 24811 24806 24801 24784 24805 24810 24810 24816 24794 24733 24697 24707 24735 24750 24788 24837 24860 24917 24950 24999 25024 25004 24953 24960 24971 24986 25006 25043 25054 25087 25107 25134 25175 25129 25072 25045 25050 25075 25081 25101 25117 25133 25167 25180 25215 25186 25088 25042 25040 25035 25055 25060 25079 25106 25128 25141 25169 25178 25079 25024 25006 25019 25017 25043 25068 25078 25100 25143 25159 25177 25130 25040 25010 25005 25029 25039 25050 25071 25087 25106 25127 25154 25139 25071 24997 24986 25004 25034 25053 25088 25109 25120 25165 25175 25203 25119 25051 25036 25030 25060 25089 25113 25141 25155 25189 25222 25240 25198 25103 25086 25070 25089 25119 25136 25152 25179 25201 25235 25260 25263 25191 25136 25125 25132 25147 25177 25193 25219 25239 25268 25291 25306 25270 25198 25134 25113 25146 25182 25250 25341 25464 25609 25754 25860 25908 25887 25871 25891 25929 25956 25986 25992 25971 25948 25935 25938 25930 25834 25745 25692 25672 25681 25701 25708 25707 25719 25730 25747 25778 25768 25703 25674 25756 25863 25990 26103 26229 26310 26456 26593 26682 26764 26760 26833 26902 26978 27073 27112 27109 27107 27071 27021 26970 27055 27046 26977 26875 26812 26846 26828 26778 26757 26717 26704 26682 26663 26625 26472 26389 26322 26283 26278 26250 26259 26258 26260 26260 26268 26229 26076 25969 25934 25928 25937 25940 25963 25977 25993 26025 26042 26026 25870 25771 25728 25737 25774 25777 25798 25822 25849 25878 25888 25881 25724 25604 25574 25571 25609 25624 25657 25699 25736 25788 25795 25719 25512 25358 25288 25251 25243 25207 25176 25159 25129 25102 25088 25017 24783 24651 24561 24520 24507 24500 24493 24494 24497 24509 24561 24607 24544 24565 24644 24750 24847 24938 25009 25092 25190 25269 25329 25396 25333 25259 25267 25305 25370 25418 25476 25531 25583 25634 25672 25725 25648 25603 25581 25605 25639 25687 25731 25793 25825 25881 25915 25953 25922 25864 25856 25874 25903 25948 25981 26008 26044 26083 26124 26178 26149 26109 26103 26113 26139 26162 26196 26221 26271 26286 26322 26369 26342 26304 26281 26308 26323 26374 26416 26470 26520 26517 26576 26629 26688 26691 26647 26654 26673 26688 26673 26650 26636 26650 26648 26654 26622 26518 26408 26343 26289 26250 26184 26128 26113 26107 26112 26113 26103 26042 26017 26026 26073 26170 26267 26305 26335 26374 26404 26424 26455 26361 26307 26259 26254 26258 26239 26220 26200 26210 26267 26375 26460 26409 26352 26322 26336 26363 26356 26315 26297 26295 26276 26257 26208 26024 25786 25629 25501 25413 25360 25305 25278 25230 25208 25213 25202 25127 24959 24866 24842 24863 24879 24913 24910 24931 24956 25018 25047 25059 24953 24892 24895 24943 25005 25039 25049 25025 25013 25011 25010 24989 24856 24738 24660 24684 24720 24742 24769 24794 24813 24800 24807 24797 24664 24584 24564 24593 24609 24633 24651 24714 24782 24857 24920 24964 24954 24864 24801 24792 24827 24860 24900 24930 24981 25023 25053 25093 25125 25034 24966 24936 24936 24960 24992 25034 25059 25102 25145 25194 25196 25157 25056 24995 24945 24935 24955 24989 25012 25086 25151 25229 25324 25377 25348 25286 25217 25210 25207 25210 25226 25249 25247 25275 25307 25341 25319 25281 25269 25280 25320 25367 25404 25440 25478 25525 25561 25600 25579 25530 25479 25464 25476 25488 25489 25470 25532 25597 25689 25815 25932 26134 26372 26586 26811 27064 27235 27370 27447 27517 27580 27646 27684 27656 27705 27787 27880 27958 28044 28110 28107 28046 27838 27692 27620 27416 27227 27080 26963 26883 26781 26714 26640 26573 26508 26422 26372 26181 25979 25847 25740 25678 25607 25571 25524 25512 25501 25497 25490 25336 25173 25090 25067 25067 25086 25115 25126 25155 25180 25208 25230 25065 24909 24833 24809 24825 24852 24867 24874 24924 24985 25061 25108 25005 24842 24749 24716 24715 24718 24723 24751 24755 24782 24812 24845 24802 24640 24549 24546 24557 24613 24638 24679 24712 24752 24795 24834 24840 24714 24649 24626 24658 24713 24755 24776 24831 24875 24919 24948 24984 24885 24797 24778 24811 24852 24910 24961 25000 25051 25088 25137 25168 25080 24985 24974 24985 25006 25031 25072 25112 25145 25177 25211 25261 25232 25154 25110 25113 25130 25176 25219 25258 25284 25322 25362 25391 25411 25355 25316 25319 25326 25363 25391 25434 25465 25498 25535 25578 25617 25590 25556 25534 25538 25564 25595 25608 25641 25658 25690 25707 25740 25747 25700 25679 25667 25674 25714 25747 25768 25800 25842 25876 25917 25934 25898 25865 25861 25871 25860 25885 25895 25905 25932 25944 25972 25980 25926 25879 25849 25828 25820 25844 25852 25872 25896 25925 25937 25951 25950 25866 25815 25777 25766 25777 25781 25799 25813 25825 25839 25847 25850 25784 25696 25649 25625 25662 25667 25674 25706 25713 25742 25764 25791 25724 25604 25549 25521 25530 25537 25553 25558 25575 25590 25626 25646 25622 25469 25375 25337 25343 25369 25377 25405 25423 25431 25465 25518 25535 25410 25304 25248 25244 25266 25311 25325 25356 25400 25637 25869 26032 26114 26137 26236 26367 26480 26557 26467 26387 26310 26275 26235 26202 26147 25990 25866 25775 25718 25784 25869 26037 26201 26372 26538 26671 26786 26745 26624 26504 26437 26334 26275 26200 26150 26080 26029 25990 25917 25764 25597 25571 25726 25875 25913 25979 26009 25996 26012 26001 25958 25811 25706 25659 25693 25765 25819 25823 25846 25869 25881 25902 25907 25796 25715 25635 25606 25634 25650 25665 25676 25647 25703 25734 25802 25773 25710 25691 25713 25751 25831 25880 25932 25931 25937 25926 25896 25711 25555 25391 25336 25311 25318 25320 25300 25315 25369 25354 25372 25287 25258 25202 25162 25181 25201 25251 25275 25311 25355 25435 25484 25522 25457 25394 25410 25423 25470 25544 25621 25642 25694 25730 25781 25736 25678 25660 25656 25735 25808 25870 25948 25961 26025 26080 26074 25989 25906 25836 25782 25767 25775 25808 25804 25791 25782 25761 25682 25544 25417 25424 25462 25488 25502 25521 25562 25623 25701 25777 25839 25760 25710 25630 25587 25580 25599 25631 25665 25693 25715 25757 25786 25795 25715 25636 25566 25539 25503 25491 25536 25599 25629 25696 25727 25662 25647 25639 25617 25653 25743 25812 25860 25910 25972 26013 26053 26030 25962 25897 25863 25846 25827 25834 25812 25800 25765 25770 25739 25672 25627 25617 25645 25693 25734 25786 25849 25938 26018 26104 26146 26104 26031 25965 25892 25859 25844 25845 25873 25922 25929 25898 25831 25713 25601 25505 25443 25462 25529 25604 25668 25776 25834 25908 25939 25935 25900 25906 25923 25929 26038 26093 26177 26342 26522 26651 26797 26925 27052 27109 27206 27262 27329 27347 27366 27498 27655 27756 27631 27587 27521 27605 27620 27559 27503 27416 27459 27427 27412 27376 27330 27198 27070 27001 26948 26892 26855 26819 26800 26771 26741 26731 26586 26378 26225 26193 26197 26204 26253 26262 26249 26247 26259 26231 26077 25965 26045 26112 26172 26347 26454 26542 26679 26670 26651 26527 26362 26268 26194 26172 26150 26106 26095 26113 26123 26142 26166 26158 26036 25809 25678 25635 25652 25733 25910 26075 26199 26193 26181 26145 25929 25761 25662 25621 25615 25611 25610 25603 25621 25864 26247 26438 26650 26778 26792 26769 26720 26692 26654 26697 26721 26763 26786 26760 26711 26664 26656 26659 26660 26667 26668 26670 26680 26672 26657 26607 26558 26488 26479 26452 26439 26425 26418 26416 26405 26414 26381 26284 26216 26164 26110 26103 26070 26050 26039 26028 26000 25965 25904 25820 25817 25871 25958 26036 26095 26135 26166 26226 26251 26307 26308 26283 26268 26293 26327 26380 26427 26480 26574 26625 26642 26702 26671 26572 26498 26449 26438 26431 26431 26430 26419 26407 26407 26396 26324 26176 26020 25968 25912 25889 25867 25897 25928 26131 26470 26749 26894 26933 27068 27206 27305 27329 27337 27421 27354 27135 27016 26991 26890 26712 26558 26409 26301 26251 26209 26181 26162 26168 26142 26144 26019 25842 25670 25551 25489 25439 25455 25477 25529 25589 25625 25641 25586 25397 25309 25311 25374 25432 25497 25505 25514 25540 25547 25560 25410 25219 25112 25060 25061 25070 25074 25055 25056 25050 25113 25156 25102 24937 24796 24705 24695 24698 24655 24653 24622 24619 24660 24752 24738 24638 24583 24568 24608 24608 24625 24660 24707 24774 24862 24957 24979 24871 24788 24770 24801 24853 24910 24919 24942 24976 25017 25003 24925 24797 24736 24736 24748 24742 24703 24666 24621 24572 24557 24533 24455 24298 24273 24310 24462 24654 24803 24948 25080 25216 25296 25333 25255 25174 25128 25077 25093 25139 25154 25173 25171 25169 25147 25034 24980 24890 24840 24806 24789 24877 24969 24984 25087 25176 25242 25293 25287 25305 25336 25371 25401 25442 25466 25502 25506 25541 25556 25535 25476 25422 25356 25318 25312 25255 25207 25207 25242 25372 25384 25390 25387 25370 25423 25481 25557 25606 25650 25664 25676 25682 25611 25489 25356 25271 25206 25170 25123 25120 25096 25056 25040 25030 25117 25068 25092 25158 25273 25405 25526 25630 25662 25692 25701 25717 25621 25470 25369 25381 25334 25300 25266 25216 25215 25215 25237 25157 25171 25184 25271 25350 25411 25458 25486 25491 25588 25658 25688 25575 25468 25426 25416 25411 25398 25407 25369 25404 25432 25499 25462 25441 25464 25478 25488 25484 25500 25537 25546 25577 25601 25638 25574 25433 25299 25290 25214 25265 25305 25327 25412 25459 25502 25437 25354 25299 25259 25288 25274 25317 25310 25342 25360 25369 25261 25101 25072 25042 25070 25112 25175 25260 25328 25432 25468 25498 25396 25294 25248 25235 25252 25251 25245 25233 25242 25260 25316 25234 25177 25125 25119 25189 25226 25232 25248 25229 25242 25295 25216 25197 25167 25187 25204 25225 25219 25243 25312 25335 25361 25351 25274 25330 25342 25346 25385 25368 25391 25376 25342 25419 25347 25230 25135 25100 25179 25231 25268 25256 25290 25308 25325 25402 25317 25378 25391 25369 25386 25386 25404 25442 25433 25442 25364 25328 25269 25298 25349 25392 25452 25482 25558 25590 25607 25607 25578 25517 25483 25519 25553 25566 25591 25605 25609 25632 25559 25479 25462 25497 25563 25572 25562 25581 25579 25646 25630 25606 25534 25496 25456 25445 25455 25407 25503 25540 25625 25632 25585 25590 25597 25567 25650 25683 25770 25844 25883 25960 25929 25870 25867 25863 25881 25909 25908 25975 25993 26030 26074 25991 25982 25933 25896 25906 25879 25906 25970 25982 25970 25979 25908 25797 25787 25831 25934 25966 26007 26008 26010 26021 25943 25792 25665 25626 25576 25633 25647 25729 25758 25819 25810 25793 25706 25674 25719 25767 25813 25848 25870 25899 25928 25882 25697 25609 25546 25522 25578 25607 25582 25587 25665 25745 25645 25546 25466 25407 25468 25480 25562 25571 25576 25570 25467 25300 25193 25180 25178 25155 25236 25274 25322 25414 25413 25249 25145 25130 25202 25207 25207 25266 25255 25271 25285 25184 25133 25032 24997 25065 25102 25144 25136 25155 25158 25189 25022 24815 24685 24593 24687 24826 24856 24983 24999 25036 24839 24762 24767 24862 24908 25000 25026 25086 25127 25153 25024 24850 24734 24780 24871 24916 25027 25038 25106 25133 25095 24976 24878 24818 24848 24983 25124 25160 25266 25295 25294 25164 25015 24944 25057 25090 25217 25281 25338 25388 25445 25299 25201 25086 25085 25115 25186 25202 25254 25298 25264 25244 25149 25075 25207 25232 25373 25420 25414 25432 25432 25428 25361 25278 25216 25185 25234 25251 25296 25334 25498 25493 25370 25319 25257 25236 25323 25309 25317 25408 25404 25373 25182 25022 25059 25069 25191 25203 25286 25410 25412 25334 25214 25108 25222 25213 25235 25317 25359 25373 25354 25269 25167 25101 25013 25122 25160 25196 25196 25167 25302 25353 25251 25282 25270 25256 25284 25282 25213 25169 25137 25102 25117 25042 25054 25141 25153 25255 25280 25262 25271 25263 25123 25046 25019 25057 25074 25225 25326 25399 25377 25361 25237 25249 25136 25125 25101 25143 25241 25309 25329 25432 25376 25270 25222 25136 25107 25126 25240 25269 25268 25325 25321 25214 25137 25215 25255 25327 25338 25383 25448 25504 25442 25316 25247 25213 25245 25400 25427 25440 25432 25481 25463 25381 25426 25463 25550 25576 25628 25676 25674 25726 25609 25471 25346 25264 25201 25180 25287 25324 25446 25505 25370 25334 25371 25411 25507 25517 25557 25540 25506 25530 25398 25225 25128 25022 25102 25258 25335 25312 25316 25272 25228 25164 25090 25099 25096 25040 25048 25132 25098 25139 24904 24842 24689 24683 24686 24731 24742 24781 24778 24890 24732 24712 24672 24678 24753 24780 24733 24743 24845 24770 24543 24372 24434 24461 24568 24575 24691 24690 24845 24858 24696 24509 24362 24408 24460 24436 24548 24503 24594 24485 24320 24286 24247 24410 24487 24502 24659 24798 24913 24897 24747 24711 24628 24554 24589 24611 24640 24706 24642 24621 24458 24366 24420 24470 24495 24649 24752 24827 24870 24719 24538 24476 24430 24513 24541 24574 24719 24700 24656 24647 24582 24640 24689 24799 24994 25057 25114 25146 25069 24902 24733 24668 24745 24851 24847 24985 25006 25077 24992 24885 24878 24902 24902 24921 24915 24947 24916 24935 24800 24720 24671 24708 24802 24963 25077 25177 25256 25233 25099 25014 24900 24947 24919 25145 25195 25272 25290 25235 25114 25032 24979 25119 25136 25191 25233 25216 25247 25249 25117 25183 25107 25133 25175 25152 25078 25010 24966 24968 24830 24918 24969 25043 24992 25082 25014 25207 25153 25084 24974 25015 25032 25041 25016 25182 25150 25342 25382 25315 25225 25211 25154 25144 25114 25134 25162 25192 25214 25051 24898 24922 24914 24991 25064 25026 25100 25211 25077 24934 24871 24796 24832 24816 24908 24892 24864 24886 24780 24716 24664 24749 24881 24927 25030 25095 25212 25251 25226 25327 25458 25533 25786 25980 26199 26377 26461 26319 26172 25994 25953 25918 25927 25942 25944 25972 25978 25841 25708 25687 25702 25758 25811 25854 25905 25950 25978 25860 25754 25735 25781 25812 25850 25904 25959 25992 25975 25840 25725 25668 25657 25683 25764 25915 26117 26181 25973 25791 25751 25691 25672 25644 25677 25691 25671 25547 25294 25118 25089 25224 25328 25374 25395 25336 25255 25023 24894 24693 24591 24647 24615 24789 24964 25084 25176 25107 25046 25019 25077 25134 25174 25151 25149 25157 25169 25066 25030 25074 25134 25234 25321 25438 25524 25601 25587 25395 25328 25328 25392 25463 25510 25569 25627 25708 25601 25417 25318 25316 25411 25489 25570 25542 25522 25500 25318 25241 25191 25248 25319 25325 25375 25434 25453 25354 25157 25043 24974 24971 24919 24939 24924 24906 24891 24736 24671 24689 24759 24887 24950 24966 25079 25237 25198 24981 24851 24730 24739 24732 24704 24855 24879 24970 24775 24602 24543 24645 24777 24839 24930 24949 25009 25068 24951 24854 24793 24734 24799 24827 24811 24765 24770 24612 24513 24488 24530 24692 24827 24904 25002 25109 25218 25059 24773 24661 24512 24561 24567 24667 24692 24768 24753 24540 24533 24599 24715 24754 24749 24760 24854 24933 24905 24731 24583 24556 24658 24688 24734 24772 24789 24699 24499 24518 24525 24614 24669 24702 24685 24716 24774 24755 24619 24552 24555 24580 24619 24593 24634 24748 24739 24585 24407 24408 24600 24780 24816 24856 24837 24813 24756 24608 24570 24486 24442 24536 24586 24645 24605 24726 24553 24472 24427 24455 24655 24720 24809 24914 25067 25100 24950 24816 24676 24743 24712 24807 24749 24819 24804 24750 24635 24544 24670 24725 24943 25023 25049 25111 25079 24972 24858 24772 24800 24952 25034 25047 25040 25049 25016 24976 24985 25030 25173 25266 25346 25419 25447 25416 25235 25090 25035 25093 25247 25317 25311 25264 25186 25201 25068 24946 24911 24858 24832 24954 25077 25132 25219 25153 25072 25007 25006 25031 25076 25159 25120 25085 24942 24795 24702 24658 24749 24784 24914 24972 25068 25097 25002 24810 24644 24683 24673 24644 24746 24889 24918 24926 24720 24471 24524 24490 24433 24529 24583 24672 24782 24740 24539 24536 24570 24611 24678 24726 24811 24789 24707 24417 24330 24403 24469 24483 24482 24460 24521 24525 24498 24232 24077 24123 24221 24299 24374 24483 24499 24519 24296 24061 24029 24023 24096 24160 24241 24285 24437 24431 24164 24101 24079 24190 24237 24249 24235 24276 24249 24087 23832 23725 23824 23967 24019 24098 24218 24268 24261 24021 23840 23846 23889 23955 24057 24169 24219 24273 24140 23905 23832 23959 24038 24138 24136 24114 24115 24117 23877 23798 23846 23939 24101 24225 24265 24335 24432 24414 24145 24103 24178 24422 24719 24949 25092 25159 25307 25208 25069 25246 25332 25272 25350 25292 25280 25285 25206 25000 24846 24824 24865 24935 24999 25053 25113 25154 25084 24936 24910 24933 25009 25109 25189 25244 25304 25358 25245 25112 25079 25116 25190 25278 25328 25403 25399 25297 25119 25033 25083 25253 25384 25427 25481 25555 25678 25496 25336 25296 25318 25372 25390 25413 25471 25647 25801 25789 25769 25809 25862 25916 26011 26103 26219 26298 26093 25749 25474 25314 25194 25119 25042 24996 24981 24848 24562 24438 24487 24571 24765 24840 24887 24954 25077 25020 24760 24656 24534 24507 24470 24464 24463 24480 24447 24188 24045 23992 24036 24146 24349 24420 24524 24645 24622 24417 24222 24028 23964 24000 24147 24286 24344 24274 23984 23746 23562 23657 23829 24007 24074 24101 24111 24035 23872 23782 23844 23901 23905 23894 23946 23957 24075 23877 23635 23598 23573 23685 23771 23899 23977 24056 24060 23821 23802 23848 24022 24064 24114 24098 24186 24192 24026 23866 23782 23763 23734 23753 23975 24163 24277 24335 24135 23984 24016 24128 24221 24209 24215 24133 24156 24013 23919 23899 23851 24015 24036 24021 24051 24159 24153 24057 24015 24034 24211 24364 24484 24586 24631 24630 24509 24318 24250 24257 24366 24390 24454 24404 24411 24511 24391 24378 24392 24456 24517 24698 24834 24918 24944 24805 24657 24559 24518 24500 24543 24589 24657 24675 24625 24374 24393 24516 24624 24690 24771 24812 24913 25065 25032 24821 24694 24729 24759 24786 24838 24892 24889 24870 24681 24496 24416 24476 24619 24708 24761 24872 24971 24901 24766 24726 24836 24990 25094 25165 25238 25263 25243 25086 24966 24981 24946 24949 24945 25142 25213 25268 25182 25051 24943 24919 24971 24977 25037 25110 25127 25082 24743 24462 24422 24418 24396 24370 24391 24489 24569 24554 24370 24362 24397 24552 24643 24673 24632 24630 24688 24380 24190 24094 24172 24317 24433 24452 24405 24370 24283 24014 23945 23956 24122 24286 24449 24568 24632 24693 24450 24216 24150 24169 24251 24329 24375 24334 24307 24111 23922 23919 24019 24175 24375 24488 24578 24708 24813 24635 24345 24253 24314 24484 24585 24607 24588 24636 24665 24435 24222 24154 24229 24389 24551 24655 24726 24762 24603 24483 24444 24527 24606 24693 24794 24876 24981 25079 24865 24745 24768 24887 25076 25318 25663 26113 26309 26331 26188 26184 26066 25885 25762 25655 25419 25434 25590 25541 25396 25251 25256 25133 25115 25125 25146 25179 25092 24865 24738 24718 24751 24806 24810 24846 24858 24859 24696 24543 24510 24526 24596 24659 24706 24757 24794 24642 24436 24299 24367 24706 24803 24822 24800 24780 24701 24401 24259 24252 24329 24426 24526 24597 24682 24773 24620 