46573 46551 46882 46870 46868 46873 46849 46782 46730 46699 46692 46700 46676 46680 46665 46677 46681 46689 46683 46692 46706 46697 46676 46607 46588 46574 46561 46680 46693 46696 46706 46702 46697 46710 46720 46737 46735 46686 46591 46518 46482 46444 46439 46413 46402 46382 46377 46379 46398 46382 46399 46391 46318 46257 46184 46158 46134 46132 46128 46103 46099 46098 46087 46094 46112 46125 46135 46082 45983 45928 45897 45884 45877 45862 45857 45861 45880 45881 45897 45917 45947 45963 45938 45866 45811 45787 45791 45793 45797 45790 45808 45810 45836 45845 45872 45897 45934 45928 45897 45838 45807 45805 45809 45813 45818 45823 45830 45847 45876 45896 45920 45955 45973 45977 45940 45935 45944 45968 46009 46025 46048 46090 46116 46162 46203 46276 46321 46382 46414 46383 46366 46384 46410 46458 46496 46534 46544 46566 46608 46630 46676 46732 46760 46779 46748 46712 46694 46714 46731 46764 46783 46798 46814 46849 46888 46910 46949 46987 47031 47021 46982 46961 46980 47009 47018 47041 47051 47060 47099 47111 47126 47149 47169 47204 47156 47113 47073 47068 47066 47069 47085 47102 47108 47127 47148 47186 47209 47230 47229 47162 47102 47066 47039 47040 47044 47033 47044 47038 47047 47064 47077 47117 47102 47032 46954 46895 46860 46833 46854 46839 46855 46873 46882 46912 46955 46998 47023 47013 46933 46876 46819 46799 46794 46801 46819 46840 46845 46865 46904 46918 46963 46998 46973 46884 46792 46758 46741 46741 46734 46748 46747 46772 46783 46805 46835 46859 46864 46806 46717 46648 46607 46592 46580 46583 46588 46601 46585 46591 46613 46639 46664 46636 46528 46467 46414 46406 46397 46402 46395 46391 46393 46407 46424 46446 46463 46453 46362 46277 46223 46180 46154 46161 46155 46157 46137 46157 46171 46200 46217 46249 46239 46157 46093 46039 46001 46002 45998 46010 46015 46017 46049 46039 46064 46081 46116 46129 46108 46044 45977 45951 45943 45941 45939 45945 45949 45958 45978 46010 46045 46056 46090 46086 46033 45966 45932 45934 45931 45940 45969 45976 45994 46016 46056 46077 46099 46137 46173 46117 46072 46046 46043 46051 46081 46108 46115 46134 46167 46195 46241 46300 46331 46382 46408 46396 46353 46346 46363 46388 46418 46452 46468 46509 46530 46580 46604 46653 46700 46737 46790 46773 46722 46701 46711 46736 46770 46811 46847 46886 46915 46950 46951 46899 46833 46790 46704 46684 46568 46452 46301 46195 46138 46043 45913 45779 45649 45452 45301 45065 44821 44609 44450 44292 44072 43885 43707 43551 43441 43348 43282 43252 43236 43248 43244 43246 43248 43243 43226 43131 42988 42868 42803 42762 42752 42765 42794 42840 42886 42930 42992 43063 43144 43219 43248 43261 43273 43316 43382 43456 43534 43598 43664 43737 43801 43852 43918 43972 44050 44080 44050 44019 44016 44017 43994 43984 43965 43939 43912 43893 43880 43890 43887 43898 43900 43871 43798 43756 43716 43683 43645 43640 43642 43644 43669 43681 43715 43716 43687 43660 43605 43515 43408 43313 43211 43120 42999 42930 42871 42873 42878 42886 42903 42912 42934 42966 43032 43081 43101 43109 43128 43154 43164 43192 43188 43201 43245 43271 43268 43265 43237 43186 43105 43026 42975 42946 42945 42936 42954 42970 42979 42999 43031 43089 43177 43287 43382 43476 43529 43596 43649 43741 43808 43870 43920 43973 44075 44182 44279 44397 44460 44471 44428 44572 44676 44760 44785 44761 44685 44599 44544 44513 44470 44514 44606 44752 44934 45124 45253 45327 45313 45241 45200 45166 45133 45033 44922 44831 44791 44823 44885 44963 45012 45085 45174 45239 45278 45326 45359 45385 45412 45454 45496 45552 45600 45625 45667 45680 45717 45759 45822 45803 45861 45910 45889 45873 45870 45889 45910 45952 45956 45977 46003 45969 46004 45999 46031 46060 46064 46052 46029 45991 45966 45928 45933 45878 45845 45801 45745 45721 45691 45679 45671 45673 45687 45699 45726 45759 45824 45911 46006 46093 46200 46293 46390 46461 46527 46597 46648 46815 47142 47213 47122 47164 47204 47230 47266 47313 47410 47482 47538 47658 47779 47873 42533 42496 42470 42423 42368 42354 42331 42346 42366 42368 42359 42332 42322 42318 42292 42286 42275 42270 42272 42293 42334 42388 42427 42447 42485 42617 42655 42677 42655 42627 42580 42548 42444 42298 42209 42203 42194 42170 42134 42083 42004 41939 41902 41840 41806 41748 41641 41538 41425 41328 41252 41180 41120 41066 41030 40980 40934 40925 40939 40948 40977 40978 40991 40992 40963 40937 40904 40845 40738 40630 40529 40445 40367 40231 40102 40042 40014 39959 39872 39766 39672 39669 39659 39633 39582 39477 39377 39234 39079 38970 38896 38818 38798 38755 38688 38620 38547 38471 38418 38363 38285 38168 38061 37939 37808 37709 37648 37579 37554 37537 37529 37521 37491 37471 37382 37260 37099 36966 36899 36799 36739 36715 36733 36930 37187 37438 37640 37775 37805 37827 37809 37773 37829 37855 37880 37863 37873 37848 37834 37848 37806 37760 37704 37692 37703 37682 37678 37676 37727 37741 37818 37879 37956 38008 38296 38775 39040 39354 39678 39916 39987 40031 40058 40085 40140 40196 40238 40229 40202 40178 40144 40091 40045 40019 40019 39990 39968 39982 39948 39935 39936 39914 39906 39912 39950 39953 39973 39952 40003 40008 40054 40064 40073 40079 40070 40064 40017 40017 39986 39967 39929 39967 39946 39994 40042 40108 40150 40234 40261 40302 40274 40299 40291 40302 40326 40331 40342 40368 40381 40391 40406 40406 40416 40403 40410 48468 48485 48503 48513 48500 48523 48530 48533 48707 48847 49222 49573 49808 49803 49857 49845 49852 49884 49837 49793 49788 49754 49674 49633 49657 49601 49656 49629 49645 49688 49730 49769 49768 49814 49819 49827 49829 49859 49862 49893 49883 49949 49949 49961 49996 49996 50033 50093 50115 50169 50207 50312 50448 50520 50572 50525 50534 50481 50522 50472 50459 50381 50404 50304 50318 50300 50266 50250 50232 50211 50151 50079 49995 49875 49880 49756 49762 49702 49736 49695 49721 49711 49722 49668 49669 49540 49484 49413 49306 49261 49200 49124 49088 48989 48967 48936 48858 48842 48742 48751 48662 48617 48525 48541 48431 48426 48437 48378 48420 48444 48391 48454 48437 48436 48476 48468 48439 48384 48331 48238 48187 48138 48062 48118 48113 48079 48046 48018 48068 48052 48124 48252 48189 48232 48217 48235 48219 48246 48215 48234 48248 48229 48223 48212 48209 48224 48250 48219 48209 48127 48144 48178 48302 48449 48411 48424 48438 48453 48463 48511 48487 48568 48531 48536 48591 48588 48599 48610 48609 48589 48604 48589 48581 48566 48561 48567 48557 48592 48680 48727 48714 48670 48659 48632 48617 48612 48607 48608 48603 48600 48613 48598 48600 48612 48611 48612 48616 48637 48632 48624 48632 48628 48635 48608 48612 48632 48648 48655 48676 48696 48682 48692 48698 48715 48728 48766 48776 48791 48804 48831 48858 48837 48776 48737 48683 48689 48653 48715 48657 48724 48727 48719 48796 48785 48795 48809 48789 48789 48782 48793 48809 48804 48825 48823 48805 48821 48781 48791 48793 48793 48784 48779 48776 48783 48789 48803 48807 48820 48813 48835 48844 48833 48842 48831 48838 48802 48788 48768 48742 48722 48710 48689 48729 48722 48742 48722 48763 48785 48779 48769 48778 48757 48737 48718 48691 48695 48665 48689 48677 48645 48659 48651 48639 48613 48635 48620 48632 48599 48579 48571 48560 48542 48512 48536 48517 48503 48486 48504 48482 48496 48503 48474 48484 48451 48446 48438 48532 48592 48645 48663 48678 48686 48636 48622 48576 48581 48515 48511 48463 48390 48442 48427 48601 48644 48677 48686 48693 48691 48704 48633 48730 48666 48740 48738 48801 48822 48859 48827 48879 48900 48893 48915 48905 48897 48888 48898 48881 48842 48810 48776 48762 48773 48743 48754 48747 48729 48753 48726 48744 48720 48697 48703 48672 48679 48676 48675 48672 48723 48722 48742 48714 48742 48749 48776 48777 48766 48896 48810 48944 48874 49058 49011 49058 49079 49065 49034 49074 49045 49052 49076 49088 49080 49045 49036 49077 49118 49173 49174 49157 49138 49139 49129 49134 49132 49147 49174 49172 49137 49128 49098 49079 49061 49054 49057 49094 49139 49156 49145 49135 49130 49133 49137 49163 49176 49197 49219 49214 49212 49198 49205 49206 49199 49207 49196 49201 49215 49214 49204 49185 49155 49135 49122 49143 49151 49173 49169 49184 49187 49202 49185 49195 49186 49172 49148 49129 49121 49103 49070 49074 49068 49046 49060 49074 49060 49076 49082 49101 49145 49173 49172 49136 49123 49126 49103 49083 49074 49071 49049 49044 49041 49045 49040 49036 49041 49010 48991 48950 48923 48901 48877 48856 48857 48845 48829 48835 48835 48845 48867 48854 48862 48856 48821 48825 48779 48758 48749 48735 48737 48734 48721 48728 48738 48750 48761 48772 48763 48757 48748 48729 48733 48735 48731 48744 48753 48748 48801 48854 48865 48857 48860 48858 48867 48848 48840 48853 48867 48884 48875 48856 48854 48837 48825 48818 48779 48786 48740 48754 48733 48735 48715 48707 48713 48686 48716 48709 48731 48802 48867 48914 48933 48941 48971 48991 48982 48995 48980 48988 48996 49003 49041 49049 49059 49048 49051 49064 49060 49055 49068 49049 49075 49094 49104 49072 49047 49003 48973 48924 48874 48785 48837 48815 48863 48858 48867 48870 48902 48856 48870 48913 48892 48902 48852 48850 48880 48857 48872 48883 48894 48932 48935 48956 48945 48962 48922 48913 48879 48861 48855 48892 48932 49015 49086 49153 49188 49237 49301 49308 49381 49527 49651 49716 49738 49700 49670 49631 49618 49559 49584 49557 49574 49593 49583 49614 49614 49629 49646 49652 49627 49613 49569 49585 49542 49521 49490 49471 49448 49441 49419 49413 49425 49445 49462 49416 49390 49367 49350 49297 49256 49265 49147 49336 49295 49312 49274 49273 49306 49239 49234 49174 49085 49178 49086 49087 49042 49004 49002 48948 48947 48932 48942 48959 48992 48974 48967 48956 48923 48824 48779 48721 48695 48668 48703 48677 48656 48624 48629 48635 48648 48655 48660 48697 48664 48643 48589 48606 48553 48533 48503 48461 48375 48359 48335 48335 48328 48329 48326 48330 48335 48323 48291 48285 48282 48279 48257 48233 48250 48285 48319 48356 48417 48433 48467 48508 48496 48501 48462 48501 48560 48655 48703 48727 48756 48771 48789 48779 48785 48797 48819 48827 48820 48817 48774 48760 48714 48707 48718 48722 48769 48780 48823 48947 49029 49070 49117 49111 49093 49058 49002 48956 48938 48955 48988 49042 49174 49296 49390 49469 49544 49570 49597 49611 49654 49675 49687 49708 49701 49706 49695 49689 49712 49707 49715 49729 49740 49755 49780 49824 49869 49879 49873 49898 49895 49903 49915 49919 49902 49890 49876 49837 49804 49793 49759 49779 49846 49881 49888 49833 49806 49768 49782 49816 49745 49702 49634 49576 49546 49566 49580 49598 49576 49560 49536 49546 49532 49523 49487 49470 49455 49439 49430 49386 49358 49349 49346 49325 49296 49258 49218 49226 49225 49221 49223 49219 49224 49232 49287 49302 49336 49333 49277 49210 49198 49216 49227 49274 49317 49450 49338 49253 49161 49130 49130 49175 49265 49356 49510 49641 49618 49494 49500 49510 49535 49556 49558 49558 49559 49563 49568 49593 49569 49539 49482 49412 49310 49200 49104 49051 48981 48922 48867 48850 48826 48809 48773 48745 48661 48583 48513 48464 48373 48303 48238 48196 48152 48125 48100 48081 48050 48014 47956 47916 47892 47912 47908 47928 47930 47912 47904 47879 47892 47889 47896 47861 47806 47763 47718 47676 47669 47663 47650 47646 47636 47596 47581 47559 47530 47491 47461 47418 47397 47382 47373 47369 47399 47391 47387 47400 47399 47424 47433 47427 47421 47421 47422 47422 47434 47457 47475 47483 47502 47542 47579 47594 47618 47626 47629 47623 47640 47672 47707 47819 47844 47755 47867 47930 47888 47893 47972 48086 48123 48124 48050 48095 48133 48239 48271 48297 48363 48399 48447 48470 48475 48421 48392 48382 48507 48659 48777 48837 48870 48903 48945 48994 49037 49145 49268 49303 49275 49228 49174 49147 49095 49067 49091 49145 49181 49204 49235 49230 49249 49260 49278 49315 49318 49375 49379 49416 49428 49492 49544 49605 49600 49703 49664 49658 49633 49573 49537 49486 49481 49472 49474 49503 49495 49523 49526 49530 49516 49383 49476 49316 49303 49300 49280 49292 49292 49267 49259 49230 49222 49159 49049 48950 48908 48838 48805 48783 48776 48770 48762 48754 48730 48693 48601 48490 48338 48226 48115 48038 47970 47957 47882 47892 47822 47757 47722 47704 47638 47543 47437 47344 47292 47270 47277 47280 47312 47314 47364 47375 47380 47389 47378 47392 47421 47441 47472 47505 47544 47589 47637 47723 47813 47874 47962 48084 48206 48293 48350 48365 48375 48392 48432 48495 48561 48621 48664 48726 48809 48908 48999 49056 49087 49115 49158 49190 49220 49239 49273 49300 49321 49356 49376 49403 49409 49395 49386 49390 49413 49422 49436 49450 49487 49512 49535 49575 49593 49620 49602 49582 49586 49585 49579 49579 49594 49612 49634 49652 49660 49668 49660 49679 49665 49638 49607 49589 49570 49559 49544 49539 49503 49512 49497 49499 49494 49480 49489 49451 49398 49349 49317 49292 49266 49251 49236 49197 49191 49197 49206 49228 49245 49266 49255 49211 49207 49232 49250 49305 49338 49378 49390 49394 49423 49451 49496 49513 49488 49427 49362 49313 49294 49286 49291 49281 49283 49283 49304 49335 49416 49501 49574 49496 49217 49083 49090 49152 49181 49213 49181 49158 49143 49118 49102 49094 49083 49048 48955 48856 48770 48732 48677 48641 48599 48561 48534 48480 48433 48358 48318 48320 48254 48164 48079 47992 47960 47936 47933 47951 47950 47977 47984 47958 47987 48011 48011 47974 47874 47854 47790 47793 47798 47777 47771 47748 47707 47693 47768 47741 47765 47817 47740 47690 47652 47619 47591 47580 47595 47533 47477 47474 47467 47549 47612 47769 47950 48054 48121 48170 48189 48173 48098 47980 47973 48118 48146 48251 48353 48497 48478 48484 48451 48414 48429 48429 48458 48437 48432 48425 48405 48426 48413 48406 48415 48339 48290 48232 48226 48204 48237 48215 48274 48242 48280 48296 48280 48350 48295 48265 48204 48235 48218 48254 48242 48296 48310 48332 48378 48394 48395 48424 48430 48417 48455 48403 48340 48337 48333 48407 48478 48561 48511 48565 48554 48618 48560 48537 48425 48461 48404 48390 48349 48359 48381 48362 48423 48390 48445 48403 48430 48388 48301 48342 48271 48287 48225 48143 48141 48214 48430 48342 48582 48593 48635 48664 48646 48620 48744 48734 48866 48761 48774 48693 48769 48792 48759 48824 48789 48744 48757 48697 48665 48622 48663 48622 48678 48566 48645 48559 48628 48595 48605 48574 48561 48457 48453 48365 48282 48283 48252 48257 48277 48323 48376 48399 48459 48489 48461 48463 48475 48440 48390 48346 48466 48346 48400 48413 48444 48472 48463 48470 48484 48428 48493 48343 48444 48377 48359 48309 48518 48405 48409 48449 48463 48465 48527 48507 48394 48426 48367 48381 48379 48291 48245 48226 48223 48253 48307 48338 48360 48436 48451 48452 48415 48373 48404 48399 48423 48468 48507 48562 48598 48649 48710 48740 48782 48805 48844 48839 48867 48853 48832 48796 48795 48849 48862 48916 48958 49037 49097 49193 49269 49323 49363 49408 49439 49491 49530 49565 49600 49659 49727 49815 49922 50050 50163 50262 50342 50374 50390 50410 50432 50454 50455 50442 50419 50408 50353 50363 50409 50457 50482 50497 50491 50454 50341 50379 50411 50660 50937 51082 51088 51019 50941 50883 50874 50885 50915 50916 50907 50857 50841 50808 50813 50726 50685 50646 50601 50552 50559 50552 50576 50555 50514 50461 50393 50310 50261 50255 50242 50170 50140 50164 50242 50411 50758 51083 51272 51309 51227 51037 50717 50711 50648 50779 50918 51030 51250 51267 51152 51067 51001 50898 50814 50767 50770 50710 50733 50770 50837 50863 50862 50854 50849 50832 50808 50804 50769 50722 50674 50593 50565 50539 50540 50540 50535 50508 50487 50481 50448 50399 50345 50288 50240 50161 50120 50102 50112 50109 50060 50017 49956 49905 49868 49835 49833 49810 49715 49623 49537 49487 49447 49418 49393 49378 49368 49359 49363 49375 49373 49366 49290 49200 49104 49039 48989 48940 48930 48908 48905 48922 48951 48975 49064 49124 49124 49058 48990 48921 48852 48807 48822 48882 48971 48989 49004 49051 49059 49102 49137 49094 49035 48963 48950 48900 48877 48843 48824 48784 48782 48730 48675 48667 48646 48611 48564 48509 48472 48450 48417 48401 48353 48286 48400 48433 48426 48395 48322 48250 48191 48088 48049 48054 48064 48102 48117 48127 48104 48069 48022 47997 47947 47908 47843 47767 47705 47672 47668 47675 47687 47690 47712 47752 47785 47851 47872 47920 47984 47992 48040 48007 48034 48072 48165 48327 48500 48671 48832 48943 49084 49215 49299 49377 49462 49552 49598 49669 49676 49727 49751 49825 49886 50004 50076 50060 50040 50010 50007 50024 50047 50074 50107 50117 50155 50153 50186 50206 50217 50221 50217 50233 50202 50223 50244 50276 50297 50350 50387 50388 50404 50402 50398 50381 50331 50304 50310 50287 50274 50253 50243 50277 50280 50305 50308 50314 50264 50193 50124 50096 50068 50058 50052 50047 50051 50078 50094 50112 50115 50132 50146 50116 50062 50075 50092 50117 50166 50206 50245 50258 50281 50285 50295 50320 50309 50250 50191 50132 50092 50084 50079 50048 50013 49986 49969 49975 49982 49983 49938 49833 49694 49584 49550 49552 49595 49594 49553 49535 49532 49508 49436 49386 49308 49215 49115 49010 48920 48868 48840 48811 48797 48785 48770 48768 48785 48775 48751 48704 48668 48623 48612 48605 48596 48571 48571 48573 48566 48569 48585 48573 48560 48531 48542 48575 48616 48630 48663 48685 48713 48769 48822 48861 48907 48927 48962 48984 49077 49141 49165 49173 49163 49183 49189 49121 49109 49113 49099 49093 49081 49079 49130 49172 49181 49185 49223 49227 49248 49263 49302 49326 49355 49344 49340 49316 49318 49291 49310 49302 49309 49306 49328 49330 49337 49357 49377 49347 49321 49299 49286 49263 49254 49273 49257 49269 49302 49312 49343 49397 49415 49400 49365 49391 49460 49541 49614 49688 49745 49794 49802 49900 49976 50017 50029 50039 50049 50056 50034 50052 50025 50032 50003 49982 49941 49924 49899 49812 49699 49537 49443 49376 49341 49265 49168 49058 48937 48849 48797 48723 48665 48549 48444 48433 48483 48593 48672 48782 48824 48838 48861 48939 48969 48998 48993 48947 48953 48906 48934 48937 48970 48982 49047 49055 49123 49165 49221 49261 49339 49174 49271 49242 49302 49386 49386 49468 49471 49491 49489 49557 49539 49533 49508 49445 49448 49426 49427 49440 49464 49487 49498 49523 49539 49531 49481 49424 49404 49427 49476 49579 49659 49692 49703 49704 49705 49680 49689 49720 49678 49642 49575 49512 49540 49517 49574 49642 49731 49819 49880 49867 49858 49899 49904 49943 49962 49977 50003 50025 50028 50103 50159 50205 50230 50211 50222 50155 50153 50171 50140 50184 50128 50163 50206 50167 50225 50189 50258 50173 50182 50127 50134 50159 50100 50130 50174 50158 50202 50154 50223 50196 50168 50182 50124 50161 50173 50149 50176 50158 50238 50259 50250 50275 50248 50197 50181 50144 50170 50169 50125 50109 50111 50114 50121 50145 50104 50057 50000 49964 49934 49922 49910 49913 49902 49932 49923 49926 49945 50024 49995 49986 49946 49924 49910 49906 49909 49922 49916 49960 49987 50045 50056 50041 49994 49935 49897 49846 49814 49803 49808 49798 49799 49824 49788 49830 49705 49673 49642 49616 49601 49589 49577 49622 49593 49598 49615 49681 49760 49794 49759 49794 49794 49873 49851 49863 49889 49853 49888 49880 49934 49965 49942 49882 49821 49755 49707 49637 49660 49663 49710 49712 49722 49723 49709 49679 49627 49561 49484 49429 49418 49360 49384 49349 49514 49588 49633 49734 49792 49802 49758 49686 49668 49662 49624 49619 49608 49636 49655 49671 49641 49646 49635 49600 49533 49518 49503 49504 49494 49503 49476 49440 49406 49372 49333 49325 49228 49177 49115 49124 49084 49068 49089 49146 49190 49246 49329 49348 49413 49355 49341 49347 49326 49329 49342 49395 49400 49405 49399 49338 49298 49340 49301 49579 49570 49601 49677 49710 49797 49767 49820 49796 49763 49779 49750 49742 49657 49650 49632 49637 49697 49736 49769 49790 49766 49794 49797 49778 49816 49776 49786 49715 49749 49721 49711 49670 49634 49637 49573 49659 49642 49709 49729 49689 49606 49544 49518 49479 49446 49407 49451 49413 49428 49397 49400 49408 49346 49381 49404 49406 49385 49362 49447 49440 49424 49433 49404 49371 49323 49293 49268 49278 49208 49268 49225 49324 49344 49432 49467 49453 49477 49416 49505 49459 49434 49457 49423 49469 49455 49490 49573 49655 49662 49721 49794 49756 49755 49770 49659 49716 49836 50058 50060 50140 50208 50189 50168 50186 50184 50230 50274 50279 50202 50178 50122 50122 50154 50181 50186 50135 50121 50094 50051 50010 49985 49982 49978 50021 50075 50159 50233 50278 50310 50345 50345 50279 50246 50195 50181 50088 50130 50063 50071 50020 50032 50067 50054 50111 50138 50139 50153 50157 50167 50130 50175 50187 50195 50207 50189 50199 50309 50242 50314 50290 50309 50353 50295 50369 50429 50446 50428 50468 50435 50443 50422 50359 50317 50182 50205 50134 50143 50150 50105 50093 50089 50081 50049 50036 49969 49919 49828 49834 49821 49811 49835 49863 49823 49878 49994 49947 50063 50006 49988 49910 49855 49826 49823 49846 49874 49832 49787 49798 49675 49793 49724 49688 49624 49574 49592 49551 49604 49588 49626 49581 49527 49481 49456 49380 49286 49237 49204 49153 49199 49184 49382 49362 49484 49546 49639 49650 49685 49627 49543 49444 49409 49410 49471 49447 49532 49543 49649 49679 49726 49695 49696 49675 49647 49659 49634 49659 49592 49657 49598 49679 49677 49710 49721 49681 49643 49635 49590 49606 49604 49629 49625 49658 49646 49641 49590 49537 49475 49402 49360 49318 49276 49266 49258 49279 49250 49253 49240 49205 49163 49106 49030 48994 48936 48932 48900 48941 48935 48999 48983 49013 49028 48960 48901 48854 48931 48862 48904 48945 48922 48904 48854 49133 49189 49235 49254 49230 49203 49132 49175 49170 49153 49123 49143 49103 49121 49087 49103 49050 49012 49029 49061 49065 49239 49274 49346 49374 49501 49466 49909 50050 50013 50028 50050 50175 50247 50312 50386 50427 50443 50448 50433 50427 50348 50337 50323 50300 50351 50309 50331 50354 50345 50354 50346 50293 50195 50105 50055 50028 49965 49974 49946 49928 49896 49875 49854 49788 49697 49605 49517 49478 49450 49452 49438 49436 49430 49432 49445 49450 49362 49302 49259 49230 49207 49220 49242 49252 49279 49287 49325 49333 49288 49233 49198 49179 49176 49179 49233 49223 49286 49364 49432 49320 49063 48996 49085 49294 49497 49578 49618 49724 49784 49734 49801 49875 49895 49946 49991 50028 50080 50139 50173 50204 50206 50166 50204 50227 50262 50244 50270 50297 50300 50276 50358 50425 50500 50541 50582 50630 50602 50560 50558 50577 50609 50639 50641 50688 50713 50693 50701 50705 50662 50681 50594 50607 50650 50637 50636 50635 50693 50675 50681 50687 50673 50612 50582 50525 50491 50474 50478 50471 50464 50475 50485 50472 50446 50381 50355 50307 50255 50271 50256 50223 50217 50206 50199 50162 50137 50018 49989 49917 49923 49930 49896 49929 49877 49880 49834 49813 49754 49702 49710 49710 49725 49761 49759 49717 49658 49623 49564 49612 49653 49722 49762 49796 49883 49879 50009 50057 50093 50101 50276 50197 50243 50267 50293 50301 50338 50376 50422 50483 50532 50616 50612 50612 50592 50626 50648 50696 50681 50724 50776 50788 50817 50843 50817 50763 50725 50699 50693 50718 50723 50700 50664 50659 50740 50879 51055 51109 51112 51180 51178 51149 51360 51550 51646 51748 52090 52201 52288 52393 52487 52550 52595 52715 52763 52846 52900 52958 53010 53073 53117 53187 53231 53279 53335 53373 53405 53442 53482 53531 53564 53590 53628 53653 53693 53724 53744 53768 53794 53812 53829 53813 53782 53758 53579 53431 53402 53420 53408 53396 53408 53345 53343 53394 53393 53394 53374 53321 53291 53275 53244 53142 53070 52993 52970 52974 52972 53038 53214 53346 53420 53507 53588 53650 53730 53798 53858 53936 53994 54019 54068 54096 54158 54189 54203 54236 54255 54296 54314 54327 54345 54401 54424 54448 54503 54519 54543 54563 54583 54586 54609 54622 54630 54604 54575 54429 54315 54239 54234 54181 54170 54137 54077 54044 54051 53996 53914 53809 53693 53581 53487 53433 53395 53370 53294 53237 53185 53269 53400 53336 53390 53437 53463 53462 53486 53494 53544 53586 53644 53693 53715 53737 53769 53752 53785 53780 53792 53773 53697 53612 53744 53739 53672 53526 53494 53452 53480 53489 53479 53461 53459 53447 53489 53466 53475 53479 53486 53499 49027 49032 49053 49052 49051 49071 49082 49083 49099 49075 49063 49008 48983 48960 48929 48944 48871 48708 48661 48630 48555 48439 48302 48200 48082 47966 47921 47850 47760 47705 47647 47573 47519 47370 47185 47090 46954 46854 46760 46672 46577 46507 46463 46357 46299 46127 45980 45832 45799 45714 45673 45629 45578 45511 45498 45476 45390 45245 45133 45013 44964 44889 44862 44799 44840 44797 44832 44784 44744 44672 44575 44483 44474 44411 44443 44426 44443 44429 44480 44482 44469 44386 44335 44261 44268 44260 44234 44246 44240 44205 44261 44249 44243 44180 44106 44045 44076 44080 44103 44110 44101 44114 44155 44157 44136 44060 44055 44002 44021 44010 44028 44042 44054 44084 44110 44112 44119 44063 44024 43998 44034 44026 44037 44077 44055 44070 44120 44120 44080 44048 44041 43966 44053 44073 44089 44115 44168 44160 44210 44194 44188 44131 44081 44065 44070 44076 44070 44098 44106 44145 44138 44132 44077 44032 43985 43964 43956 43971 44002 44001 44025 44029 44084 44070 44053 43974 43950 43942 43897 43885 43868 43870 43865 43838 43868 43786 43808 43753 43712 43690 43680 43647 43675 43643 43622 43629 43598 43616 43484 43547 43528 43506 43541 43520 43538 43528 43536 43524 43507 43431 43371 43302 43298 43300 43273 43291 43287 43305 43308 43338 43303 43266 43220 43212 43191 43208 43211 43255 43245 43234 43242 43224 43245 43190 43130 43075 43062 43083 43068 43083 43100 43129 43147 43182 43164 43148 43100 43107 43083 43126 43172 43212 43322 43378 43468 43541 43511 43535 43439 43497 43464 43454 43488 43464 43474 43441 43447 43471 43362 43339 43303 43256 43276 43276 43258 43242 43284 43280 43329 43301 43368 43290 43336 43323 43329 43319 43347 43319 43291 43283 43255 43219 43171 43101 43084 43053 43050 43040 43038 43006 43040 43026 43088 43067 43015 42988 42993 42971 43036 43003 43056 43050 43072 43066 43055 43011 42936 42925 42899 42912 42891 42904 42920 42924 42926 42929 42926 42919 42888 42903 42927 42936 42964 42960 42979 42982 42976 43013 42983 42924 42882 42836 42909 42860 42959 43003 43059 43063 43128 43120 43122 43090 43081 43088 43079 43063 43100 43092 43055 43101 43070 43028 42980 42959 42941 42936 42954 42967 43013 42977 43031 42970 42964 42959 42899 42822 42787 42793 42791 42833 42831 42858 42885 42920 42963 42909 42979 42996 43025 43055 43126 43096 43125 43166 43180 43204 43174 43158 43125 43124 43094 43127 43089 43113 43117 43122 43144 43134 43103 43066 43031 42996 42993 42958 42921 42975 42994 42979 43037 43062 43039 43052 43043 43024 43026 43013 43004 42976 42945 42954 42941 42925 42890 42829 42823 42784 42756 42757 42720 42693 42766 42731 42849 42838 42898 42867 42906 42910 42962 42961 42994 42979 42992 43043 43026 42998 42983 42942 42945 42941 42972 42942 42986 42949 43047 43040 43002 43038 42976 42953 42959 42976 42977 42973 42966 42971 43008 42996 42972 42951 42920 42941 42914 42934 42930 42935 42960 42997 42996 43007 42942 42965 42964 42960 42988 43035 43019 43065 43106 43126 43182 43174 43161 43151 43188 43209 43254 43262 43324 43338 43361 43405 43363 43373 43343 43299 43276 43281 43241 43292 43278 43221 43300 43309 43237 43256 43266 43232 43263 43249 43215 43284 43250 43256 43316 43273 43200 43224 43164 43182 43188 43183 43161 43147 43177 43105 43198 43135 43178 43113 43187 43136 43229 43243 43260 43276 43274 43282 43311 43310 43226 43312 43268 43322 43396 43376 43396 43398 43434 43434 43453 43422 43403 43406 43405 43410 43358 43458 43449 43505 43519 43520 43471 43470 43452 43412 43456 43441 43434 43456 43473 43424 43526 43499 43510 43491 43494 43454 43487 43475 43491 43489 43491 43475 43502 43474 43493 43463 43432 43428 43391 43401 43411 43410 43407 43418 43428 43403 43379 43350 43349 43294 43327 43320 43320 43328 43328 43309 43303 43250 43225 43155 43131 43112 43110 43096 43102 43095 43085 43088 43110 43076 43069 43030 43005 43014 43005 43010 43026 42995 43013 43024 42991 42971 42904 42864 42839 42809 42798 42798 42795 42803 42808 42784 42795 42733 42741 42671 42676 42643 42649 42659 42689 42702 42708 42741 42730 42722 42688 42663 42672 42669 42686 42694 42689 42663 42674 42685 42692 42658 42609 42617 42598 42633 42657 42723 42748 42815 42818 42897 42928 42886 42876 42842 42866 42864 42905 42906 42906 42924 42914 42949 42930 42940 42928 42889 42889 42863 42871 42859 42847 42855 42845 42864 42843 42861 42845 42859 42873 42846 42876 42873 42879 42886 42885 42882 42861 42863 42818 42812 42779 42792 42803 42807 42837 42838 42842 42854 42856 42875 42809 42860 42826 42843 42872 42853 42889 42895 42906 42891 42923 42887 42890 42862 42878 42855 42865 42845 42879 42859 42867 42873 42870 42847 42837 42799 42772 42827 42816 42896 42930 42970 43001 43038 43072 43054 43036 43046 43040 43076 43148 43224 43279 43342 43368 43376 43386 43376 43345 43299 43284 43238 43241 43220 43181 43189 43171 43175 43154 43122 43073 43029 43006 42968 42965 42924 42931 42907 42886 42880 42887 42868 42812 42780 42740 42741 42735 42735 42806 42809 42854 42859 42867 42859 42824 42782 42756 42733 42695 42689 42683 42701 42690 42690 42704 42817 42946 42969 43001 43019 43004 43034 43058 43092 43097 43053 43015 42972 43032 43135 43302 43423 43583 43719 43811 43842 43879 43932 43992 44045 44075 44060 44076 44066 44066 44050 44059 44069 44075 44070 44092 44089 44081 44055 44022 44003 43982 43991 43962 43918 43883 43863 43864 43865 43883 43866 43874 43886 43894 43893 43898 43897 43899 43893 43901 43941 43973 43977 43960 43962 43922 43951 43900 43956 43912 43916 43941 43933 43920 43866 43826 43765 43767 43752 43742 43732 43744 43701 43712 43697 43705 43680 43615 43614 43535 43505 43516 43502 43486 43497 43491 43500 43490 43450 43389 43370 43327 43339 43307 43297 43270 43251 43266 43215 43225 43215 43150 43124 43092 43050 43013 43021 43005 42973 43000 42991 43000 42989 42985 42978 42974 42985 43020 43053 43103 43092 43095 43116 43102 43150 43111 43104 43068 43049 43065 43059 43047 43054 43042 43059 43064 43074 43033 43032 42992 42994 42997 42996 42989 42992 43001 42989 43012 42967 42930 42892 42929 42872 42875 42905 42849 42899 42892 42871 42971 42954 42973 42987 42956 42968 42962 42984 42980 43033 43045 43034 43084 43068 43046 43012 42972 42972 42970 42960 42978 42965 43075 43110 43219 43222 43264 43205 43219 43242 43161 43224 43242 43253 43232 43288 43280 43271 43278 43240 43248 43255 43247 43258 43279 43279 43279 43273 43314 43299 43271 43222 43225 43190 43204 43186 43190 43167 43188 43165 43182 43129 43114 43084 43037 43024 43008 43021 43006 43012 43004 42990 42986 42981 42924 42888 42833 42834 42816 42839 42841 42848 42858 42870 42861 42847 42817 42742 42822 42772 42821 42823 42841 42826 42864 42890 42898 42863 42820 42778 42754 42701 42712 42666 42664 42654 42612 42595 42606 42668 42692 42673 42634 42654 42644 42640 42638 42633 42605 42652 42643 42649 42649 42623 42612 42628 42600 42631 42646 42658 42674 42651 42647 42660 42668 42719 42736 42781 42826 42842 42874 42855 42870 42873 42872 42845 42832 42790 42793 42791 42762 42751 42757 42730 42725 42730 42700 42717 42679 42646 42629 42647 42666 42671 42697 42700 42737 42770 42773 42817 42808 42778 42791 42777 42781 42795 42789 42801 42766 42788 42816 42795 42803 42818 42838 42920 42954 43042 43094 43129 43155 43161 43134 43135 43105 43184 43179 43200 43183 43223 43218 43246 43279 43297 43318 43337 43311 43321 43296 43325 43301 43318 43295 43314 43303 43319 43319 43322 43335 43348 43373 43397 43438 43440 43485 43502 43505 43503 43468 43445 43427 43445 43500 43541 43570 43530 43515 43490 43489 43515 43515 43534 43586 43609 43646 43711 43788 43868 43933 44021 44078 44148 44203 44241 44273 44309 44349 44397 44413 44463 44488 44504 44519 44559 44574 44546 44523 44514 44505 44502 44518 44535 44551 44567 44595 44585 44597 44624 44676 44677 44701 44694 44755 44721 44727 44719 44724 44697 44663 44592 44540 44482 44441 44367 44358 44317 44293 44291 44253 44241 44236 44121 44083 44013 43972 43956 43918 43882 43865 43847 43819 43766 43736 43663 43599 43559 43483 43496 43411 43450 43395 43388 43371 43385 43310 43266 43198 43171 43121 43120 43100 43100 43107 43103 43100 43100 43091 43010 42984 42944 42915 42866 42935 42930 42949 42936 42954 42948 42958 42932 42908 42854 42876 42856 42862 42885 42896 42910 42882 42913 42893 42862 42835 42794 42805 42766 42752 42759 42755 42774 42708 42677 42631 42574 42498 42498 42553 42692 42840 42994 43102 43222 43321 43380 43476 43506 43533 43570 43577 43604 43637 43678 43738 43727 43813 43825 43874 43883 43899 43883 43903 43921 43929 43921 43946 43941 43970 43943 43995 43973 43963 43940 43915 43896 43893 43913 43919 43887 43907 43917 43903 43918 43867 43879 43854 43826 43574 43462 43435 43440 43472 43486 43517 43551 43572 43556 43600 43579 43568 43589 43614 43628 43573 43545 43513 43514 43497 43500 43506 43544 43582 43581 43628 43614 43589 43619 43602 43601 43567 43570 43515 43462 43392 43346 43325 43284 43233 43188 43159 43178 43197 43197 43210 43175 43131 43061 43059 43031 43072 43143 43221 43260 43252 43265 43230 43225 43218 43165 43095 43090 43065 43071 43077 43087 43060 43067 42988 43038 42965 42933 42864 42804 42740 42705 42665 42589 42600 42543 42498 42433 42412 42333 42296 42277 42304 42357 42356 42403 42403 42460 42471 42478 42498 42449 42398 42420 42350 42368 42342 42319 42302 42296 42283 42229 42264 42269 42300 42280 42252 42259 42238 42253 42277 42275 42270 42310 42295 42325 42301 42278 42224 42191 42181 42138 42130 42137 42140 42097 42123 42122 42099 42132 42017 42064 42025 42032 42055 42023 42027 41994 41995 41997 41999 42022 41946 41991 41967 41988 41995 41976 41942 41932 41899 41873 41841 41864 41822 41772 41773 41701 41753 41760 41760 41777 41792 41799 41834 41859 41874 41939 41962 41972 41971 41980 41972 41971 41965 41955 41960 41939 41956 41930 41897 41886 41844 41831 41802 41788 41809 41817 41838 41878 41899 41926 41974 41945 41965 41982 41963 42008 41984 42002 41984 41981 41965 41959 41969 41940 41893 41851 41857 41842 41842 41834 41851 41868 41905 41928 41958 42016 41978 41987 41961 41985 42015 42000 42005 41975 41996 41991 42007 42031 41993 42030 41970 41989 41987 41974 42020 42041 42016 42093 42140 42152 42141 42127 42099 42088 42075 42032 42057 42082 42054 42062 42070 42084 42137 42126 42131 42109 42079 42066 42047 42106 42118 42125 42161 42160 42206 42239 42236 42215 42173 42172 42120 42112 42090 42095 42101 42076 42187 42200 42268 42281 42287 42268 42242 42243 42254 42442 42641 42961 43245 43295 43281 43245 43105 42992 42967 42936 42957 42985 43014 43034 43059 43102 43180 43226 43253 43273 43238 43213 43198 43209 43199 43118 43159 43260 43374 43493 43579 43624 43639 43646 43674 43663 43726 43768 43800 43815 43824 43819 43832 43828 43805 43764 43706 43656 43626 43617 43595 43558 43539 43520 43524 43502 43500 43486 43402 43354 43302 43321 43314 43248 43275 43178 43209 43177 43199 43178 43153 43084 43024 43003 42978 42975 42950 42887 42861 42952 43061 43130 43210 43219 43250 43207 43220 43170 43092 43086 43048 43034 43041 43022 43043 43016 43041 42993 42980 42945 42969 43043 43152 43188 43222 43251 43246 43288 43163 43237 43132 43079 43054 43037 42999 42998 43010 43006 43016 42994 43011 43000 42999 42949 42911 42848 42804 42787 42752 42717 42692 42700 42700 42714 42698 42687 42638 42671 42717 42746 42792 42799 42799 42799 42851 42770 42906 42950 42917 42886 42902 42846 42863 42884 42887 42919 42938 42935 42942 42955 42910 42842 42827 42775 42725 42718 42725 42700 42777 42754 42813 42779 42812 42760 42712 42640 42610 42554 42600 42555 42536 42563 42580 42564 42563 42498 42416 42365 42341 42281 42266 42239 42272 42300 42346 42365 42405 42386 42349 42269 42201 42178 42151 42266 42359 42391 42418 42490 42504 42570 42540 42574 42504 42499 42523 42487 42518 42545 42579 42642 42707 42769 42833 42829 42799 42765 42729 42709 42641 42639 42622 42588 42635 42605 42649 42707 42657 42734 42698 42707 42765 42784 42834 42865 42876 42926 42953 42960 42947 42918 42877 42815 42826 42792 42785 42786 42802 42810 42826 42815 42823 42757 42702 42648 42609 42581 42570 42614 42638 42701 42728 42754 42766 42756 42723 42683 42654 42612 42589 42568 42571 42609 42590 42633 42620 42589 42580 42520 42469 42483 42454 42504 42527 42552 42549 42572 42577 42584 42594 42554 42500 42501 42451 42462 42436 42489 42469 42490 42524 42535 42594 42558 42556 42534 42515 42532 42532 42592 42618 42654 42675 42701 42705 42722 42697 42653 42600 42570 42549 42570 42579 42579 42569 42558 42545 42547 42534 42539 42507 42509 42534 42615 42816 42975 43102 43167 43234 43252 43272 43241 43201 43170 43100 43078 43073 43052 43054 42993 43077 43054 43094 43065 43051 43038 43031 43042 43030 43037 43057 43076 43080 43105 43127 43123 43101 43066 43022 42997 42979 42931 42916 42908 42917 42900 42910 42910 42875 42862 42850 42819 42862 42836 42884 42913 42916 42952 42977 42979 43026 43059 43048 43101 43055 43118 43128 43122 43143 43145 43138 43135 43129 43105 43049 43037 43016 43021 42996 43051 43049 43015 43059 43042 43053 43007 42946 42930 42885 42833 42826 42863 42870 42878 42880 42866 42883 42855 42804 42757 42682 42676 42671 42638 42702 42689 42760 42749 42759 42772 42711 42732 42673 42660 42626 42625 42641 42651 42699 42732 42758 42734 42732 42670 42595 42553 42619 42593 42659 42668 42711 42726 42804 42798 42738 42627 42578 42478 42491 42454 42487 42489 42472 42464 42495 42511 42496 42427 42366 42289 42300 42304 42276 42491 42546 42682 42720 42807 42840 42835 42920 42922 42924 42909 42904 42997 42978 43080 43068 43151 43098 43177 43139 43150 43104 43181 43113 43246 43264 43298 43309 43371 43257 43391 43369 43381 43399 43431 43411 43435 43488 43509 43558 43595 43527 43547 43486 43561 43533 43574 43603 43539 43655 43640 43681 43688 43689 43628 43686 43666 43674 43712 43746 43768 43787 43824 43806 43852 43835 43811 43797 43791 43793 43792 43800 43817 43856 43847 43963 43940 43944 43908 43890 43887 43913 43895 43906 43911 43927 43893 43916 43931 43898 43888 43885 43827 43875 43880 43910 43912 43861 43930 43852 43852 43743 43811 43699 43814 43812 43817 43781 43813 43803 43817 43785 43784 43748 43711 43781 43752 43768 43740 43771 43743 43794 43741 43708 43647 43642 43577 43689 43598 43723 43743 43787 43814 43833 43747 43769 43753 43742 43746 43664 43788 43775 43847 43897 43852 43793 43813 43812 43787 43815 43737 43825 43834 43836 43879 43901 43854 43851 43842 43800 43800 43748 43820 43758 43878 43849 43910 43877 43883 43854 43850 43872 43815 43866 43868 43863 43913 43929 43919 43918 43855 43815 43875 43785 43860 43858 43844 43907 43905 43884 43908 43873 43816 43824 43768 43780 43800 43829 43859 43854 43874 43864 43860 43808 43797 43674 43752 43767 43766 43783 43773 43794 43744 43793 43714 43643 43635 43629 43618 43640 43642 43639 43670 43686 43712 43638 43596 43606 43593 43605 43622 43608 43591 43645 43633 43635 43559 43593 43541 43469 43527 43487 43507 43535 43436 43533 43519 43575 43556 43511 43462 43468 43462 43503 43497 43477 43503 43495 43511 43480 43427 43365 43328 43332 43350 43347 43387 43397 43365 43421 43453 43463 43467 43445 43424 43460 43511 43492 43566 43573 43591 43610 43618 43605 43535 43558 43536 43562 43570 43603 43593 43659 43681 43714 43716 43701 43702 43629 43640 43574 43755 43750 43913 43705 43955 43921 44018 44031 43984 44015 44044 44075 44124 44135 44148 44153 44195 44200 44195 44191 44203 44185 44197 44227 44247 44241 44252 44282 44288 44269 44266 44256 44264 44278 44281 44300 44290 44308 44320 44345 44295 44353 44329 44292 44334 44350 44332 44322 44364 44375 44365 44357 44369 44318 44292 44281 44275 44305 44282 44286 44288 44306 44290 44277 44231 44202 44188 44159 44154 44199 44185 44210 44221 44198 44193 44178 44111 44094 44039 43993 44016 43978 43970 43979 43977 44022 43972 43974 43922 43877 43780 43797 43812 43784 43751 43777 43760 43768 43769 43711 43681 43629 43624 43625 43631 43683 43766 43831 43868 43929 43874 43772 43698 43614 43583 43553 43559 43570 43604 43620 43646 43597 43585 43516 43494 43452 43484 43467 43493 43486 43464 43454 43534 43473 43460 43389 43352 43318 43268 43319 43345 43368 43409 43410 43475 43467 43416 43388 43350 43339 43326 43357 43343 43342 43359 43373 43385 43384 43326 43297 43273 43260 43317 43292 43327 43353 43371 43372 43329 43316 43293 43276 43259 43209 43345 43317 43371 43412 43445 43502 43511 43525 43536 43512 43501 43497 43503 43536 43559 43582 43593 43631 43633 43657 43650 43651 43666 43672 43702 43729 43763 43764 43751 43753 43761 43687 43680 43649 43628 43599 43606 43652 43649 43666 43689 43693 43712 43694 43746 43781 43853 43910 43955 44009 44050 44048 44039 44041 43975 43961 43821 43835 43770 43754 43732 43752 43802 43812 43827 43844 43802 43706 43633 43574 43525 43454 43389 43311 43271 43220 43203 43223 43170 43112 43050 43019 43026 43034 43061 43055 43061 43050 43042 43043 42991 42935 42897 42865 42950 42973 43053 43092 43156 43192 43219 43203 43139 43061 42994 42976 42891 42952 42888 42943 43016 42988 43097 43031 43062 42973 42968 42956 42927 42940 42924 42931 42950 42976 43053 43052 43074 43078 43109 43130 43186 43270 43313 43383 43442 43430 43482 43472 43379 43391 43320 43316 43307 43314 43302 43238 43278 43252 43238 43172 43128 43069 43047 43046 43053 43093 43106 43137 43170 43249 43266 43270 43292 43250 43302 43318 43360 43389 43452 43489 43523 43592 43611 43608 43561 43546 43502 43496 43490 43490 43493 43477 43472 43495 43433 43347 43322 43252 43276 43266 43327 43316 43369 43358 43375 43390 43328 43357 43300 43282 43244 43226 43240 43238 43268 43273 43332 43296 43274 43232 43207 43159 43157 43139 43104 43107 43084 43127 43116 43181 43114 43129 43086 43098 43099 43111 43094 43134 43141 43151 43162 43150 43094 43078 43042 43066 43057 43092 43148 43161 43191 43238 43277 43212 43243 43226 43202 43210 43252 43301 43306 43347 43386 43403 43396 43354 43330 43332 43336 43341 43363 43356 43421 43495 43548 43543 43552 43560 43560 43539 43578 43585 43608 43638 43636 43624 43704 43650 43629 43573 43501 43513 43533 43540 43573 43613 43588 43558 43393 43200 43166 43245 43324 43438 43470 43527 43562 43590 43618 43618 43576 43550 43502 43507 43570 43602 43654 43692 43706 43706 43707 43689 43641 43548 43530 43535 43564 43631 43658 43693 43651 43720 43742 43762 43716 43631 43591 43574 43553 43546 43553 43527 43537 43529 43504 43412 43363 43314 43244 43204 43188 43225 43280 43267 43380 43402 43427 43341 43277 43245 43240 43218 43281 43293 43310 43343 43388 43439 43395 43363 43337 43298 43269 43278 43201 43278 43322 43294 43327 43291 43226 43218 43152 43111 43072 43087 43086 43069 43065 43075 43021 42964 42906 42863 42868 42870 42882 42910 42932 42945 42951 42956 42931 42871 42833 42816 42831 42856 42915 42975 43000 43039 43029 43020 42988 42961 42936 42929 42940 42955 42959 42994 43010 43043 43029 42967 42900 42846 42891 42859 42994 42960 43068 43084 43175 43180 43175 43123 43150 43095 43137 43123 43164 43159 43233 43194 43308 43237 43229 43186 43206 43225 43304 43332 43297 43377 43422 43387 43468 43470 43398 43410 43409 43390 43494 43572 43612 43659 43671 43674 43622 43578 43530 43525 43513 43528 43532 43547 43578 43573 43557 43611 43535 43568 43571 43588 43557 43640 43594 43667 43671 43691 43696 43488 43660 43691 43719 43735 43826 43858 43887 43939 43955 43933 43888 43848 43809 43829 43871 43899 43936 43948 43983 43994 43976 43934 43870 43861 43816 43834 43857 43882 43923 43981 44036 44049 44083 44002 43989 43963 43982 43981 43999 44026 44050 44045 44053 44011 43962 43913 43910 43909 43945 43958 43946 43986 43918 43963 43916 43855 43797 43782 43821 43862 43911 43957 43956 43958 43970 43920 43819 43732 43658 43601 43596 43616 43629 43624 43645 43612 43552 43403 43323 43280 43231 43221 43215 43195 43197 43283 43318 43310 43247 43219 43155 43203 43206 43213 43219 43259 43254 43309 43271 43209 43182 43149 43147 43177 43204 43239 43258 43283 43270 43213 43129 43074 43048 43102 43132 43213 43280 43310 43340 43336 43270 43211 43149 43095 43066 43061 43070 43059 43137 43122 43109 43088 42998 42939 42883 42871 42873 42845 42871 42872 42918 42932 42943 42908 42888 42894 42943 42980 43064 43132 43155 43186 43183 43147 43090 43072 43059 43067 43110 43150 43212 43223 43234 43242 43204 43156 43150 43168 43199 43248 43300 43338 43386 43418 43435 43449 43448 43404 43416 43406 43413 43453 43551 43580 43611 43631 43593 43551 43518 43475 43473 43459 43468 43466 43479 43507 43514 43524 43478 43446 43452 43453 43465 43499 43525 43522 43554 43558 43585 43539 43539 43505 43497 43467 43507 43530 43521 43620 43672 43670 43647 43592 43564 43581 43560 43608 43635 43641 43654 43649 43572 43460 43405 43396 43389 43360 43363 43354 43330 43278 43280 43139 43066 42972 42950 42927 42982 42975 42985 42957 42963 42987 42893 42870 42809 42805 42799 42820 42835 42880 42899 42926 42903 42778 42714 42666 42647 42632 42635 42690 42674 42877 42957 42874 42950 42882 42860 42826 42846 42831 42852 42870 42866 42872 42919 42826 42782 42729 42700 42698 42781 42760 42773 42783 42815 42773 42730 42652 42606 42636 42719 42701 42738 42804 42791 42805 42779 42714 42675 42647 42711 42728 42758 42877 42907 42976 43001 42963 42989 42950 42961 42973 42988 43002 43014 43004 43000 42984 42916 42857 42821 42799 42785 42790 42805 42811 42829 42826 42813 42760 42743 42715 42732 42784 42822 42854 42905 42923 42956 42943 42907 42896 42881 42914 42931 42965 42977 42996 43030 43053 43083 43069 43063 43114 43131 43180 43200 43238 43241 43272 43244 43238 43089 42920 42820 42701 42631 42553 42704 43063 43366 43513 43514 43692 43910 44123 44441 44808 45141 45469 45759 46034 46324 46565 46792 47011 47216 47406 47599 47784 47928 48067 48183 48311 48439 48561 48658 48769 48846 48935 49021 49066 49129 49194 49228 49237 49221 49233 49275 49250 49259 49242 49153 49011 48836 48701 48592 48564 48510 48481 48441 48436 48375 48202 48031 47864 47713 47572 47473 47335 47276 47173 47116 46987 46800 46618 46483 46463 46345 46328 46241 46245 46226 46208 46104 45945 45822 45716 45591 45533 45494 45442 45399 45332 45235 45062 44903 44831 44732 44719 44658 44641 44595 44604 44523 44384 44254 44157 44085 44120 44112 44081 44137 44084 44120 43983 43843 43779 43703 43659 43662 43633 43622 43603 43725 43651 43610 43520 43462 43404 43430 43420 43442 43480 43513 43499 43482 43421 43440 43424 43465 43457 43495 43539 43585 43615 43579 43522 43486 43471 43502 43496 43532 43544 43630 43669 43725 43706 43691 43726 43705 43784 43810 43931 43959 44050 44044 44047 44022 44041 44078 44111 44122 44199 44208 44291 44267 44333 44258 44193 44135 44161 44141 44159 43995 43816 43864 43836 43860 43971 44043 44064 44023 43970 43893 43808 43754 43711 43653 43595 43561 43479 43438 43403 43370 43365 43349 43392 43397 43367 43406 43449 43520 43600 43675 43790 43819 43738 43864 44108 44221 44364 44610 44717 44595 44534 44812 44985 45104 45245 45363 45473 45514 45524 45552 45595 45626 45560 45461 45408 45403 45382 45334 45321 45286 45240 45232 45204 45115 45113 45026 45028 44937 44821 44725 44698 44666 44679 44667 44673 44569 44422 44258 44181 44165 44106 44004 44083 44076 44093 44091 44072 43900 43733 43684 43564 43534 43545 43519 43525 43560 43480 43385 43237 43145 43062 43061 43107 43093 43116 43133 43123 43136 42992 42893 42812 42853 42900 42997 43039 43076 43085 43135 43101 43013 43018 43013 42985 43084 43122 43135 43221 43307 43278 43247 43163 43189 43176 43196 43269 43294 43344 43372 43405 43416 43382 43308 43375 43388 43450 43481 43560 43587 43606 43580 43645 43576 43574 43579 43587 43622 43639 43676 43680 43696 43694 43666 43633 43617 43573 43641 43632 43669 43721 43745 43751 43712 43673 43665 43699 43710 43757 43818 43845 43958 43980 44026 44059 44010 44027 44038 44072 44073 44089 44103 44121 44167 44132 44162 44129 44117 44088 44085 44099 44043 44080 44082 44133 44115 44073 44068 44079 44054 44142 44174 44231 44238 44262 44287 44213 44147 44116 44083 43994 44059 44029 44042 44089 44073 44110 44033 43977 43919 43936 43935 43908 43934 43944 43966 43954 43915 43817 43808 43759 43769 43823 43867 43862 43889 43927 43932 43839 43695 43722 43700 43718 43730 43797 43800 43846 43939 43957 43873 43864 43880 43849 43889 43943 43961 44061 44104 44133 44094 43983 43990 43964 44003 44051 44085 44140 44123 44198 44256 44194 44139 44110 44085 44107 44095 44095 44118 44204 44258 44186 44251 44198 44263 44270 44330 44388 44361 44420 44411 44395 44344 44264 44184 44137 44124 44116 44142 44199 44229 44267 44295 44309 44245 44207 44235 44274 44288 44337 44306 44345 44352 44366 44314 44267 44268 44261 44250 44304 44335 44412 44426 44439 44409 44312 44323 44315 44293 44301 44277 44337 44295 44394 44357 44340 44307 44328 44363 44340 44401 44386 44442 44479 44488 44442 44386 44361 44296 44320 44336 44359 44334 44264 44188 44052 43899 43756 43707 43675 43709 43762 43799 43779 43935 43911 43986 43911 43919 43923 43934 44008 44029 44090 44094 44115 44118 44036 43971 43940 43931 43972 44014 44035 44063 44076 44066 43964 43868 43773 43730 43736 43754 43773 43838 43915 43978 44031 44038 43962 43971 43978 44103 44179 44232 44290 44300 44287 44255 44205 44197 44183 44184 44231 44273 44340 44374 44418 44415 44345 44293 44246 44225 44192 44195 44220 44212 44213 44228 44191 44162 44143 44152 44294 44395 44448 44517 44590 44665 44711 44738 44775 44792 44871 44864 44928 44965 44886 44989 45152 45156 45267 45350 45532 45587 45643 45662 45565 45372 45231 45431 45630 45638 45678 45727 45766 45746 45823 45863 45883 45889 45819 45767 45775 45693 45676 45688 45551 45554 45410 45415 45383 45290 45234 45197 45166 45150 45126 45104 45106 45119 45116 45159 45262 45351 45480 45608 45765 45975 46114 46182 46270 46390 46558 46574 46581 46631 46521 46331 46088 45954 45915 45879 45792 45638 45517 46074 45990 46055 45990 45992 45954 45871 45781 45729 45636 45516 45484 45372 45284 45209 45172 45041 44904 44811 44677 44602 44572 44531 44504 44515 44542 44489 44444 44424 44426 44481 44461 44462 44448 44446 44442 44401 44214 44041 43973 43892 43867 43844 43851 43827 43859 43843 43698 43610 43488 43463 43460 43490 43472 43553 43554 43598 43606 43574 43568 43550 43541 43594 43627 43665 43707 43759 43734 43679 43585 43574 43535 43556 43550 43545 43521 43516 43502 43411 43400 43401 43429 43503 43572 43626 43690 43770 43797 43786 43738 43700 43717 43742 43805 43852 43914 43959 43984 43886 43815 43715 43640 43586 43558 43522 43517 43516 43495 43443 43396 43337 43376 43447 43569 43669 43763 43877 43912 44014 44016 44011 44040 44092 44115 44157 44163 44209 44183 44211 44110 43924 43967 43919 43934 43913 43885 43920 43960 43905 43874 43803 43725 43691 43741 43777 43840 43834 43837 43874 43842 43826 43860 43861 43875 43865 43897 43870 43820 43750 43629 43435 43299 43228 43194 43195 43190 43221 43248 43315 43318 43239 43263 43245 43285 43290 43299 43432 43453 43532 43618 43602 43620 43609 43659 43720 43731 43742 43789 43881 43912 43844 43713 43633 43595 43608 43649 43696 43719 43756 43801 43808 43805 43741 43905 43951 44059 44132 44189 44253 44294 44377 44341 44361 44382 44387 44413 44480 44521 44564 44568 44614 44527 44470 44415 44400 44370 44408 44394 44447 44443 44466 44401 44341 44327 44301 44277 44262 44364 44443 44445 44435 44512 44554 44433 44421 44423 44376 44363 44290 44282 44384 44501 44498 44529 44483 44417 44370 44328 44283 44340 44359 44388 44233 44035 43896 43715 43596 43519 43436 43340 43272 43240 43156 43006 42862 42905 42915 43005 43016 43002 42960 42908 42906 42799 42645 42495 42366 42344 42286 42232 42197 42152 42156 42062 41999 41962 41946 41947 41982 42046 42063 42061 42055 42009 41884 41828 41782 41750 41829 41824 41953 41954 41989 41993 41973 41994 42010 42046 42031 42095 42172 42177 42170 42102 42025 41973 41929 42002 42014 42000 42023 42101 42179 42183 42206 42205 42224 42257 42313 42371 42397 42488 42485 42523 42514 42598 42496 42717 42981 43238 43481 43626 43711 43743 43766 43714 43692 43660 43647 43632 43651 43629 43611 43576 43526 43443 43377 43401 43368 43501 43529 43572 43570 43590 43562 43503 43445 43446 43537 43641 43734 43844 43989 44136 44255 44312 44301 44264 44219 44200 44133 44111 44068 44036 44008 43965 43875 43830 43772 43705 43654 43643 43634 43625 43632 43631 43597 43548 43401 43199 43070 43017 43029 43132 43325 43621 43834 43907 43973 44051 44115 44165 44238 44341 44430 44493 44558 44474 44438 44436 44355 44374 44428 44419 44442 44382 44383 44325 44213 44125 44084 44059 44034 44070 44111 44177 44210 44235 44156 44090 44111 44109 44161 44199 44225 44288 44286 44227 44110 44032 44004 44013 43999 44007 43996 44023 43998 43955 43821 43702 43618 43564 43549 43526 43525 43556 43564 43547 43456 43333 43278 43247 43280 43300 43308 43316 43345 43391 43340 43274 43197 43102 43024 42971 42970 43018 43081 43145 43137 43089 43079 43077 43074 43144 43163 43275 43308 43340 43372 43400 43328 43405 43415 43526 43653 43790 43840 43896 44060 44389 44763 44817 44804 44604 44480 44459 44449 44541 44568 44551 44495 44430 44398 44406 44419 44440 44429 44430 44438 44432 44392 44314 44290 44285 44292 44326 44346 44364 44409 44428 44425 44384 44385 44376 44430 44474 44522 44579 44612 44641 44636 44574 44519 44498 44529 44564 44596 44622 44641 44652 44626 44555 44456 44376 44336 44296 44324 44333 44333 44367 44387 44394 44356 44316 44301 44305 44333 44380 44423 44441 44429 44412 44275 44169 44110 44087 44084 44116 44142 44156 44164 44194 44103 43970 43857 43837 43866 43875 43870 43863 43940 43937 43926 43862 43800 43828 43779 43912 43989 44040 44078 44089 44142 44028 43871 43767 43723 43693 43680 43644 43676 43724 43759 43705 43573 43467 43408 43441 43497 43596 43631 43662 43665 43648 43559 43515 43533 43552 43583 43633 43693 43752 43798 43847 43777 43773 43742 43740 43773 43843 43890 43963 44050 44100 44114 44067 44003 43957 43938 44008 44052 44061 44051 44041 43997 43903 43800 43701 43635 43643 43701 43778 43831 43878 43965 43974 43931 43949 43986 44030 44094 44164 44207 44259 44317 44333 44329 44300 44393 44470 44524 44596 44617 44661 44712 44741 44729 44687 44658 44677 44694 44747 44789 44842 44890 44918 44945 44926 44930 44916 44945 44958 45006 45017 45041 45029 45009 44943 44856 44841 44874 44875 44853 44862 44850 44931 44970 44969 44909 44852 44799 44841 44857 44879 44900 44936 44945 44959 44942 44860 44883 44896 44938 44978 44999 45025 45040 45039 44962 44871 44821 44818 44840 44875 44875 44856 44858 44912 44883 44804 44694 44642 44668 44738 44743 44770 44778 44778 44760 44673 44602 44547 44609 44653 44699 44737 44732 44774 44795 44741 44628 44563 44558 44575 44586 44608 44607 44623 44628 44589 44516 44484 44463 44493 44523 44561 44553 44579 44599 44627 44591 44579 44589 44616 44680 44756 44792 44846 44897 44924 44945 44920 44909 44904 44905 44896 44922 44987 45068 45140 45173 45147 45100 45083 45094 45089 45076 45094 45105 45120 45173 45202 45242 45257 45282 45283 45317 45354 45370 45384 45412 45416 45411 45417 45411 45429 45432 45476 45514 45540 45559 45544 45497 45441 45394 45393 45389 45400 45426 45462 45551 45734 45896 46003 46023 45996 45948 45932 45973 45999 46000 46001 45985 45909 45841 45750 45699 45686 45661 45632 45654 45666 45655 45608 45508 45407 45322 45266 45276 45270 45243 45293 45355 45434 45384 45332 45272 45240 45265 45342 45402 45412 45438 45474 45476 45396 45318 45275 45248 45247 45255 45262 45297 45338 45356 45313 45194 45129 45092 45085 45106 45124 45170 45180 45207 45232 45155 45076 45035 45033 45062 45095 45127 45167 45200 45229 45225 45174 45134 45145 45173 45192 45216 45234 45258 45306 45362 45317 45281 45274 45318 45402 45458 45570 45612 45714 45762 45796 45712 45695 45661 45665 45680 45731 45766 45808 45910 45921 45967 45891 45878 45836 45832 45831 45831 45841 45854 45926 45942 45921 45851 45781 45733 45702 45691 45701 45704 45734 45743 45722 45657 45595 45547 45524 45503 45524 45504 45500 45486 45521 45601 45770 45882 46026 46063 46181 46194 46255 46331 46434 46421 46388 46270 46093 45879 45829 45771 45797 45715 45780 45792 45818 45745 45728 45656 45680 45653 45647 45654 45639 45652 45638 45556 45481 45480 45435 45438 45481 45505 45541 45590 45579 45550 45468 45420 45343 45187 45079 44973 44978 44983 45006 44997 44920 44817 44759 44754 44747 44759 44760 44753 44771 44768 44745 44637 44561 44507 44531 44558 44588 44600 44605 44607 44615 44545 44473 44426 44399 44418 44448 44481 44498 44522 44562 44573 44517 44453 44420 44417 44393 44456 44492 44519 44496 44486 44465 44402 44364 44359 44346 44354 44367 44437 44469 44509 44533 44460 44333 44232 44179 44164 44167 44160 44201 44298 44344 44344 44270 44224 44264 44286 44332 44386 44421 44466 44534 44613 44666 44690 44696 44731 44784 44839 44907 44962 44976 44990 45011 45018 44984 44976 44954 44980 45006 45036 45057 45071 45089 45098 45082 45058 45062 45084 45118 45126 45117 45135 45152 45184 45169 45122 45083 45065 45062 45071 45091 45109 45010 44939 44841 44746 44666 44611 44561 44564 44564 44600 44634 44673 44711 44680 44575 44487 44453 44442 44449 44449 44478 44530 44550 44604 44620 44532 44517 44509 44552 44556 44584 44621 44703 44748 44721 44651 44583 44567 44544 44595 44624 44668 44695 44688 44768 44755 44676 44570 44538 44524 44564 44594 44648 44661 44669 44657 44584 44520 44499 44489 44460 44511 44617 44680 44711 44736 44723 44661 44676 44726 44813 44941 45048 45146 45337 45480 45647 45800 45925 45936 45896 45942 45982 46015 46047 45974 45897 45854 45761 45648 45533 45436 45415 45397 45401 45442 45493 45522 45511 45505 45505 45533 45572 45590 45571 45555 45561 45570 45584 45588 45535 45524 45509 45514 45528 45555 45563 45583 45610 45640 45666 45667 45651 45628 45602 45562 45579 45528 45498 45546 45623 45649 45630 45589 45647 45685 45724 45785 45831 45824 45815 45762 45655 45553 45441 45359 45309 45220 45152 45132 45131 45106 45083 44921 44775 44662 44651 44678 44646 44613 44578 44519 44424 44293 44153 44151 44244 44321 44434 44517 44538 44544 44530 44495 44429 44341 44224 44138 44116 44135 44211 44298 44388 44448 44529 44499 44410 44409 44399 44378 44379 44347 44318 44292 44295 44265 44200 44102 44051 44005 44010 44022 44012 43968 43960 43943 43938 43891 43869 43868 43904 43937 43964 44005 44036 44070 44076 44051 43988 43928 43868 43841 43826 43844 43832 43824 43816 43815 43783 43682 43594 43558 43531 43533 43572 43609 43621 43622 43662 43696 43677 43696 43722 43782 43860 43932 44005 44049 44080 44166 44226 44267 44249 44248 44200 44213 44189 44182 44262 44280 44363 44389 44315 44247 44180 44133 44148 44155 44231 44341 44480 44563 44524 44708 44577 44658 44614 44678 44686 44714 44749 44755 44764 44780 44772 44773 44756 44664 44680 44659 44701 44713 44706 44735 44766 44729 44695 44671 44702 44731 44755 44775 44792 44776 44833 44776 44673 44608 44535 44541 44729 44767 44803 44823 44823 44917 44889 44816 44755 44725 44755 44784 44863 44863 44895 44886 45045 45006 44985 44989 44973 44982 45036 45022 45134 45097 45221 45105 44969 44859 44783 44803 44777 44789 44714 44769 44759 44856 44821 44772 44725 44745 44746 44775 44797 44885 44916 44998 45020 44985 44903 44864 44818 44785 44756 44728 44711 44691 44684 44656 44615 44540 44513 44496 44509 44560 44584 44625 44632 44681 44670 44616 44571 44551 44570 44643 44640 44668 44697 44743 44781 44765 44718 44663 44641 44591 44559 44523 44542 44678 44730 44814 44821 44821 44810 44779 44823 44824 44863 44885 44924 45017 45027 45028 44934 44948 44952 44936 44965 44960 44939 44924 44947 44912 44934 44863 44839 44849 44830 44846 44831 44841 44860 44851 44872 44826 44838 44789 44792 44822 44851 44885 44911 44923 44935 44952 44913 44845 44874 44877 44889 44876 44933 44945 45007 45025 45065 45010 45022 45016 45080 45105 45172 45170 45229 45256 45266 45263 45245 45231 45197 45238 45264 45378 45401 45433 45452 45481 45449 45436 45378 45386 45498 45577 45645 45691 45765 45780 45850 45832 45856 45831 45797 45782 45792 45821 45875 45897 45940 46026 46058 46096 46152 46175 46175 46171 46203 46226 46234 46229 46262 46266 46271 46277 46210 46307 46349 46376 46390 46420 46430 46434 46430 46412 46373 46350 46318 46314 46279 46261 46223 46204 46181 46174 46132 46076 46004 45975 45957 45958 45971 45946 45916 45920 45908 45880 45854 45778 45732 45744 45747 45737 45762 45737 45738 45758 45725 45649 45541 45498 45472 45491 45477 45503 45515 45515 45499 45561 45516 45426 45336 45293 45255 45243 45253 45212 45216 45236 45278 45368 45297 45214 45125 45066 45113 45137 45199 45209 45218 45223 45220 45151 45028 44890 44819 44718 44741 44725 44762 44775 44770 44736 44745 44672 44655 44589 44621 44643 44683 44685 44658 44656 44678 44684 44620 44538 44492 44482 44485 44497 44493 44488 44461 44468 44490 44446 44405 44363 44377 44375 44397 44387 44393 44388 44414 44430 44409 44394 44363 44388 44400 44428 44434 44472 44468 44522 44564 44575 44549 44542 44513 44535 44533 44600 44668 44697 44714 44707 44705 44722 44685 44619 44584 44580 44674 44724 44761 44754 44772 44781 44771 44702 44672 44662 44667 44659 44654 44662 44689 44681 44665 44671 44680 44763 44842 44913 44952 44946 44926 44926 44972 44967 44981 44949 44906 44890 44879 44911 44917 44939 44919 44913 44921 44909 44870 44796 44733 44704 44671 44702 44722 44751 44709 44736 44756 44755 44738 44709 44720 44736 44795 44800 44822 44867 44908 44964 44958 44868 44826 44816 44810 44803 44846 44844 44869 44873 44915 44886 44843 44720 44686 44637 44666 44635 44602 44568 44602 44602 44642 44601 44573 44552 44560 44555 44585 44560 44607 44660 44717 44759 44771 44702 44699 44698 44739 44739 44757 44775 44821 44819 44873 44859 44830 44760 44712 44668 44697 44675 44697 44715 44738 44746 44713 44691 44618 44562 44510 44516 44552 44568 44678 44737 44782 44813 44856 44880 44836 44793 44757 44851 44965 45025 44985 45055 45109 45149 45104 45082 45029 44990 44977 44942 44932 44914 44911 44877 44855 44764 44705 44698 44704 44759 44738 44801 44908 44954 45039 45150 45184 45150 45208 45238 45319 45340 45367 45385 45398 45415 45427 45403 45421 45367 45309 45270 45280 45279 45291 45290 45267 45331 45390 45454 45474 45422 45373 45373 45409 45426 45494 45502 45505 45515 45514 45551 45553 45523 45506 45551 45562 45661 45713 45702 45740 45738 45821 45818 45852 45780 45804 45802 45881 45883 45879 45877 45898 45868 45862 45824 45734 45653 45588 45497 45483 45433 45496 45494 45498 45443 45434 45364 45244 45117 45048 44988 44917 44883 44844 44839 44857 44904 44785 44825 44925 44995 45050 45058 45085 45166 45186 45255 45261 45308 45229 45177 45069 45026 44969 44946 44901 44855 44814 44775 44813 44812 44797 44707 44657 44641 44649 44655 44679 44635 44649 44643 44665 44621 44540 44426 44382 44381 44361 44399 44388 44416 44407 44433 44441 44446 44362 44337 44257 44231 44196 44163 44183 44111 44320 44375 44448 44421 44400 44367 44360 44361 44438 44503 44542 44520 44553 44530 44516 44415 44318 44285 44263 44260 44258 44257 44314 44334 44313 44329 44294 44276 44214 44233 44211 44223 44225 44230 44261 44248 44262 44271 44271 44210 44161 44194 44211 44250 44288 44320 44316 44381 44376 44461 44440 44382 44371 44363 44344 44352 44392 44448 44484 44509 44530 44529 44517 44404 44332 44216 44198 44171 44183 44179 44182 44185 44235 44264 44257 44212 44192 44255 44306 44386 44441 44490 44550 44590 44663 44685 44652 44669 44652 44670 44693 44719 44721 44755 44787 44828 44860 44821 44823 44770 44780 44892 44899 44987 45003 44991 44887 44919 44930 44936 44860 44759 44771 44767 44772 44787 44757 44798 44791 44793 44788 44774 44735 44650 44627 44595 44604 44604 44626 44638 44635 44601 44565 44518 44490 44443 44427 44412 44412 44421 44442 44436 44440 44477 44517 44467 44394 44363 44358 44352 44370 44395 44411 44412 44410 44418 44421 44384 44330 44296 44291 44294 44295 44315 44300 44314 44288 44258 44264 44210 44145 44096 44064 44072 44067 44057 44077 44105 44114 44131 44134 44107 44081 44050 44089 44103 44158 44229 44266 44414 44523 44557 44570 44487 44417 44384 44358 44369 44367 44348 44339 44326 44313 44296 44279 44245 44196 44168 44164 44173 44182 44201 44210 44196 44206 44229 44246 44221 44177 44145 44151 44149 44158 44187 44210 44209 44219 44258 44309 44313 44315 44313 44317 44361 44393 44442 44506 44545 44600 44658 44699 44767 44762 44779 44788 44815 44844 44860 44873 44899 44934 44975 45013 45097 45185 45192 45189 45182 45167 45172 45190 45212 45199 45183 45203 45207 45168 45127 45066 45095 45121 45112 45100 45110 45108 45133 45169 45206 45226 45155 45145 45096 45104 45116 45135 45097 45089 45066 45091 45128 45112 45083 45081 45066 45019 45011 45012 45036 45068 45157 45243 45287 45233 45134 45073 45021 44980 44963 44978 44987 44993 45004 45005 45030 44969 44874 44790 44733 44722 44699 44735 44716 44719 44710 44669 44654 44609 44500 44358 44286 44253 44276 44295 44261 44240 44102 43952 43879 43843 43805 43781 43795 43831 43887 43876 43869 43886 43900 43912 43939 43937 43885 43876 43841 43884 43907 43908 43905 43870 43870 43897 43901 43931 43869 43837 43859 43875 43928 43960 43948 43973 44041 44083 44081 44067 44020 43991 43975 43934 43938 43953 43931 43943 43940 43961 43924 43867 43819 43782 43776 43773 43765 43759 43765 43790 43811 43814 43858 43889 43916 43904 43910 43907 43912 43936 43965 44011 44063 44069 44105 44140 44186 44188 44147 44151 44143 44160 44187 44228 44246 44234 44244 44233 44264 44249 44221 44170 44204 44233 44217 44275 44275 44344 44374 44447 44450 44497 44572 44567 44559 44533 44552 44546 44540 44536 44536 44517 44529 44504 44521 44507 44509 44488 44525 44532 44548 44549 44565 44596 44610 44622 44642 44613 44580 44545 44555 44526 44626 44651 44621 44645 44653 44685 44697 44656 44576 44523 44497 44506 44490 44513 44497 44525 44545 44512 44507 44511 44468 44377 44331 44309 44301 44308 44290 44278 44267 44255 44260 44267 44291 44197 44129 44116 44135 44171 44173 44180 44194 44215 44276 44281 44297 44278 44186 44140 44093 44087 44095 44106 44109 44128 44143 44214 44237 44265 44219 44191 44167 44170 44134 44126 44154 44212 44201 44190 44213 44263 44279 44280 44239 44187 44163 44151 44162 44166 44222 44245 44272 44278 44296 44345 44304 44272 44261 44281 44302 44341 44351 44399 44419 44474 44469 44482 44475 44454 44432 44393 44369 44393 44431 44441 44467 44484 44475 44468 44446 44436 44388 44344 44329 44337 44350 44366 44430 44434 44445 44437 44456 44486 44523 44451 44392 44359 44349 44353 44401 44375 44388 44391 44419 44432 44485 44510 44550 44501 44456 44410 44445 44478 44500 44507 44517 44566 44576 44609 44576 44551 44558 44556 44547 44589 44641 44676 44688 44688 44699 44735 44803 44785 44678 44645 44647 44677 44665 44664 44639 44752 44827 44863 44846 44875 44875 44822 44790 44729 44756 44795 44822 44814 44797 44792 44806 44821 44848 44812 44774 44743 44735 44768 44834 44854 44893 44885 44920 44905 44907 44921 44894 44835 44775 44818 44898 44946 44978 45022 45075 45061 45068 45039 45020 45028 44964 44952 44950 44985 45058 45066 45016 44937 44960 44995 45083 45111 45083 45043 45036 45036 45037 45079 45110 45101 45137 45162 45172 45180 45135 45087 45049 45033 45035 45063 45071 45062 45092 45157 45243 45311 45365 45353 45281 45206 45158 45144 45143 45157 45165 45199 45239 45284 45294 45346 45308 45259 45218 45222 45256 45280 45295 45314 45317 45319 45320 45390 45422 45352 45293 45231 45220 45281 45292 45305 45370 45432 45471 45475 45474 45421 45368 45352 45338 45372 45405 45461 45480 45492 45484 45406 45374 45368 45341 45321 45300 45298 45316 45352 45378 45384 45368 45353 45363 45368 45336 45262 45191 45177 45172 45177 45180 45197 45198 45220 45249 45239 45241 45232 45193 45169 45152 45185 45203 45246 45312 45382 45440 45407 45431 45408 45388 45332 45282 45285 45336 45368 45395 45418 45406 45420 45419 45468 45488 45467 45446 45424 45444 45608 45838 45980 45992 45891 45823 45759 45756 45725 45663 45573 45519 45457 45444 45445 45480 45508 45547 45542 45524 45557 45571 45596 45569 45592 45612 45632 45681 45724 45722 45713 45728 45761 45724 45706 45768 45778 45740 45679 45662 45669 45659 45619 45572 45578 45629 45703 45765 45724 45631 45574 45576 45608 45628 45588 45562 45539 45497 45468 45438 45397 45370 45279 45224 45164 45152 45166 45222 45258 45287 45282 45307 45306 45311 45285 45220 45172 45132 45132 45088 45096 45104 45082 45064 45109 45222 45287 45214 45119 45057 45091 45115 45194 45189 45250 45251 45305 45293 45335 45284 45236 45199 45193 45168 45134 45140 45142 45150 45189 45235 45454 46127 46514 46013 45906 45996 46033 45939 45822 45623 45566 45426 45328 45277 45219 45242 45282 45343 45446 45652 45809 45932 46043 46144 46249 46364 46450 46584 46719 46835 46921 46935 46958 47026 47075 47150 47319 47487 47641 47732 47804 47850 47877 47894 47952 48055 48172 48257 48317 48392 48471 48479 48474 48446 48458 48477 48475 48491 48472 48489 48561 48712 48911 49791 49379 49399 49436 49486 49556 49626 49729 49821 49893 49968 50050 50122 50218 50296 50339 50400 50444 50500 50546 50600 50644 50701 50755 50801 50850 50903 50969 51015 51042 51090 51136 51171 51248 51296 51363 51427 51443 51311 51315 51296 51208 51073 50839 50561 50341 50108 49934 49715 49574 49436 49265 49109 48964 48775 48532 48236 47946 47672 47445 47296 47162 47100 46989 46945 46934 46966 47001 46947 46730 46527 46362 46238 46181 46109 46087 46050 46003 45956 45906 45874 45782 45626 45531 45426 45352 45288 45214 45142 45158 45157 45179 45214 45245 45158 45150 45067 45024 45013 44990 44964 44960 44934 44902 44908 44884 44898 44869 44784 44755 44765 44794 44879 44952 45041 45165 45227 45345 45404 45412 45347 45315 45302 45309 45327 45355 45300 45274 45163 45047 45030 45249 45511 45790 45997 46142 46267 46396 46513 46607 46654 46650 46604 46581 46571 46537 46467 46413 46368 46315 46293 46265 46278 46277 46290 46276 46326 46284 46246 46162 46139 46163 46127 46145 46121 46139 46127 46255 46231 46198 46147 46130 46140 46141 46163 46177 46216 46232 46256 46315 46346 46378 46376 46363 46301 46337 46325 46342 46352 46363 46354 46370 46322 46354 46331 46325 46237 46173 46145 46119 46162 46162 46246 46233 46277 46268 46309 46314 46254 46157 46148 46161 46205 46293 46310 46260 46141 46063 45984 45979 45893 45876 45813 45803 45832 45872 45928 45949 45952 46003 46104 46147 46196 46208 46131 46058 46096 46181 46206 46215 46222 46233 46161 46147 46071 46038 46006 45904 45838 45773 45735 45727 45812 45869 45859 45852 45887 45868 45909 45884 45762 45712 45803 45876 45968 46000 46054 46047 46067 46038 46026 46005 46026 45921 45881 45821 45830 45851 45837 45784 45761 45650 45560 45453 45356 45272 45166 45154 45142 45128 45173 45187 45244 45307 45337 45337 45325 45356 45372 45299 45204 45190 45194 45206 45183 45152 45180 45195 45259 45275 45290 45285 45229 45153 45143 45128 45132 45205 45266 45228 45202 45309 45326 45412 45470 45453 45377 45287 45322 45345 45297 45413 45659 45847 46036 46098 46003 45919 45897 45885 45927 45981 46006 46071 46188 46250 46240 46337 46319 46211 46183 46103 46126 46105 46094 46066 46058 46069 46097 46133 46116 46051 46006 45995 45959 46048 46100 46099 46095 46016 45989 45994 46105 46132 46211 46162 46168 46098 46033 46116 46114 46177 46219 46176 46194 46263 46352 46344 46381 46368 46411 46348 46457 46432 46454 46454 46436 46413 46463 46526 46591 46644 46636 46579 46611 46744 47015 47204 47497 47789 48015 48205 48440 48541 48574 48716 48837 48936 48927 48921 48877 48813 48708 48584 48487 48362 48169 47866 47563 47287 47005 46762 46621 46573 46545 46584 46605 46650 46694 46781 46758 46696 46643 46579 46592 46583 46564 46504 46465 46494 46503 46505 46460 46317 46138 45968 45855 45804 45769 45763 45781 45830 45925 45944 45982 46037 46042 46127 46310 46421 46524 46662 46776 46874 46941 47025 47087 47167 47227 47275 47263 47228 47171 47138 47109 47116 47141 47116 47100 47100 47054 46996 46939 46859 46757 46692 46629 46569 46566 46575 46630 46696 46774 46874 46949 47091 47158 47185 47179 47177 47199 47225 47235 47270 47262 47228 47217 47231 47296 47343 47372 47351 47270 47280 47240 47235 47215 47247 47191 47266 47267 47319 47444 47674 47799 47827 47771 47774 47805 47800 47840 47868 47927 48014 48067 48180 48274 48357 48425 48493 48554 48579 48663 48775 48892 48994 49057 49130 49175 49241 49330 49403 49437 49463 49526 49672 49777 49805 49812 49594 49334 49246 49139 49186 49183 49165 49136 49079 48924 48837 48806 48786 48752 48665 48563 48414 48300 48213 48171 48123 48067 48026 48022 48056 48105 48144 48181 48205 48254 48256 48216 48175 48066 47922 47765 47632 47560 47511 47457 47420 47375 47376 47415 47477 47505 47477 47396 47316 47245 47209 47141 47079 47018 46962 46947 46926 46900 46893 46834 46838 46772 46731 46679 46661 46805 46902 46933 47060 47138 47168 47204 47226 47122 47011 46874 46790 46832 46913 46897 46903 46907 46932 46939 46936 46875 46779 46676 46637 46542 46422 46488 46603 46639 46677 46704 46657 46600 46495 46327 46243 46179 46033 46140 46329 46414 46624 46701 46683 46732 46697 46738 46683 46753 46858 46862 46909 47006 47083 47142 47228 47258 47322 47398 47441 47443 47439 47448 47437 47431 47421 47406 47415 47405 47413 47439 47498 47568 47542 47521 47546 47543 47544 47561 47548 47558 47573 47603 47652 47676 47698 47658 47612 47576 47551 47565 47542 47519 47501 47449 47450 47395 47432 47373 47286 47204 47161 47135 47094 47133 47190 47272 47228 47198 47161 47138 47101 46989 46928 46897 46851 46826 46802 46733 46749 46725 46719 46708 46652 46584 46463 46376 46325 46255 46269 46238 46202 46163 46104 46097 46083 46081 45982 45866 45778 45741 45721 45702 45679 45704 45717 45709 45720 45708 45623 45509 45413 45332 45424 45536 45716 45760 46030 46090 46330 46489 46544 46412 46369 46449 46466 46503 46470 46496 46513 46580 46576 46650 46699 46707 46672 46678 46662 46667 46822 46973 46975 47137 47146 47327 47445 47460 47435 47386 47331 47278 47218 47308 47436 47437 47426 47443 47435 47517 47568 47556 47649 47577 47746 47861 47862 47867 47880 47872 47891 47843 47764 47769 47663 47620 47582 47505 47455 47485 47414 47447 47398 47296 47269 47246 47384 47347 47382 47284 47373 47395 47451 47493 47513 47471 47419 47492 47469 47499 47531 47449 47448 47386 47523 47656 47602 47582 47538 47525 47489 47540 47534 47703 47747 47767 47794 47821 47838 47798 47772 47748 47821 47864 47875 47912 47907 47925 47884 47852 47805 47729 47617 47524 47428 47375 47350 47320 47303 47285 47244 47218 47234 47251 47196 47123 47055 46994 46942 46909 46806 46761 46638 46579 46475 46420 46298 46138 46076 45983 45940 45937 45915 45919 45933 45975 45981 45988 45983 45895 45854 45828 45837 45852 45812 45808 45766 45748 45825 45813 45872 45818 45718 45665 45690 45755 45826 45886 45932 45994 46077 46090 46118 46037 45998 45889 45787 45780 45773 45792 45860 45965 46010 46006 46001 46089 46137 46150 46134 46078 46105 46135 46204 46276 46312 46358 46359 46336 46327 46277 46240 46190 46165 46143 46141 46129 46102 46086 46081 46114 46182 46255 46263 46231 46160 46210 46258 46267 46232 46308 46550 46803 47071 47356 47606 47904 48156 48351 48503 48660 48940 49210 49335 49080 48991 49015 48982 48981 48939 48866 48827 48769 48763 48744 48736 48703 48673 48628 48585 48534 48460 48383 48231 48139 48025 47958 47884 47812 47763 47728 47690 47677 47651 47620 47497 47375 47242 47195 47129 47081 47056 47043 46996 47011 46997 47014 46955 46883 46837 46759 46735 46707 46717 46677 46694 46647 46681 46687 46706 46623 46523 46456 46439 46410 46426 46440 46479 46495 46454 46510 46666 46706 46701 46604 46505 46514 46572 46610 46604 46596 46612 46627 46587 46563 46470 46417 46316 46292 46296 46351 46363 46392 46406 46436 46466 46486 46540 46596 46653 46700 46692 46785 46789 46763 46796 46842 46864 46808 46913 46923 47023 47039 47040 47018 47000 47040 47033 47152 47191 47261 47311 47341 47377 47416 47477 47461 47444 47383 47349 47322 47325 47321 47355 47321 47307 47272 47285 47283 47291 47293 47272 47320 47390 47551 47620 47670 47707 47797 47839 47916 47985 48014 48010 48030 48013 48018 48068 48048 48070 48065 48063 48122 48202 48398 48489 48611 48640 48660 48715 48690 48650 48702 48655 48693 48681 48685 48665 48665 48620 48602 48499 48407 48408 48403 48415 48384 48335 48364 48292 48326 48293 48282 48268 48198 48086 48056 48066 48078 48121 48126 48228 48226 48313 48350 48408 48461 48466 48381 48198 48260 48286 48290 48343 48352 48288 48222 48228 48277 48269 48311 48260 48245 48257 48250 48323 48336 48375 48348 48334 48287 48263 48143 48074 48160 48028 47818 47633 47519 47457 47496 47607 47646 47687 47753 47834 47931 47959 48016 47909 47823 47907 47973 48058 48119 48092 48135 48113 47972 47905 47815 47721 47528 47320 47130 46966 46774 46586 46921 47119 47252 47374 47443 47448 47375 47201 47166 47098 47086 47093 47059 47010 47064 47037 47036 47042 47021 47007 46982 46881 46816 46755 46753 46726 46748 46860 46907 46978 47011 47067 47205 47306 47265 47208 47044 46846 46764 46722 46655 46603 46542 46513 46471 46433 46403 46348 46212 46120 46075 46086 46101 46143 46214 46298 46364 46443 46511 46569 46609 46604 46525 46437 46330 46090 45751 45517 45358 45325 45350 45424 45550 45629 45618 45660 45608 45540 45547 45627 45740 45866 45983 46095 46230 46300 46367 46429 46431 46324 46180 46081 45993 45902 45761 45612 45446 45384 45396 45417 45459 45539 45608 45673 45687 45732 45796 45853 46002 46084 46161 46271 46378 46480 46572 46749 46932 47057 47104 47073 46997 46953 46959 46995 47097 47169 47233 47298 47346 47342 47288 47188 47070 46935 46815 46723 46603 46484 46396 46349 46327 46383 46437 46479 46498 46500 46497 46525 46590 46721 46812 46820 46781 46770 46730 46665 46679 46648 46519 46441 46415 46438 46476 46493 46497 46459 46386 46320 46253 46252 46312 46336 46245 46111 45958 45826 45784 45704 45587 45457 45327 45310 45350 45394 45411 45346 45233 45140 45112 45092 45087 45090 45061 45024 45013 45016 45029 45010 44993 44906 44782 44721 44711 44731 44719 44679 44576 44501 44463 44382 44338 44310 44273 44170 44062 44032 44022 44070 44136 44195 44238 44261 44268 44286 44276 44239 44123 44033 44000 44081 44155 44251 44274 44316 44316 44316 44338 44391 44452 44445 44367 44306 44238 44201 44169 44128 44133 44153 44193 44252 44347 44353 44403 44455 44467 44464 44500 44571 44633 44708 44794 44863 44905 44953 44956 44960 44888 44807 44804 44854 44934 45030 45106 45170 45189 45280 45333 45390 45455 45486 45464 45418 45464 45487 45581 45812 45929 46028 46100 46083 46113 46153 46169 46236 46320 46553 46891 47124 47343 47552 47711 47827 47832 47825 47827 47865 47935 47921 47913 47911 47941 47998 48002 48016 48087 48122 48195 48214 48164 48069 47939 47807 47723 47719 47685 47766 47746 47825 47848 47848 47824 47792 47728 47627 47466 47334 47186 47070 46974 46919 46862 46872 46906 46896 46878 46877 46763 46672 46735 46847 46895 46928 46934 46960 46919 46862 46839 46851 46912 46887 46781 46679 46630 46607 46642 46644 46657 46681 46661 46661 46640 46642 46555 46439 46315 46225 46196 46311 46376 46391 46346 46255 46180 46132 46077 45988 45853 45716 45593 45517 45464 45432 45481 45535 45528 45672 45805 45910 46059 46149 46239 46344 46507 46679 46779 46852 46886 46921 46957 47045 47103 47011 46810 46631 46530 46481 46548 46653 46843 47028 47209 47414 47536 47628 47522 47331 47157 47001 46816 46657 46675 46826 46956 47066 47156 47240 47290 47282 47211 47119 47013 46946 46838 46751 46670 46563 46425 46302 46207 46106 46025 45888 45800 45745 45710 45700 45665 45618 45607 45623 45627 45645 45648 45675 45737 45745 45778 45863 45947 46023 46046 46027 46029 46055 46121 46336 46512 46685 46671 46615 46630 46651 46728 46732 46765 46795 46783 46780 46825 46856 46908 46908 46838 46755 46623 46520 46448 46396 46352 46291 46223 46144 46126 46107 46028 45938 45901 45958 46039 46107 46181 46187 46204 46278 46365 46408 46389 46296 46184 46097 46043 46045 46064 46123 46192 46251 46280 46315 46323 46303 46227 46149 46105 46146 46229 46329 46402 46514 46697 46860 46948 46958 46928 46855 46741 46661 46610 46593 46588 46592 46599 46599 46600 46605 46620 46621 46550 46470 46362 46332 46316 46298 46269 46240 46202 46162 46131 46081 46018 45913 45821 45767 45751 45778 45814 45823 45812 45801 45776 45702 45667 45594 45516 45490 45490 45507 45563 45581 45603 45607 45616 45615 45616 45595 45515 45436 45398 45386 45413 45433 45460 45495 45500 45509 45531 45546 45509 45439 45384 45381 45383 45404 45410 45417 45412 45382 45412 45383 45347 45250 45159 45134 45148 45202 45288 45359 45422 45458 45478 45501 45447 45357 45313 45284 45294 45291 45310 45408 45590 45854 46019 46093 46069 45951 45809 45707 45624 45534 45462 45406 45344 45312 45291 45265 45225 45156 45062 44995 44955 44931 44928 44914 44980 45117 45376 45685 46114 46606 47097 47829 48507 49042 49458 49818 50121 50408 50705 50975 51147 51257 51382 51655 51881 52080 52243 52387 52540 52751 52984 53183 53305 53413 53470 53499 53507 53485 53464 53423 53357 53242 53063 52866 52652 52443 52207 51871 51497 51128 50747 50403 50095 49802 49508 49240 48995 48736 48534 48245 47903 47547 47225 46967 46724 46504 46274 46067 45878 45700 45555 45410 45200 44922 44710 44551 44456 44387 44284 44182 44062 43998 43892 43809 43681 43511 43342 43248 43177 43127 43070 43025 42967 42906 42864 42834 42795 42701 42550 42429 42378 42368 42358 42333 42297 42259 42218 42194 42173 42157 42041 41885 41781 41674 41551 41366 41158 41007 40972 41036 41091 41166 41145 41027 40943 40949 41084 41284 41497 41710 41888 42032 42107 42172 42194 42176 42108 42048 42006 42005 41993 41980 41975 41995 41990 41992 41979 41970 41949 41855 41817 41796 41785 41787 41790 41778 41779 41762 41769 41786 41774 41733 41698 41692 41700 41722 41740 41742 41740 41742 41753 41766 41761 41763 41735 41702 41692 41716 41757 41789 41817 41881 42004 42160 42297 42436 42524 42579 42579 42556 42497 42453 42430 42431 42443 42469 42492 42513 42511 42491 42437 42371 42327 42306 42302 42291 42265 42252 42241 42241 42238 42232 42226 42199 42162 42140 42151 42186 42191 42200 42205 42216 42241 42284 42325 42304 42242 42196 42193 42240 42292 42317 42359 42404 42466 42540 42601 42641 42584 42568 42602 42710 42775 42784 42774 42778 42776 42806 42838 42836 42804 42731 42668 42657 42719 42803 42883 42916 42933 42957 42970 43003 43039 43049 42981 42970 43015 43075 43166 43205 43249 43299 43313 43332 43388 43434 43422 43402 43504 43535 43717 44074 44376 44654 44979 45031 44992 45109 45504 45947 46334 46658 46960 47207 47405 47556 47666 47753 47797 47831 47889 47874 47817 47741 47631 47488 47314 47133 46912 46721 46541 46371 46230 46091 45916 45759 45636 45553 45488 45455 45421 45413 45391 45409 45414 45389 45308 45240 45216 45196 45193 45205 45205 45215 45217 45246 45267 45252 45194 45134 45114 45137 45151 45180 45194 45208 45209 45247 45276 45259 45178 45097 45077 45082 45110 45151 45196 45220 45249 45270 45291 45282 45178 45103 45089 45090 45112 45121 45122 45134 45146 45158 45150 45149 45108 45014 44965 44972 44991 45006 45002 45002 45006 45040 45069 45093 45053 44959 44895 44890 44926 44980 45016 45047 45063 45099 45120 45172 45161 45066 44977 44949 44955 44978 45005 45034 45064 45091 45137 45184 45223 45177 45108 45090 45118 45170 45222 45271 45308 45341 45377 45391 45430 45392 45217 45139 45153 45232 45309 45325 45225 45194 45363 45616 45850 46090 46229 46186 46087 46017 45972 45929 45870 45790 45700 45645 45614 45611 45586 45573 45506 45424 45373 45365 45387 45433 45469 45482 45498 45521 45531 45534 45531 45522 45455 45399 45383 45390 45425 45435 45450 45476 45488 45505 45526 45524 45508 45446 45342 45270 45268 45306 45323 45353 45367 45356 45381 45398 45421 45428 45405 45357 45325 45366 45442 45547 45622 45687 45743 45794 45833 45886 45953 45967 45960 45950 45906 45829 45894 46103 46334 46583 46762 46906 47000 47008 46958 46857 46699 46585 46583 46562 46506 46463 46354 46247 46124 45941 45818 45698 45534 45366 45271 45225 45225 45275 45366 45470 45640 45746 45758 45801 45857 45869 45798 45733 45684 45673 45607 45607 45556 45511 45478 45469 45451 45463 45444 45305 45135 45099 45082 45061 45055 44985 44756 44538 44373 44226 44071 44002 43968 43974 44059 44156 44218 44265 44303 44312 44219 44120 44010 43883 43790 43732 43599 43544 43523 43581 43685 43737 43727 43627 43539 43540 43496 43496 43485 43361 43280 43225 43174 43180 43145 43123 43103 43098 43093 43098 43116 43129 43065 43021 42996 43061 43117 43213 43277 43343 43411 43423 43367 43407 43501 43522 43518 43565 43725 43943 44091 44290 44474 44625 44819 44970 45117 45203 45256 45261 45298 45350 45450 45446 45485 45462 45446 45397 45235 45108 45195 45304 45319 45241 45158 44991 44769 44878 45189 45493 45685 45790 45856 45995 46147 46127 46079 46087 46111 46178 46226 46321 46448 46342 46492 46475 46619 46736 46790 46737 46715 46644 46677 46879 46950 47129 47051 47309 47264 47333 47391 47372 47302 47194 46917 46880 46629 46723 46774 46842 46854 46747 46850 46960 47001 47150 47279 47446 47665 47910 48378 48866 48912 48944 49176 49054 48554 48109 47855 47620 47274 46987 46701 46380 46199 45955 45721 45594 45486 45472 45497 45563 45576 45609 45528 45459 45412 45357 45312 45254 45268 45179 45116 45063 44973 44961 44964 44839 44773 44820 44819 44820 44890 44882 44866 44787 44728 44721 44673 44544 44403 44220 44037 43969 43960 43944 43989 44013 44024 44054 44075 44098 44132 44150 44200 44202 44162 44093 44013 43998 43981 44017 44009 44018 43987 43997 44013 44035 44055 44003 43932 43867 43879 43883 43897 43941 43996 44035 44104 44137 44147 44121 44128 44073 44000 43914 43933 43944 44019 44077 44088 44153 44188 44241 44278 44304 44307 44290 44211 44211 44208 44210 44311 44364 44464 44555 44597 44798 44930 45393 45557 45696 45665 45582 45503 45427 45407 45407 45424 45402 45499 45528 45606 45705 46063 46463 46610 46663 46695 46672 46638 46589 46424 46281 46176 46134 46309 46602 46784 46816 46825 46706 46578 46517 46550 46654 46729 46864 47020 47078 47113 47099 47115 47096 47029 46863 46783 46725 46758 46714 46740 46766 46719 46802 46762 46676 46800 46793 46725 46498 46411 46411 46519 46670 46801 46949 46973 46995 47002 47049 47050 47104 47190 47151 47031 46971 46919 46884 46967 47248 47268 47191 47155 47080 47021 46967 46913 46814 46698 46621 46569 46525 46485 46467 46477 46523 46543 46584 46742 46932 47305 47383 47425 47210 46980 46813 46596 46383 46162 45980 45851 45782 45755 45709 45682 45558 45326 45194 45064 44993 44992 45060 45136 45210 45395 45480 45571 45632 45689 45555 45361 45143 45063 45034 45164 45400 45780 45860 45965 46207 46342 46258 46311 46368 46305 46027 45942 45811 45749 45622 45513 45338 45281 45220 45174 45168 45130 45035 44801 44509 44268 44117 44203 44242 44270 44241 43979 43774 43673 43696 43805 44030 44097 44103 44105 44082 44055 44063 44017 43986 44028 44087 44019 44058 43974 44016 43868 43819 43750 43648 43785 43804 43957 44210 44209 44166 44187 44186 44226 44160 44028 43992 43955 44062 44126 44052 44135 44349 44347 44636 44832 44858 45034 45189 45235 45150 44964 44779 44624 44488 44407 44315 44300 44291 44256 44228 44211 44230 44197 44135 44113 44068 44064 44072 44122 44207 44237 44243 44256 44269 44260 44224 44234 44240 44280 44248 44285 44565 44733 44847 44921 45020 45109 45227 45195 45075 44958 44955 44939 45163 45337 45325 45270 45188 45126 45144 45125 45134 45088 44982 44873 44849 44809 44787 44768 44766 44786 44804 44824 44827 44795 44732 44617 44601 44541 44496 44427 44410 44451 44466 44458 44493 44493 44503 44555 44504 44440 44380 44391 44380 44397 44431 44482 44516 44542 44535 44519 44511 44445 44378 44358 44353 44397 44529 44590 44607 44659 44716 44862 44935 44992 44950 44852 44846 44823 44737 44603 44562 44612 44638 44636 44657 44642 44618 44544 44450 44435 44468 44538 44569 44636 44707 44766 44843 44839 44824 44794 44718 44587 44532 44496 44509 44606 44647 44637 44615 44626 44717 44799 44785 44723 44780 44869 45021 45150 45224 45250 45261 45248 45188 45153 45183 45157 45034 44970 44945 44950 45000 44984 45011 45001 45017 45001 44953 44980 44981 44962 44836 44748 44713 44748 44805 44820 44810 44936 45076 45240 45266 45208 45184 45158 45191 45159 45198 45205 45251 45232 45314 45463 45518 45541 45455 45354 45261 45234 45278 45308 45287 45256 45296 45257 45352 45368 45319 45237 45117 45042 45034 45034 45075 45131 45178 45203 45263 45334 45297 45232 45218 45181 45121 45156 45134 45116 45086 45105 45140 45209 45206 45137 45086 45012 45005 45037 45043 45109 45110 45201 45246 45272 45336 45364 45341 45308 45299 45334 45371 45405 45406 45406 45399 45439 45473 45514 45590 45558 45421 45348 45362 45381 45450 45495 45517 45586 45606 45677 45698 45718 45643 45584 45531 45528 45521 45513 45489 45460 45440 45424 45437 45480 45441 45357 45306 45212 45202 45165 45224 45253 45332 45359 45402 45390 45388 45314 45254 45209 45191 45181 45159 45099 45065 45027 45052 45076 45115 45140 45110 45133 45184 45327 45315 45414 45453 45463 45413 45403 45408 45406 45421 45306 45264 45224 45198 45189 45152 45195 45222 45230 45236 45205 45226 45213 45200 45122 45053 45005 45024 45063 45083 45117 45149 45159 45091 45059 44965 44873 44765 44722 44822 45000 45207 45311 45336 45278 45226 45221 45136 45080 44955 44819 44713 44654 44680 44698 44701 44695 44721 44713 44736 44711 44716 44614 44520 44512 44517 44477 44429 44415 44407 44438 44457 44491 44383 44381 44272 44240 44240 44213 44105 44171 44215 44308 44288 44286 44267 44329 44389 44389 44280 44184 44122 44085 44053 44120 44088 44128 44140 44144 44225 44262 44240 44186 44179 44181 44196 44263 44328 44384 44369 44314 44242 44254 44213 44197 44184 44208 44242 44235 44219 44261 44285 44352 44421 44469 44538 44550 44569 44585 44544 44473 44425 44481 44529 44549 44521 44542 44626 44709 44778 44829 44844 44932 44907 44843 44821 44892 44931 45082 45136 45158 45104 45110 45030 44972 44970 44989 44972 45050 45022 45043 45089 45121 45168 45139 45210 45210 45182 45137 45049 45043 45014 45029 45048 45111 45093 45082 45066 45106 45084 45116 45160 45177 45252 45345 45339 45235 45128 45204 45243 45311 45231 45212 45179 45145 45077 45059 45090 45132 45180 45241 45316 45440 45465 45395 45287 45150 45077 45056 45043 45049 45069 45189 45288 45361 45307 45301 45211 45182 45101 45116 45108 45098 45059 44966 44908 44822 44781 44764 44679 44654 44652 44647 44631 44704 44784 44776 44758 44750 44777 44837 44791 44655 44564 44517 44482 44482 44583 44646 44684 44706 44760 44799 44815 44745 44698 44714 44694 44633 44577 44534 44621 44668 44708 44745 44834 44877 44872 44878 44943 44949 44936 44906 44911 44947 45002 44964 44991 45008 44952 44896 44860 44955 45038 45036 45038 45081 45139 45177 45164 45245 45286 45384 45383 45342 45273 45234 45235 45221 45218 45149 45039 45047 45077 45212 45255 45285 45279 45286 45302 45261 45278 45314 45358 45369 45330 45323 45378 45358 45373 45377 45392 45432 45472 45484 45479 45547 45576 45502 45386 45300 45220 45195 45223 45280 45337 45413 45450 45447 45496 45475 45381 45244 45155 45104 45079 45077 45128 45161 45153 45207 45301 45305 45231 45164 45145 45101 45058 45011 44985 44983 45020 45002 45015 45021 45023 44933 44858 44875 44878 44908 44931 44936 44989 44944 44901 44904 44917 44856 44638 44582 44552 44583 44590 44603 44694 44738 44721 44766 44768 44707 44658 44541 44457 44476 44507 44524 44570 44638 44654 44659 44725 44761 44684 44632 44608 44591 44569 44528 44516 44523 44542 44563 44621 44688 44745 44766 44990 45301 45939 46077 46286 46485 47165 47205 47631 48329 48823 48990 48844 48432 48227 48009 47873 47730 47646 47625 47599 47583 47518 47436 47369 47298 47196 47251 47282 47283 47191 47081 46984 46843 46715 46533 46474 46334 46278 46132 46091 46030 46083 46031 46030 45991 45872 45637 45572 45595 45629 45734 45888 46027 46225 46226 46296 46221 46067 45890 45845 46006 46191 46227 46326 46301 46280 46376 46431 46378 46363 46337 46311 46290 46128 46103 46035 46047 46038 46007 45954 45955 45941 45849 45777 45763 45818 45942 46208 46405 46662 46813 46748 46734 46725 46621 46403 46221 46135 46113 46078 46042 46038 45929 45887 45783 45729 45573 45483 45414 45367 45286 45287 45295 45353 45394 45430 45412 45456 45382 45310 45180 45134 45115 45176 45273 45387 45478 45610 45723 45812 45748 45785 45744 45706 45693 45634 45491 45421 45496 45527 45498 45516 45437 45275 45088 45029 45066 45122 45146 45140 45135 45121 45170 45199 45203 45122 45044 45028 45094 45180 45290 45342 45373 45392 45413 45397 45400 45419 45312 45327 45270 45294 45276 45278 45294 45317 45313 45399 45417 45348 45262 45263 45247 45212 45156 45116 45068 45099 45157 45320 45408 45426 45435 45423 45431 45362 45231 45218 45227 45369 45431 45469 45400 45329 45156 45137 45118 45104 45176 45386 45593 45706 45710 45690 45707 45661 45514 45388 45315 45225 45204 45220 45257 45281 45273 45377 45404 45587 45603 45533 45620 45813 46112 46533 46835 46913 46860 46854 46895 46897 46792 46623 46471 46345 46257 46229 46218 46217 46203 46230 46235 46141 45973 45764 45645 45524 45375 45225 45094 44985 44860 44797 44732 44715 44643 44630 44597 44546 44537 44506 44547 44550 44593 44639 44696 44664 44532 44272 44064 44159 44317 44483 44619 44725 44949 45196 45290 45459 45441 45287 45257 45444 45744 45883 46125 46431 46655 46742 46716 46721 46640 46576 46394 46186 46024 45887 45833 45797 45764 45809 45776 45974 46098 46106 45975 45900 45833 45807 45777 45745 45726 45619 45569 45656 45797 45863 45846 45856 45867 45865 45811 45838 45865 45903 45900 45850 45851 45790 45673 45597 45606 45634 45631 45547 45519 45401 45282 45343 45470 45500 45586 45604 45538 45505 45504 45495 45447 45424 45333 45242 45219 45224 45130 45028 44936 44855 44798 44784 44810 44845 45241 45306 45180 45190 45358 45388 45372 45416 45298 45245 45250 45208 45101 44988 44928 44889 44762 44565 44389 44303 44276 44201 44132 44101 44065 44106 44079 44020 43886 43740 43601 43608 43598 43627 43610 43670 43839 43881 43908 43904 43829 43714 43577 43529 43523 43611 43660 43762 43765 43806 43814 43798 43766 43615 43463 43420 43425 43498 43541 43571 43579 43648 43737 43817 43870 43868 43878 43931 43883 43841 43800 43758 43791 43792 43798 43778 43770 43729 43648 43572 43574 43570 43645 43735 43796 43846 43851 43883 43951 43927 43900 43851 43763 43745 43786 43797 43808 43786 43859 43894 43920 43829 43727 43650 43642 43659 43801 43908 44025 44053 44121 44159 44207 44131 44080 43983 43924 43880 43871 43992 44101 44187 44255 44284 44344 44302 44272 44285 44260 44280 44293 44318 44337 44402 44533 44724 44842 44978 44925 45090 45247 45547 45847 46540 47344 47668 47676 47648 47589 47534 47507 47418 47446 47419 47494 47523 47422 47408 47300 47229 47173 47069 46988 46807 46733 46674 46624 46560 46470 46487 46590 46679 46766 46708 46639 46511 46433 46543 46664 46680 46794 46744 46679 46753 46823 46743 46642 46621 46598 46438 46360 46320 46184 46264 46526 46958 47125 47313 47454 47082 47078 46762 46524 46235 46006 45885 45753 45662 45629 45621 45478 45366 45205 45118 45229 45282 45323 45294 45238 45246 45253 45186 44963 44780 44646 44617 44730 44758 44776 44740 44706 44695 44675 44580 44402 44296 44243 44298 44332 44334 44340 44346 44280 44257 44197 44138 43944 43900 43839 43752 43723 43700 43690 43616 43648 43724 43834 44003 43932 43947 43899 43945 43959 43978 43996 44012 44030 44061 44176 44081 44031 44007 43984 44019 44071 44097 44141 44124 44122 44286 44351 44328 44276 44246 44325 44358 44425 44453 44489 44452 44677 44773 44889 44793 44683 44769 44770 44675 44627 44601 44399 44825 45171 45322 45328 45264 45361 45316 45289 45296 45266 45242 45428 45556 45794 45861 45917 45835 45739 45590 45426 45286 45549 45789 45822 45778 46008 46085 46040 46056 46086 46130 46240 46292 46337 46403 46412 46363 46353 46299 46170 46099 46082 46074 46041 46002 45984 45972 46024 46100 46180 46110 46051 46003 45947 45985 46015 46007 46032 46136 46184 46228 46201 46038 45863 45719 45652 45646 45630 45628 45626 45685 45719 45760 45664 45584 45447 45383 45317 45371 45398 45421 45380 45352 45322 45254 45128 45061 45013 44955 44946 44982 44992 45046 45151 45196 45197 45222 45144 45019 44867 44787 44750 44713 44746 44745 44879 44970 45070 45088 45072 45104 45230 45272 45238 45226 45300 45375 45332 45281 45130 44960 44769 44639 44624 44678 44701 44717 44719 44773 44834 44798 44674 44491 44484 44598 44658 44683 44639 44627 44592 44669 44673 44763 44635 44651 44596 44562 44673 44803 44805 44845 44847 44927 44889 44759 44612 44501 44420 44418 44448 44470 44536 44593 44607 44581 44565 44532 44584 44625 44637 44736 44886 45002 45010 44972 44930 44834 44775 44744 44723 44761 44778 44783 44845 44800 44880 44925 44914 44825 44871 44923 45089 45084 45001 44975 44981 45050 45077 45203 45158 45022 44962 44914 44877 44902 44912 44919 44968 45063 45188 45076 44988 44928 44880 44844 44843 44891 44905 44919 44950 44946 44940 44829 44769 44776 44843 44942 45041 45099 45078 45055 45028 44958 44902 44889 44853 44783 44712 44786 44882 44928 44979 45037 44993 44974 44948 44787 44729 44676 44739 44707 44776 44861 44894 44854 44774 44807 44829 44928 44959 45019 45090 45106 45114 45126 45067 45009 44996 44980 45057 45086 45179 45223 45316 45398 45481 45406 45258 45263 45282 45341 45369 45361 45435 45420 45502 45481 45500 45529 45478 45502 45476 45522 45519 45549 45567 45667 45779 45824 45673 45605 45656 45714 45859 46047 46140 46147 46328 46463 46534 46505 46436 46284 46233 46245 46308 46240 46201 46218 46279 46274 46287 46372 46452 46443 46509 46522 46440 46423 46419 46428 46389 46375 46320 46171 46093 46053 45987 45987 45954 45972 45957 45820 45728 45652 45684 45644 45563 45584 45564 45498 45494 45347 45247 45145 45110 45158 45255 45327 45326 45362 45396 45375 45622 45742 45873 46025 46059 45884 45802 45748 45701 45636 45508 45481 45408 45360 45320 45264 45222 45196 45124 45083 44991 44750 44543 44433 44366 44467 44516 44632 44731 44826 44718 44589 44468 44415 44362 44313 44376 44455 44468 44419 44395 44406 44275 44223 44293 44420 44506 44532 44537 44534 44580 44588 44506 44451 44389 44382 44368 44399 44394 44436 44497 44606 44678 44639 44604 44575 44621 44656 44651 44767 44913 44978 44984 44993 44818 44872 44824 44910 45037 45075 45093 45169 45222 45268 45081 45202 45119 45265 45291 45302 45248 45297 45296 45359 45316 45336 45311 45344 45369 45496 45511 45516 45430 45477 45511 45508 45418 45429 45419 45511 45561 45660 45756 45789 45762 45655 45604 45549 45529 45500 45494 45512 45463 45367 45303 45193 45111 45070 45147 45163 45186 45213 45266 45353 45350 45361 45224 45192 45267 45269 45294 45337 45364 45363 45413 45479 45404 45313 45178 45207 45228 45255 45209 45296 45268 45276 45165 45027 45024 45049 45039 45243 45395 45565 45622 45752 45731 45645 45554 45504 45583 45652 45695 45719 45743 45676 45534 45321 45224 45250 45346 45393 45386 45413 45398 45344 45261 45150 45064 45015 44947 44881 44867 44847 44873 44889 44930 44815 44665 44668 44661 44706 44766 45169 45597 45870 45942 45805 45566 45544 45554 45644 45510 45512 45417 45327 45239 45163 45000 44877 44765 44698 44651 44664 44606 44726 44751 44739 44642 44703 44769 44840 44894 44916 44990 44988 44983 44974 44894 44893 44867 44796 44757 44734 45117 45275 45384 45475 45235 45278 45382 45456 45430 45531 45603 45590 45545 45454 45312 45336 45362 45431 45490 45512 45480 45474 45460 45438 45284 45222 45169 45194 45431 45607 45748 45771 45835 45891 45897 45841 45870 45879 45945 46016 46050 46107 46120 46137 46108 46144 46257 46392 46475 46615 46712 46816 46950 47008 46991 47029 47123 47216 47268 47309 47397 47467 47491 47473 47337 47303 47303 47272 47249 47211 47215 47210 47244 47169 47066 46960 46837 46768 46680 46690 46646 46629 46652 46652 46537 46276 46197 46113 46162 46105 46066 45949 45928 45917 45737 45574 45410 45346 45397 45349 45290 45232 45209 45209 45146 45069 45000 45060 45058 45098 45095 45059 44962 45014 44915 44908 44926 44856 45033 45292 45435 45636 45637 45717 45639 45521 45462 45480 45523 45662 45815 45889 45949 45938 46150 46202 46325 46432 46364 46368 46355 46512 46571 46690 46676 46627 46511 46330 46139 46070 46057 45950 45944 45807 45658 45347 45416 45485 45677 45877 45884 45889 45950 45888 45848 45645 45495 45430 45361 45231 45165 44973 44825 44612 44375 44122 43871 43748 43703 43698 43708 43856 43878 44007 44064 43919 43860 43795 43794 43806 43786 43721 43750 43768 43779 43643 43403 43234 43246 43378 43396 43422 43494 43586 43648 43661 43584 43400 43424 43506 43647 43750 43706 43679 43794 43695 43495 43283 43150 43064 43024 43172 43263 43328 43677 43820 43753 43632 43609 43476 43471 43453 43646 43793 43702 43608 43436 43192 43007 42823 42696 42731 42707 42745 42969 43138 43317 43142 43116 43215 43292 43359 43389 43444 43567 43524 43582 43383 43351 43268 43172 43154 43176 43176 43224 43308 43302 43177 43006 42901 42923 42945 43138 43176 43351 43498 43491 43502 43355 43187 43342 43389 43482 43461 43422 43526 43556 43463 43387 43239 43337 43344 43503 43629 43641 43629 43677 43726 43687 43627 43538 43557 43631 43660 43624 43625 43657 43792 43719 43637 43575 43535 43603 43689 43908 43948 43936 44073 44024 44039 43979 43917 43936 44006 44040 44145 44081 43962 44017 43985 43995 43955 44069 44209 44277 44469 44744 45016 45387 45293 45277 45404 45546 45538 45316 45082 44918 44776 44758 44667 44574 44513 44489 44471 44483 44506 44531 44483 44514 44478 44461 44417 44376 44367 44426 44400 44403 44430 44459 44458 44353 44212 44198 44213 44278 44375 44454 44506 44508 44480 44463 44356 44340 44397 44516 44679 44850 45032 45495 45640 45870 46055 45882 45948 46060 46031 46239 46273 46465 46524 46694 46652 46419 46386 46286 46291 46451 46308 46404 46359 46407 46352 46166 45792 45461 45241 45236 45213 45227 45228 45280 45343 45326 45171 45066 44998 44837 44661 44540 44409 44358 44287 44052 43886 43829 43835 43868 43975 44087 44124 44103 44031 43955 43882 43748 43585 43425 43340 43420 43482 43436 43466 43457 43364 43346 43206 43143 43106 43021 43022 42969 42957 43009 43032 42965 42862 42775 42722 42745 42686 42740 42776 42745 42771 42769 42700 42642 42557 42590 42591 42559 42529 42583 42604 42642 42657 42542 42551 42549 42596 42664 42678 42697 42734 42771 42748 42626 42519 42480 42520 42582 42673 42741 42792 42978 43168 43292 43133 43105 43035 42965 42928 42874 42885 42887 42924 43043 43168 43118 43118 43085 43118 43146 43217 43225 43205 43162 43126 43051 43047 43064 43116 43183 43242 43295 43260 43223 43261 43136 43156 43298 43349 43388 43438 43471 43745 43882 43825 43836 43614 43680 43689 43731 43749 43796 43885 43943 43949 43968 43906 43763 43773 43686 43749 43812 43956 44000 44094 44190 44156 44019 43870 43852 43849 43856 43870 43921 43989 44003 44032 43952 43852 43756 43697 43639 43677 43732 43750 43738 43655 43556 43474 43418 43409 43341 43372 43502 43529 43532 43488 43473 43362 43293 43343 43310 43301 43442 43483 43498 43560 43558 43509 43364 43296 43314 43321 43337 43354 43300 43323 43303 43225 43077 42935 42845 42868 42927 43046 43092 43006 43158 43150 42963 42841 42756 42777 42772 42771 42771 42822 42896 42932 42734 42625 42588 42662 42793 42797 42831 42838 42865 42924 42885 42714 42636 42561 42580 42646 42708 42728 42753 42739 42789 42716 42649 42506 42439 42390 42443 42518 42551 42597 42681 42689 42603 42578 42525 42681 42694 42725 42880 42893 42932 42963 42910 42983 42969 42928 42917 42902 43047 43065 43054 43127 43144 43168 43120 43022 42983 42981 42970 43137 43206 43185 43173 43023 42945 42826 42770 42773 42765 42835 42918 42894 42957 42958 42928 42948 42947 43076 43079 43127 43212 43238 43379 43486 43540 43387 43339 43410 43478 43425 43467 43485 43518 43578 43495 43468 43354 43262 43313 43334 43441 43428 43430 43405 43361 43415 43316 43385 43364 43391 43373 43350 43353 43491 43461 43419 43361 43304 43297 43292 43306 43390 43471 43483 43576 43634 43688 43525 43482 43493 43468 43463 43549 43682 43871 43939 44092 44250 44233 44378 44396 44722 45143 45419 45861 46245 46619 46771 46732 46729 46680 46569 46403 46274 46179 46121 46085 45907 45759 45535 45399 45308 45201 45045 44989 45122 45238 45273 45206 45068 44909 44795 44673 44675 44672 44705 44679 44530 44595 44705 44652 44538 44460 44480 44473 44540 44583 44535 44410 44371 44254 44026 43923 43849 43965 44131 44389 44505 44508 44383 44228 43928 43667 43559 43680 43745 43856 43851 43858 43835 43871 43745 43585 43534 43473 43641 43682 43721 43746 43664 43816 43749 43675 43547 43409 43419 43584 43635 43618 43657 43659 43685 43660 43451 43367 43236 43462 43534 43529 43608 43629 43726 43798 43579 43552 43653 43703 43781 43685 43683 43684 43747 43745 43680 43483 43493 43601 43576 43840 43945 44113 44243 44223 44265 44197 44078 43945 43940 43931 44002 43993 44434 44331 44589 45429 46196 47261 47841 48058 48118 48065 48159 48187 48166 48192 47923 47720 47599 47574 47594 47578 47699 47876 47988 47945 47736 47514 47735 47948 48045 48048 47963 48080 48155 48039 47907 47575 47233 47006 46826 46668 46602 46532 46555 46571 46461 46243 46010 45913 45912 45846 45851 45839 45692 45650 45494 45598 45853 45789 45692 45510 45348 45456 45697 45852 45980 46058 46049 45952 45738 45564 45370 45399 45564 45619 45686 45698 45694 45536 45333 45234 45132 45260 45249 45397 45485 45557 45654 45653 45663 45522 45405 45421 45456 45511 45339 45115 44873 44700 44539 44243 43988 43888 43894 43920 44030 44173 44399 44534 44594 44766 44681 44612 44607 44633 44849 44967 45094 45155 45099 44942 44658 44212 43840 43770 43788 43854 43863 44130 44310 44646 44776 44802 44753 44763 44791 44847 44993 44997 44827 44693 44727 44755 44690 44510 44512 44573 44706 44855 44950 44844 44638 44488 44688 44771 44927 44968 44993 44946 44964 44973 45047 45123 45203 45120 44961 44787 44488 44304 44003 43752 43853 43935 43911 43976 44068 43965 44041 44246 44550 44818 45007 45176 45355 45315 45415 45292 45136 44695 44449 44613 44736 44777 44859 44799 44571 44301 44221 44115 43866 43871 43794 43686 43742 43889 44224 44629 44941 45040 45021 45069 45211 45390 45480 45620 45648 45797 45793 45777 45639 45407 45242 45170 45182 45218 45101 44946 44726 44585 44495 44449 44441 44482 44506 44632 44764 44960 45151 45345 45471 45515 45452 45253 45060 44931 44826 44795 44772 44767 44807 44890 44905 44773 44663 44608 44582 44632 44713 44864 45017 45155 45349 45494 45463 45471 45385 45307 45197 45098 45064 45096 45183 45387 46177 47326 47570 47690 47874 47668 47239 47012 47229 47442 47457 47333 47177 47079 47027 47050 47107 47168 47291 47363 47446 47598 47656 47641 47759 47976 48199 48406 48583 48687 48808 48819 48994 49494 49457 49032 49323 50235 50414 51157 51663 51595 51649 51820 51889 51808 51633 51518 51580 51699 52086 52577 52420 52202 51705 51247 50801 50484 50088 49621 49141 48913 48833 48750 48511 48178 47818 47557 47394 47281 47183 47122 47098 47012 46974 46787 46612 46527 46686 47254 48013 48736 49140 49261 49085 48900 48545 48228 48064 48016 48035 48057 48139 48235 48404 48495 48303 47946 47670 47414 47238 47137 46876 46638 46453 46360 46400 46451 46569 46807 47085 47431 47742 48038 48285 48434 48684 48674 48601 48444 48314 48405 48557 48662 48935 49114 49245 49261 49253 49269 49367 49569 49736 49968 50262 50379 50478 50463 50276 50074 49942 49730 49534 49332 49179 49042 48901 48664 48317 48014 47778 47596 47447 47283 47193 47126 47077 46921 46574 46242 45971 45777 45647 45467 45340 45225 45138 45007 44702 44418 44246 44123 44034 43979 43927 43887 43845 43771 43598 43540 43602 43716 43833 43997 44169 44250 44404 44560 44438 44100 43762 43576 43550 43548 43550 43548 43609 43652 43617 43530 43512 43553 43612 43665 43711 43736 43783 43818 43760 43632 43647 43737 43833 43964 44044 44085 44102 44166 44177 44120 44154 44268 44396 44521 44597 44614 44553 44445 44294 44083 43888 43801 43705 43647 43606 43568 43533 43494 43466 43389 43411 43686 44064 44358 44441 44666 44788 44857 44912 44804 44597 44384 44239 44176 44194 44212 44220 44203 44114 43936 43842 43823 43875 43994 44086 44187 44263 44313 44324 44213 44061 43878 43771 43769 43850 44000 44113 44154 44100 44188 44485 45016 45072 45155 45356 45589 45696 45734 45828 45774 45634 45581 45583 45740 45979 46151 46296 46425 46414 46378 46235 46029 45897 45926 46010 46228 46553 46992 47214 47155 47025 46958 47115 47278 47575 47838 47873 47846 47760 47726 47469 47237 47120 47092 47245 47331 47991 48764 49697 50494 51106 51573 51839 51969 52122 52333 52436 52612 52707 52733 52672 52550 52434 52342 52207 52040 51880 51710 51555 51373 51125 50668 50197 49792 49458 49199 48972 48781 48613 48409 48126 47685 47332 47125 47160 47400 47745 48054 48314 48565 48801 48826 48860 48897 49003 49117 49175 49178 49231 49338 49315 49155 48937 48865 48915 48973 49066 49182 49286 49452 49683 49807 49819 49773 49834 49869 49876 49876 49891 49906 49954 49937 49810 49673 49556 49425 49362 49300 49239 49194 49162 49141 48878 48613 48334 48054 47910 47865 47760 47726 47651 47577 47411 47154 46901 46767 46717 46700 46673 46648 46593 46549 46428 46140 45889 45785 45812 45849 45978 46073 46320 46600 46748 46683 46512 46337 46203 46134 46091 46156 46273 46394 46491 46369 46154 45970 45867 45826 45809 45814 45846 45870 45879 45863 45702 45549 45472 45482 45551 45592 45626 45669 45697 45712 45613 45436 45346 45328 45360 45415 45468 45524 45560 45607 45604 45453 45337 45296 45317 45361 45398 45411 45404 45417 45401 45229 45054 44986 44986 45031 45073 45104 45146 45170 45205 45170 45031 44935 44901 44915 44935 44951 44989 45057 45120 45164 45093 44969 44903 44865 44874 44896 44914 44908 44925 44988 45001 44905 44772 44734 44713 44735 44758 44804 44829 44856 44892 44876 44772 44719 44739 44790 44854 44911 44951 44980 45003 45039 44932 44792 44721 44678 44597 44483 44372 44315 44290 44333 44485 44630 44903 45271 45555 45793 46113 46371 46475 46711 46857 46966 47014 47076 47177 47226 47139 46956 46664 46453 46290 46180 46173 46153 46159 46257 46348 46289 46325 46471 46484 46556 46559 46460 46356 46346 46338 46309 46335 46361 46314 46225 46091 45887 45531 45133 44819 44598 44475 44394 44321 44258 44177 44127 44059 43869 43735 43664 43617 43605 43589 43540 43497 43449 43388 43257 43032 42884 42826 42836 42895 42991 43094 43199 43310 43380 43347 43225 43174 43191 43246 43335 43431 43529 43633 43718 43845 43865 43797 43796 43811 43790 43759 43674 43604 43540 43508 43488 43429 43407 43396 43408 43441 43439 43416 43309 43195 43110 43015 42837 42694 42664 42662 42678 42676 42653 42629 42645 42661 42636 42524 42452 42426 42440 42439 42435 42460 42459 42467 42506 42515 42456 42402 42410 42455 42509 42563 42614 42616 42663 42724 42724 42679 42623 42632 42682 42739 42771 42817 42832 42827 42858 42858 42805 42723 42694 42712 42756 42808 42853 42903 42937 42953 42972 42926 42894 42908 42847 42727 42789 42995 43172 43268 43331 43334 43233 43169 43141 43156 43197 43232 43261 43293 43315 43319 43311 43194 43093 43103 43123 43134 43154 43162 43171 43191 43204 43221 43206 43239 43319 43453 43590 43710 43828 43925 44011 44115 44138 44105 44139 44262 44418 44609 44747 44834 44910 44920 44902 44860 44757 44714 44730 44796 44844 44870 44863 44892 44914 44917 44811 44611 44472 44421 44401 44404 44400 44374 44372 44376 44401 44333 44283 44319 44457 44632 44822 45020 45168 45305 45438 45563 45641 45633 45649 45785 45957 46084 46089 46013 45886 45796 45699 45538 45278 45053 44941 44787 44633 44510 44419 44394 44374 44297 44167 44069 44076 44121 44193 44219 44242 44263 44263 44250 44154 44014 43912 43910 43927 43908 43816 43730 43696 43692 43688 43547 43396 43312 43263 43270 43290 43293 43293 43300 43301 43263 43113 43026 43018 43047 43085 43152 43181 43210 43250 43262 43245 43112 43020 43004 43036 43071 43104 43128 43143 43158 43194 43158 43040 42967 42962 42981 43013 43042 43053 43046 43064 43050 42978 42879 42850 42868 42887 42908 42930 42925 42918 42918 42910 42817 42731 42677 42666 42677 42671 42669 42688 42705 42734 42749 42718 42671 42661 42682 42710 42747 42774 42793 42802 42808 42820 42761 42707 42660 42658 42687 42717 42745 42758 42770 42800 42824 42819 42712 42623 42595 42625 42664 42673 42719 42749 42787 42809 42795 42732 42713 42744 42776 42816 42843 42852 42869 42847 42853 42811 42724 42677 42664 42683 42694 42696 42687 42735 42754 42832 42883 42869 42867 42900 42967 43017 43096 43139 43186 43245 43338 43433 43470 43485 43509 43539 43544 43551 43548 43546 43532 43526 43495 43449 43332 43185 43102 43107 43151 43196 43233 43305 43354 43424 43481 43486 43430 43448 43537 43678 43791 43869 43957 43960 43918 43870 43824 43820 43825 43950 44138 44279 44403 44546 44618 44741 44839 44920 44883 44788 44749 44732 44735 44737 44726 44713 44702 44707 44680 44569 44489 44443 44419 44471 44504 44511 44491 44483 44493 44517 44467 44401 44389 44432 44508 44587 44666 44723 44795 44909 44978 44937 44831 44797 44804 44884 44969 45029 45065 45104 45125 45128 45043 44916 44829 44767 44753 44749 44733 44703 44680 44656 44628 44504 44391 44303 44297 44316 44314 44320 44331 44359 44393 44406 44326 44318 44300 44325 44357 44415 44427 44466 44490 44518 44503 44423 44339 44290 44301 44312 44318 44329 44325 44316 44312 44294 44209 44126 44094 44111 44127 44132 44125 44137 44151 44133 44110 44033 43976 43959 43965 43992 43997 43997 43984 43988 44009 43991 43920 43881 43899 43936 43990 44013 44044 44052 44047 44033 44005 43932 43859 43856 43854 43842 43822 43818 43837 43914 44030 44200 44276 44267 44245 44336 44526 44733 44929 45053 45082 45172 45189 45117 45076 45093 45112 45077 44973 44908 44782 44689 44603 44472 44348 44221 44163 44124 44067 44049 43974 43962 43960 43952 43910 43876 43868 43920 43973 44021 44063 44067 44101 44182 44296 44350 44441 44517 44580 44631 44724 44776 44886 44985 45058 45077 44977 44883 44813 44817 44847 44854 44833 44820 44808 44819 44734 44604 44501 44454 44446 44457 44457 44425 44394 44377 44386 44326 44316 44364 44411 44443 44467 44475 44470 44467 44457 44432 44338 44334 44363 44390 44401 44412 44389 44347 44340 44300 44190 44063 43906 43798 43744 43738 43722 43689 43664 43659 43629 43535 43474 43424 43431 43458 43463 43453 43467 43505 43536 43555 43535 43543 43561 43574 43594 43599 43595 43600 43602 43607 43599 43557 43548 43556 43582 43574 43592 43595 43574 43567 43574 43552 43517 43517 43530 43529 43549 43565 43561 43556 43570 43580 43536 43505 43502 43505 43532 43560 43557 43568 43564 43579 43590 43539 43506 43507 43516 43530 43544 43566 43575 43558 43588 43583 43558 43512 43520 43524 43551 43580 43590 43603 43603 43630 43634 43582 43565 43590 43610 43635 43642 43662 43668 43668 43689 43686 43667 43631 43627 43639 43672 43694 43685 43697 43705 43726 43760 43751 43758 43754 43771 43824 43864 43897 43916 43935 43958 43963 43953 43923 43904 43907 43938 43964 43965 43990 44000 43993 44003 44004 43956 43929 43933 43953 43981 43989 44010 44008 44025 44028 44047 43992 43928 43922 43938 43961 43983 43984 43976 43985 43993 43996 43942 43868 43841 43870 43895 43927 43930 43923 43923 43925 43938 43871 43793 43790 43814 43861 43869 43867 43880 43877 43888 43893 43836 43766 43749 43764 43788 43801 43799 43808 43799 43816 43817 43762 43713 43702 43725 43752 43750 43761 43763 43760 43770 43768 43718 43671 43666 43688 43733 43729 43745 43759 43770 43771 43791 43749 43695 43690 43699 43726 43772 43768 43752 43762 43756 43767 43743 43679 43653 43664 43689 43718 43714 43732 43731 43737 43762 43740 43701 43664 43669 43698 43744 43739 43740 43762 43781 43798 43796 43757 43690 43703 43736 43763 43776 43774 43774 43767 43740 43718 43651 43620 43606 43627 43690 43745 43781 43805 43822 43854 43885 43875 43843 43793 43802 43822 43869 43885 43918 43932 43954 43976 44010 44016 43946 43920 43948 43979 44020 44049 44060 44061 44079 44087 44109 44109 44067 44045 44045 44074 44114 44134 44148 44147 44154 44178 44185 44191 44138 44097 44092 44133 44163 44175 44184 44176 44179 44178 44173 44181 44150 44099 44088 44096 44113 44132 44122 44151 44174 44177 44194 44223 44195 44153 44138 44143 44191 44204 44221 44227 44231 44243 44256 44263 44251 44203 44162 44161 44201 44230 44261 44274 44303 44316 44324 44341 44359 44296 44243 44245 44278 44307 44332 44333 44343 44341 44364 44368 44368 44326 44257 44243 44255 44290 44299 44299 44267 44158 44069 44007 44031 44031 44038 44096 44254 44473 44775 45018 45297 45725 46171 46502 46786 46931 46981 47143 47310 47352 47255 47162 46971 46835 46825 46868 46867 46909 46939 46924 46922 47055 47232 47542 47843 47820 47849 47958 48189 48264 48368 48486 48535 48622 48733 48803 48991 49216 49468 49639 49835 50020 50114 50043 49923 50020 50457 51188 51577 51703 52915 52148 52078 52751 53046 52905 52548 52336 52302 52047 51347 51228 51286 51281 51211 51129 50962 50672 50394 50152 49949 49738 49550 49371 49187 49018 48875 48750 48553 48286 48041 47880 47753 47688 47617 47544 47483 47426 47379 47341 47236 47038 46884 46779 46740 46709 46678 46623 46575 46552 46516 46486 46348 46170 46021 45956 45943 45962 45970 45948 45936 45940 45957 45956 45840 45688 45582 45554 45574 45597 45612 45631 45639 45689 46358 48269 48087 46897 46617 46421 46178 45895 45658 45393 45162 44989 44892 44870 45100 45249 45657 46776 47670 48297 48764 49130 49457 49734 49992 50218 50439 50609 50730 50879 51024 51169 51290 51423 51516 51601 51704 51774 51841 51913 51956 51982 52038 52095 52156 52211 52253 52327 52370 52430 52472 52503 52525 52550 52551 52574 52607 52646 52691 52726 52737 52772 52776 52800 52822 52815 52797 52790 52806 52840 52885 52912 52934 52956 52975 52990 53006 53027 53000 52982 52993 52997 53038 53066 53090 53105 53129 53138 53158 53161 53145 53086 53060 53044 53017 53003 52994 53002 52999 52965 52946 52958 52940 52891 52821 52762 52690 52630 52568 52476 52381 52269 52088 51864 51644 51407 51098 50796 50525 50243 49923 49627 49319 48981 48650 48312 48010 47638 47178 46762 46426 46205 46124 46117 46152 46187 46221 46193 46110 46016 45810 45565 45452 45621 45903 46176 46340 46490 46747 47257 47462 46961 46743 46247 46160 46360 46535 46736 46878 46945 46941 46908 46831 46735 46642 46375 46022 45724 45433 45216 44983 44761 44539 44338 44173 44075 44026 43922 43775 43675 43610 43582 43555 43513 43458 43436 43410 43426 43444 43396 43305 43241 43238 43297 43367 43393 43393 43416 43438 43465 43476 43466 43351 43263 43250 43260 43301 43359 43402 43417 43414 43428 43462 43514 43498 43404 43384 43409 43346 43238 43161 43113 43085 43090 43006 42907 42799 42626 42436 42291 42213 42200 42241 42301 42388 42439 42482 42503 42495 42501 42468 42454 42449 42428 42395 42373 42365 42382 42421 42453 42485 42524 42519 42518 42532 42586 42681 42758 42805 42815 42848 42862 42865 42869 42834 42776 42705 42685 42699 42700 42696 42631 42549 42454 42410 42390 42380 42351 42307 42254 42242 42239 42253 42273 42281 42287 42298 42297 42291 42284 42215 42130 42053 42012 42010 42026 42028 42004 42001 42007 42004 41986 41913 41839 41790 41755 41760 41805 41814 41787 41765 41745 41732 41741 41713 41658 41602 41568 41572 41586 41580 41574 41568 41563 41556 41572 41590 41564 41509 41491 41511 41517 41556 41579 41582 41587 41592 41607 41601 41603 41534 41479 41449 41463 41494 41509 41517 41529 41524 41535 41561 41567 41584 41524 41499 41497 41523 41565 41585 41586 41603 41616 41645 41661 41665 41658 41609 41604 41614 41650 41717 41733 41750 41769 41794 41812 41837 41854 41804 41770 41796 41803 41840 41889 41913 41939 41953 41984 42002 42043 42036 41988 41977 41972 42006 42054 42086 42121 42153 42192 42208 42263 42263 42235 42194 42157 42163 42183 42216 42238 42262 42279 42296 42348 42383 42423 42406 42344 42283 42251 42220 42211 42200 42205 42210 42246 42312 42336 42321 42279 42217 42176 42172 42216 42265 42295 42337 42367 42374 42397 42417 42408 42355 42290 42276 42291 42318 42372 42467 42627 42879 43101 43325 43538 43840 43908 43846 43744 43686 43728 43817 43931 43974 43946 43880 43795 43720 43625 43494 43395 43312 43287 43247 43162 43121 43066 43074 43137 43223 43305 43234 43179 43165 43235 43397 43405 43425 43537 43685 43729 43788 43806 43814 43714 43684 43617 43572 43506 43407 43409 43368 43360 43309 43291 43265 43155 43048 42960 42897 42849 42854 42812 42800 42775 42801 42848 43048 43297 43440 43595 43621 43620 43548 43374 43334 43346 43393 43444 43574 43532 43476 43515 43551 43609 43635 43605 43567 43705 44081 44552 45261 46238 46686 46360 45860 45619 45610 45834 46147 46129 46230 46243 46304 46396 46360 46200 46046 46129 46340 46554 46776 46885 46931 46931 46895 46797 46613 46305 45968 45601 45491 45396 45455 45438 45381 45272 45206 45248 45209 45117 45072 44902 44886 44863 44781 44681 44598 44706 44716 44838 44938 44973 44876 44852 44824 44802 44736 44787 44882 44915 44943 44931 45008 45046 45044 44959 45064 45093 45124 45133 45069 45045 44988 44916 45015 45103 45038 44827 44694 44620 44581 44529 44519 44608 44761 44694 44574 44582 44754 44861 44767 44591 44363 44202 44037 43826 43875 43747 43696 43715 43693 43739 43646 43612 43628 43533 43567 43429 43412 43832 43929 43968 43951 44028 43937 43628 43599 43844 43885 43817 43909 43899 43922 43877 43844 43887 43951 43905 43739 43665 43869 43843 43949 43857 44376 44347 44340 44239 44427 44432 44544 44443 44302 44176 43991 43976 43892 43890 43780 43777 43790 43786 43723 43832 43805 43847 43915 43925 43977 43924 43997 44021 44065 44031 44084 44037 44054 44050 