50649 51833 51681 51521 51349 51147 50984 50835 50709 50559 50430 50285 50115 49954 49678 49219 48762 48363 48008 47727 47467 47194 46964 46775 46628 46546 46505 46382 46236 46116 45830 45485 45181 44948 44781 44688 44605 44518 44400 44340 44343 44416 44561 44730 44855 44909 44761 44631 44578 44525 44505 44528 44495 44484 44511 44536 44579 44656 44703 44769 44806 44685 44555 44487 44470 44495 44537 44581 44631 44750 44899 45068 45255 45398 45527 45607 45596 45405 45215 45067 44881 44664 44519 44379 44301 44334 44390 44486 44596 44724 45012 45187 45119 44931 44849 44860 44963 45073 45097 45081 45075 45077 44994 44873 44719 44668 44664 44816 45181 45484 45559 45486 45438 45445 45361 45242 45197 45186 45181 45169 45112 45062 44926 44745 44634 44696 44915 45167 45397 45627 45842 45962 46075 46162 46236 46284 46307 46287 46274 46369 46505 46758 47013 47286 47545 47817 48081 48324 48564 48541 48393 47712 43644 41656 42555 42886 43192 43260 43305 43548 43671 43701 43660 43606 43579 43615 43649 43717 43764 43782 43795 43862 43912 43947 43985 44055 44121 44154 44194 44232 44271 44299 44322 44360 44388 44418 44449 44487 44513 44536 44546 44565 44590 44615 44628 44638 44643 44666 44674 44681 44706 44738 44727 44769 44755 44778 44792 44816 44823 44832 44836 44859 44858 44873 44872 44877 44883 44885 44908 44909 44915 44929 44946 44951 44980 44999 45020 45019 45037 45037 45039 45034 45052 45047 45069 45103 45116 45148 45163 45193 45209 45252 45264 45284 45271 45251 45268 45262 45271 45283 45307 45351 45352 45350 45387 45373 45383 45403 45411 45391 45380 45371 45369 45379 45387 45407 45416 45414 45429 45433 45463 45459 45480 45491 45495 45485 45499 45489 45488 45487 45496 45508 45511 45526 45544 45540 45569 45581 45602 45611 45601 45590 45593 45584 45609 45618 45639 45652 45663 45662 45680 45712 45711 45718 45725 45724 45713 45706 45705 45709 45730 45735 45742 45750 45752 45782 45804 45817 45806 45827 45836 45813 45784 45784 45791 45801 45824 45803 45804 45841 45844 45862 45848 45867 45887 45904 45923 45912 45913 45942 45940 45954 45979 45992 45988 45988 46005 46002 45991 46004 46008 46043 46030 45995 45988 45973 45971 45946 45943 45946 45971 46000 46001 46013 46008 46024 46043 46063 46086 46082 46082 46087 46090 46105 46123 46104 46135 46131 46129 46141 46144 46143 46149 46160 46143 46107 46091 46082 46088 46087 46100 46104 46110 46116 46122 46113 46125 46149 46161 46169 46155 46167 46137 46140 46140 46175 46192 46144 46023 45979 46379 46067 45702 45470 45291 45227 45258 45263 45269 45267 45280 45272 45293 45332 45336 45320 45348 45327 45341 45342 45348 45354 45342 45298 45261 45256 45269 45275 45284 45284 45277 45282 45261 45277 45297 45322 45317 45306 45275 45272 45276 45310 45298 45327 45314 45323 45318 45326 45335 45348 45345 45359 45346 45317 45279 45273 45267 45251 45257 45245 45252 45261 45247 45251 45258 45276 45303 45318 45319 45302 45261 45243 45237 45241 45243 45248 45224 45210 45194 45193 45185 45191 45173 45149 45072 45039 45012 45006 44996 44959 44929 44940 44919 44920 44915 44922 44928 44941 44938 44887 44838 44822 44790 44775 44780 44787 44767 44769 44776 44778 44783 44785 44771 44768 44713 44652 44635 44604 44566 44553 44539 44526 44516 44499 44493 44510 44513 44500 44503 44465 44399 44356 44309 44272 44257 44226 44209 44182 44178 44175 44175 44201 44194 44217 44182 44117 44086 44057 44050 44053 44056 44080 44124 44143 44196 44231 44253 44280 44320 44364 44369 44330 44330 44312 44328 44348 44381 44377 44358 44364 44376 44395 44409 44416 44416 44402 44360 44336 44294 44277 44253 44228 44229 44209 44207 44225 44220 44251 44257 44287 44299 44337 44287 44250 44219 44219 44209 44201 44188 44166 44159 44158 44163 44173 44173 44191 44162 44094 44039 44015 43997 43995 43984 43983 43970 43974 44001 44003 44022 44062 44068 44099 44082 44026 43993 43961 43944 43959 43957 43981 43988 44007 44026 44052 44066 44087 44092 44116 44104 44051 43998 44001 43979 43953 43945 43934 43928 43907 43911 43928 43927 43946 43952 43967 43950 43887 43827 43773 43768 43751 43752 43755 43748 43759 43761 43800 43852 43862 43872 43835 43759 43711 43679 43656 43673 43678 43680 43663 43657 43695 43716 43762 43786 43834 43868 43862 43803 43728 43704 43672 43655 43675 43650 43611 43617 43610 43620 43636 43649 43671 43686 43604 43516 43417 43359 43318 43315 43312 43290 43279 43287 43312 43340 43349 43355 43382 43410 43329 43233 43156 43128 43117 43118 43116 43107 43095 43084 43121 43127 43133 43158 43173 43108 43006 42929 42884 42882 42892 42908 42899 42907 42935 42965 43014 43042 43071 43100 43086 42987 42884 42821 42788 42787 42772 42750 42765 42775 42805 42808 42823 42853 42908 42885 42828 42735 42679 42683 42650 42636 42612 42578 42566 42571 42595 42632 42674 42705 42739 42713 42605 42513 42451 42419 42411 42406 42372 42325 42310 42353 42401 42445 42486 42473 42469 42389 42293 42264 42243 42224 42224 42225 42223 42239 42244 42278 42320 42387 42446 42441 42357 42238 42195 42162 42182 42187 42184 42202 42199 42201 42241 42267 42317 42375 42419 42370 42250 42175 42128 42105 42111 42120 42131 42126 42146 42183 42211 42258 42280 42326 42325 42273 42209 42135 42099 42096 42110 42118 42124 42144 42153 42184 42207 42227 42255 42276 42285 42203 42131 42092 42081 42101 42112 42114 42118 42133 42156 42202 42217 42248 42299 42318 42278 42218 42172 42160 42184 42203 42220 42212 42216 42258 42299 42345 42363 42394 42429 42425 42334 42271 42225 42214 42224 42229 42230 42259 42279 42315 42352 42373 42416 42463 42491 42500 42447 42387 42344 42358 42362 42387 42394 42419 42450 42485 42500 42534 42552 42584 42603 42623 42587 42536 42523 42508 42513 42523 42511 42514 42533 42562 42596 42641 42660 42701 42711 42655 42589 42556 42569 42584 42603 42633 42650 42651 42688 42721 42758 42788 42813 42841 42873 42852 42812 42767 42755 42764 42764 42793 42806 42820 42824 42854 42895 42920 42953 43011 43067 43070 43009 42971 42966 42955 42968 42974 42984 42986 42997 43027 43081 43095 43124 43148 43159 43158 43139 43102 43095 43072 43093 43110 43116 43132 43176 43186 43223 43252 43280 43317 43344 43355 43336 43326 43331 43314 43306 43304 43322 43356 43357 43348 43380 43425 43457 43473 43443 43384 43351 43374 43369 43369 43340 43334 43328 43342 43382 43417 43436 43468 43499 43511 43496 43476 43417 43367 43396 43419 43430 43444 43447 43487 43534 43554 43598 43622 43648 43671 43660 43652 43644 43633 43667 43664 43685 43695 43712 43742 43787 43888 43911 43900 43911 43925 43912 43901 43900 43885 43897 43941 43933 43962 43978 43995 44020 44061 44095 44132 44144 44114 44120 44105 44104 44108 44104 44087 44092 44089 44079 44076 44090 44112 44102 44103 44091 44048 44043 44039 44023 44025 44014 44027 44038 44049 44048 44058 44063 44072 44101 44094 44071 44062 44036 44015 44013 44004 43994 43996 43979 44012 44004 44017 44046 44035 44061 44112 44125 44123 44107 44081 44077 44111 44138 44148 44192 44190 44208 44195 44201 44191 44176 44161 44148 44135 44149 44137 44145 44126 44120 44132 44140 44145 44160 44183 44218 44215 44212 44201 44196 44180 44186 44194 44260 44262 44249 44252 44274 44278 44283 44308 44346 44357 44345 44312 44265 44240 44228 44226 44230 44244 44228 44231 44219 44243 44260 44261 44272 44290 44272 44243 44214 44218 44204 44191 44206 44182 44182 44171 44169 44169 44176 44203 44216 44214 44175 44175 44148 44130 44120 44124 44132 44132 44140 44144 44160 44172 44178 44170 44205 44241 44204 44177 44155 44120 44094 44062 44051 44058 44063 44075 44102 44137 44152 44169 44188 44160 44099 44065 44052 44031 44043 44053 44077 44090 44130 44145 44171 44177 44206 44212 44207 44148 44119 44090 44074 44071 44054 44045 44045 44048 44082 44106 44096 44116 44124 44125 44116 44074 44016 44027 43981 43961 43957 43979 44024 44045 44023 44013 44028 44070 44083 44072 44016 43977 43950 43942 43945 43954 43953 43948 43950 43969 43967 43960 43982 43974 43973 43986 43955 43913 43890 43886 43883 43886 43887 43916 43905 43912 43927 43931 43950 43962 43961 43909 43846 43811 43781 43776 43762 43775 43753 43747 43736 43748 43765 43760 43784 43804 43809 43763 43720 43682 43672 43654 43646 43645 43629 43634 43653 43666 43662 43681 43706 43710 43702 43640 43609 43576 43572 43574 43559 43543 43529 43528 43562 43558 43594 43625 43659 43648 43595 43577 43552 43542 43542 43525 43540 43525 43548 43583 43595 43613 43632 43643 43666 43651 43610 43571 43553 43541 43558 43571 43567 43566 43564 43584 43589 43620 43645 43654 43659 43613 43576 43538 43568 43551 43542 43523 43504 43519 43519 43522 43539 43551 43561 43563 43564 43530 43492 43479 43473 43468 43436 43452 43442 43472 43489 43513 43524 43565 43578 43574 43549 43504 43492 43479 43486 43481 43502 43484 43488 43510 43514 43530 43528 43557 43571 43534 43487 43473 43445 43460 43461 43434 43459 43455 43463 43474 43465 43487 43500 43516 43507 43483 43436 43417 43404 43394 43394 43390 43391 43388 43394 43391 43403 43432 43443 43459 43440 43427 43396 43386 43380 43389 43389 43395 43400 43418 43447 43458 43480 43509 43526 43506 43486 43492 43477 43480 43487 43489 43499 43495 43511 43512 43555 43577 43604 43612 43612 43578 43575 43565 43573 43592 43590 43613 43625 43634 43650 43672 43672 43675 43668 43640 43609 43578 43573 43584 43602 43616 43598 43599 43602 43622 43632 43624 43609 43582 43536 43518 43520 43508 43499 43488 43503 43477 43485 43490 43498 43519 43493 43432 43407 43393 43400 43374 43374 43358 43356 43351 43361 43374 43384 43388 43365 43333 43322 43315 43322 43345 43343 43352 43382 43380 43417 43441 43467 43486 43492 43516 43487 43477 43485 43495 43491 43504 43499 43539 43568 43593 43617 43634 43686 43705 43744 43799 43833 43822 43833 43840 43844 43882 43881 43893 43927 43943 43969 43997 43992 43994 43997 44003 43997 44003 44001 44004 44000 44013 44000 44019 44034 44051 44046 44045 44014 44016 44001 44008 43983 43999 43983 43979 43978 43977 43984 43980 43978 43963 43925 43871 43828 43797 43789 43782 43772 43774 43769 43755 43765 43760 43772 43780 43780 43736 43694 43595 43542 43499 43484 43455 43454 43427 43430 43413 43414 43412 43407 43431 43416 43358 43297 43240 43209 43186 43194 43174 43145 43132 43126 43154 43143 43170 43170 43164 43123 43060 43024 43006 43009 42992 42978 42966 42974 42988 42985 42991 43004 43005 43014 42969 42917 42898 42882 42878 42900 42882 42892 42893 42898 42910 42947 42946 42970 42981 42964 42922 42897 42885 42880 42893 42886 42898 42888 42914 42926 42950 42982 42996 43036 43072 43040 42994 42976 42958 42934 42945 42965 42973 42988 42992 42995 43007 43012 43041 43047 43050 43032 43013 42997 42991 43003 43007 43013 43046 43083 43096 43147 43197 43242 43277 43316 43344 43389 43452 43435 43413 43397 43408 43419 43447 43463 43495 43500 43486 43534 43571 43620 43627 43567 43547 43511 43516 43520 43491 43493 43499 43507 43516 43529 43537 43536 43555 43581 43600 43594 43563 43556 43539 43515 43498 43480 43470 43486 43481 43535 43552 43556 43554 43553 43522 43488 43451 43426 43411 43379 43393 43383 43364 43367 43382 43394 43404 43395 43412 43412 43386 43364 43345 43327 43337 43333 43333 43329 43328 43345 43348 43368 43387 43397 43404 43363 43322 43284 43262 43260 43252 43256 43272 43286 43278 43283 43283 43289 43315 43346 43310 43276 43252 43238 43249 43276 43294 43294 43314 43344 43407 43505 43546 43591 43583 43570 43561 43542 43558 43548 43545 43554 43569 43590 43621 43628 43658 43671 43680 43687 43684 43689 43679 43674 43669 43693 43694 43708 43721 43738 43759 43777 43800 43804 43806 43821 43817 43805 43775 43791 43788 43791 43784 43779 43779 43780 43802 43831 43840 43856 43864 43869 43845 43809 43784 43792 43765 43752 43741 43743 43737 43747 43730 43744 43769 43764 43776 43768 43716 43661 43639 43631 43601 43580 43588 43556 43561 43559 43575 43581 43576 43584 43573 43528 43484 43457 43448 43444 43422 43431 43426 43424 43424 43428 43434 43437 43455 43465 43433 43411 43388 43379 43371 43379 43379 43391 43403 43422 43438 43442 43457 43494 43516 43523 43533 43485 43474 43474 43487 43494 43529 43527 43536 43558 43575 43598 43610 43635 43651 43639 43624 43617 43605 43590 43608 43620 43638 43622 43632 43652 43651 43652 43679 43697 43738 43729 43684 43656 43640 43628 43620 43612 43600 43622 43608 43627 43636 43635 43669 43684 43679 43636 43622 43591 43631 43616 43622 43600 43600 43595 43615 43622 43616 43636 43629 43635 43610 43573 43553 43519 43505 43509 43500 43492 43487 43509 43533 43554 43570 43607 43586 43574 43549 43510 43486 43469 43468 43458 43449 43458 43474 43482 43504 43514 43558 43582 43554 43534 43516 43499 43499 43490 43481 43478 43504 43511 43527 43525 43556 43576 43586 43587 43554 43550 43552 43551 43556 43553 43548 43543 43537 43538 43552 43586 43620 43639 43620 43619 43655 43670 43654 43628 43594 43594 43595 43613 43621 43627 43651 43664 43705 43767 43798 43777 43743 43712 43707 43685 43689 43678 43676 43682 43693 43707 43730 43691 43643 43591 43584 43533 43501 43471 43466 43468 43437 43442 43434 43455 43474 43484 43493 43447 43393 43324 43292 43263 43243 43238 43196 43207 43203 43251 43248 43297 43304 43304 43268 43212 43153 43118 43094 43096 43089 43088 43078 43072 43083 43102 43108 43159 43198 43198 43138 43073 43103 43080 43072 43050 43019 43003 43023 43032 43028 43046 43053 43089 43094 43044 43017 43034 43020 43055 43053 43034 43013 43023 43047 43074 43090 43135 43150 43150 43088 43038 42998 42992 42991 42985 42990 42985 42976 42975 43020 43030 43051 43082 43096 43070 43034 43003 42970 42935 42949 42962 42991 42985 43009 43006 43003 43024 43046 43066 43077 43021 42959 42942 42930 42937 42931 42915 42916 42941 42945 42961 42977 42989 43011 43003 42946 42943 42895 42869 42866 42850 42847 42872 42876 42901 42934 42967 42986 43025 43027 42980 42931 42907 42896 42902 42916 42926 42943 42941 42965 42974 43022 43049 43058 43083 43083 43052 43020 43018 43017 43009 43001 42997 43004 43021 43035 43051 43057 43082 43103 43107 43070 43055 43037 43035 43044 43081 43062 43077 43100 43124 43144 43164 43198 43226 43243 43214 43200 43205 43194 43209 43201 43217 43245 43261 43283 43295 43336 43363 43377 43377 43427 43450 43466 43444 43422 43429 43432 43406 43391 43409 43448 43461 43458 43484 43490 43466 43416 43380 43329 43307 43304 43269 43249 43253 43265 43302 43306 43318 43326 43280 43210 43157 43147 43116 43088 43072 43052 43032 43047 43061 43087 43113 43112 43088 43038 42957 42943 42917 42903 42890 42901 42878 42890 42910 42912 42923 42961 42993 43038 43034 43036 43063 43005 42965 42975 42997 43001 43018 43026 43064 43078 43116 43153 43158 43157 43128 43062 43047 43080 43102 43118 43117 43153 43159 43153 43162 43181 43190 43187 43139 43109 43092 43074 43075 43067 43063 43046 43062 43083 43114 43158 43150 43167 43187 43156 43128 43105 43092 43100 43114 43113 43134 43160 43166 43197 43204 43232 43242 43232 43219 43191 43277 43295 43227 43202 43234 43221 43223 43211 43193 43211 43249 43264 43286 43257 43208 43173 43153 43165 43162 43161 43171 43170 43179 43192 43217 43240 43263 43257 43249 43222 43198 43179 43169 43171 43182 43189 43184 43179 43200 43230 43243 43274 43281 43285 43239 43210 43191 43182 43171 43179 43189 43171 43179 43204 43244 43252 43271 43305 43345 43358 43373 43340 43328 43327 43356 43363 43367 43368 43377 43391 43406 43418 43427 43455 43434 43366 43338 43321 43326 43344 43321 43309 43298 43293 43289 43270 43291 43307 43306 43283 43224 43187 43160 43165 43169 43180 43160 43177 43172 43194 43218 43231 43247 43274 43267 43215 43173 43149 43124 43112 43118 43089 43091 43097 43108 43135 43138 43149 43177 43215 43232 43207 43182 43149 43143 43128 43128 43121 43111 43150 43154 43147 43154 43178 43209 43205 43149 43113 43076 43058 43046 43030 43028 43019 43005 43021 43038 43046 43073 43081 43091 43065 43026 43005 43019 42999 42998 42995 42985 42993 42989 43016 43037 43057 43090 43105 43083 43042 43028 43029 43045 43052 43055 43048 43047 43059 43088 43104 43127 43149 43174 43173 43129 43097 43093 43085 43091 43102 43093 43087 43098 43118 43145 43167 43191 43235 43256 43216 43182 43150 43148 43131 43142 43156 43176 43169 43182 43182 43208 43218 43241 43278 43276 43265 43238 43191 43193 43200 43206 43197 43198 43218 43221 43243 43271 43292 43311 43322 43301 43288 43252 43225 43234 43228 43233 43222 43242 43240 43234 43254 43268 43281 43301 43291 43275 43233 43207 43194 43191 43193 43175 43161 43156 43155 43158 43149 43167 43176 43180 43161 43093 43032 43027 43020 43011 42990 42979 42970 42959 42990 43000 43025 43044 43034 43016 42962 42929 42910 42898 42914 42891 42891 42898 42908 42930 42930 42944 42976 43002 42993 42931 42888 42865 42840 42832 42830 42823 42826 42840 42872 42902 42914 42928 42946 42979 42923 42867 42832 42827 42813 42806 42789 42798 42802 42820 42824 42839 42850 42870 42910 42885 42849 42821 42798 42771 42774 42778 42795 42795 42821 42847 42860 42899 42922 42944 42984 42962 42907 42881 42856 42849 42845 42835 42836 42852 42860 42877 42894 42920 42940 42971 42993 42940 42889 42882 42834 42828 42797 42796 42776 42787 42794 42819 42834 42853 42863 42890 42862 42819 42800 42767 42766 42780 42771 42789 42805 42822 42843 42848 42905 42985 43068 43050 42995 42955 42929 42918 42920 42927 42920 42919 42934 42948 42971 42992 43032 43045 43057 42982 42967 42925 42910 42906 42902 42926 42900 42889 42905 42902 42941 42952 42960 42958 42904 42891 42882 42879 42891 42904 42904 42900 42908 42962 42985 43023 43069 43103 43051 42989 42987 42956 42949 42941 42942 42962 42954 42968 42979 42989 42999 43001 43014 42968 42922 42890 42861 42849 42851 42844 42828 42839 42842 42832 42843 42875 42870 42893 42842 42784 42741 42713 42704 42697 42685 42678 42663 42660 42680 42682 42688 42701 42639 42603 42578 42551 42547 42552 42555 42555 42575 42570 42579 42603 42621 42644 42653 42611 42579 42566 42561 42562 42577 42571 42567 42597 42648 42696 42814 42839 42839 42840 42826 42770 42730 42727 42707 42716 42714 42720 42734 42737 42770 42808 42839 42866 42897 42895 42840 42797 42764 42768 42764 42766 42744 42800 42897 42984 43044 43093 43196 43291 43322 43347 43350 43375 43367 43353 43365 43389 43391 43406 43400 43401 43397 43441 43464 43429 43324 43265 43201 43152 43113 43067 43022 43024 43013 43037 43077 43113 43066 43066 43071 43013 42957 42932 42938 42969 42983 43024 43081 43147 43187 43242 43295 43321 43356 43359 43329 43269 43289 43254 43245 43231 43214 43212 43205 43197 43225 43228 43249 43268 43253 43192 43138 43088 43075 43063 43061 43046 43033 43017 42997 42977 42954 42965 42949 42924 42836 42719 42624 42593 42542 42515 42474 42443 42432 42420 42436 42451 42498 42509 42514 42465 42373 42263 42205 42148 42151 42136 42148 42132 42133 42144 42157 42178 42188 42219 42220 42140 42066 42003 41987 41986 42000 41949 41934 41951 41983 42044 42077 42115 42158 42161 42083 42053 42030 42047 42084 42100 42089 42112 42158 42222 42277 42319 42359 42399 42398 42349 42269 42215 42180 42157 42171 42166 42170 42192 42209 42238 42290 42316 42356 42390 42387 42320 42272 42232 42227 42211 42193 42210 42227 42245 42268 42295 42324 42368 42399 42408 42408 42347 42292 42263 42243 42240 42224 42201 42202 42212 42235 42232 42247 42276 42314 42359 42338 42278 42218 42220 42237 42248 42266 42256 42275 42289 42321 42356 42393 42426 42473 42479 42420 42353 42300 42285 42277 42290 42271 42304 42349 42360 42348 42363 42410 42448 42486 42511 42507 42525 42593 42657 42710 42753 42785 42840 42869 42903 42949 42954 42933 42894 42839 42688 42506 42484 42548 42608 42672 42816 42925 43006 43073 43136 43186 43253 43310 43354 43341 43327 43357 43355 43371 43399 43431 43455 43476 43523 43553 43599 43638 43669 43715 43703 43675 43672 43650 43627 43609 43625 43641 43652 43681 43710 43746 43779 43802 43835 43829 43781 43735 43703 43685 43667 43668 43650 43645 43632 43630 43644 43673 43705 43717 43662 43586 43518 43468 43428 43419 43420 43441 43413 43423 43434 43451 43442 43472 43478 43381 43252 43160 43095 43031 42996 42967 42954 42940 42930 42938 42939 42936 42920 42896 42800 42670 42589 42481 42423 42380 42368 42317 42247 42250 42251 42277 42280 42272 42265 42145 42027 41956 41905 41909 41886 41854 41838 41840 41880 41924 41942 41997 42017 41971 41862 41796 41765 41739 41757 41764 41769 41795 41827 41880 41926 41976 42021 42073 42045 42010 41956 41932 41928 41953 41965 42004 42047 42081 42117 42141 42189 42232 42291 42313 42265 42237 42216 42226 42239 42257 42273 42310 42330 42347 42391 42432 42468 42505 42537 42504 42472 42472 42449 42470 42496 42525 42526 42536 42557 42592 42644 42697 42748 42754 42733 42693 42648 42622 42619 42628 42626 42628 42610 42609 42610 42635 42676 42690 42698 42669 42622 42597 42592 42583 42562 42550 42547 42544 42559 42597 42614 42635 42667 42673 42619 42561 42495 42443 42415 42406 42377 42396 42380 42381 42392 42400 42405 42428 42462 42487 42409 42331 42271 42250 42239 42223 42204 42204 42202 42230 42267 42285 42307 42332 42367 42360 42330 42250 42216 42194 42186 42200 42185 42190 42220 42237 42268 42296 42313 42323 42332 42301 42225 42201 42206 42208 42225 42226 42235 42274 42292 42345 42350 42391 42423 42457 42440 42387 42339 42310 42300 42303 42333 42345 42359 42399 42424 42469 42494 42525 42553 42547 42496 42448 42417 42407 42426 42425 42422 42434 42459 42485 42503 42509 42532 42558 42581 42524 42440 42413 42381 42399 42412 42411 42399 42385 42407 42420 42443 42472 42475 42517 42444 42396 42359 42348 42349 42341 42330 42327 42337 42349 42347 42340 42343 42337 42289 42210 42155 42102 42098 42107 42101 42087 42092 42103 42153 42142 42185 42185 42133 42067 42011 41989 41977 41982 41973 41966 41986 42016 42040 42073 42092 42091 42042 41989 41958 41942 41947 41980 42002 42029 42034 42062 42095 42147 42177 42220 42215 42182 42159 42171 42179 42204 42220 42230 42270 42296 42339 42387 42424 42457 42486 42495 42481 42475 42506 42499 42532 42554 42584 42600 42630 42655 42698 42726 42743 42778 42787 42818 42807 42829 42829 42853 42897 42908 42919 42955 42970 42994 43027 43079 43087 43118 43138 43135 43129 43142 43157 43189 43184 43201 43225 43225 43232 43252 43277 43292 43303 43309 43305 43304 43299 43301 43303 43307 43334 43311 43327 43327 43327 43340 43348 43368 43379 43408 43432 43452 43478 43525 43560 43580 43607 43616 43633 43658 43676 43696 43703 43712 43711 43739 43679 43650 43623 43600 43594 43563 43549 43539 43534 43549 43556 43542 43553 43555 43489 43440 43371 43331 43307 43266 43240 43195 43180 43186 43184 43169 43165 43171 43167 43114 43035 42973 42935 42911 42899 42857 42836 42822 42825 42827 42818 42827 42829 42837 42800 42747 42691 42662 42646 42648 42618 42625 42615 42606 42627 42633 42628 42640 42664 42669 42635 42602 42579 42583 42569 42593 42601 42614 42624 42634 42665 42689 42730 42754 42787 42754 42729 42709 42697 42712 42721 42747 42750 42777 42783 42794 42853 42922 42959 42956 42937 42928 42919 42948 42983 42991 42996 42982 43005 43037 43037 43059 43058 43078 43042 43004 42969 42927 42895 42875 42884 42882 42872 42855 42873 42880 42900 42904 42879 42825 42781 42767 42743 42706 42743 42702 42705 42709 42703 42718 42744 42730 42666 42592 42533 42501 42507 42487 42449 42439 42453 42454 42459 42477 42500 42496 42408 42332 42282 42278 42271 42276 42257 42274 42261 42247 42227 42231 42258 42274 42243 42201 42167 42169 42177 42194 42233 42261 42309 42344 42386 42412 42388 42320 42320 42295 42276 42262 42277 42287 42315 42340 42350 42364 42381 42393 42450 42455 42424 42399 42393 42405 42434 42452 42471 42487 42495 42524 42547 42570 42635 42655 42642 42633 42621 42620 42643 42651 42673 42683 42695 42700 42732 42751 42778 42794 42754 42718 42713 42688 42679 42689 42688 42691 42730 42722 42722 42738 42779 42807 42803 42751 42713 42658 42618 42617 42627 42616 42599 42597 42615 42656 42684 42708 42734 42733 42699 42676 42648 42657 42641 42622 42612 42608 42626 42650 42674 42690 42713 42726 42715 42661 42600 42584 42580 42580 42595 42568 42569 42571 42579 42582 42600 42620 42646 42647 42626 42579 42521 42497 42495 42511 42515 42504 42496 42500 42514 42542 42569 42592 42597 42585 42551 42532 42544 42567 42592 42612 42624 42681 42692 42721 42732 42740 42769 42800 42806 42757 42732 42716 42698 42706 42686 42676 42655 42650 42670 42679 42679 42709 42696 42662 42671 42672 42693 42693 42694 42735 42764 42822 42857 42905 42947 42990 43018 43009 42970 42928 42874 42845 42814 42767 42752 42742 42728 42708 42696 42701 42747 42781 42745 42652 42581 42514 42453 42400 42374 42320 42278 42236 42236 42245 42263 42272 42266 42207 42160 42091 42060 42028 42029 42128 42166 42167 42209 42214 42235 42255 42262 42270 42252 42201 42135 42091 42064 42067 42112 42114 42103 42080 42078 42100 42112 42125 42104 42074 42017 41956 41923 41937 41954 41981 41996 42034 42101 42155 42176 42198 42205 42240 42193 42180 42179 42204 42215 42221 42214 42218 42245 42298 42338 42405 42478 42544 42611 42601 42548 42538 42524 42524 42517 42526 42539 42570 42584 42593 42630 42641 42653 42659 42651 42568 42526 42516 42530 42546 42562 42575 42593 42600 42606 42624 42656 42658 42680 42648 42604 42553 42536 42529 42532 42513 42503 42515 42532 42530 42560 42595 42620 42644 42638 42587 42550 42500 42488 42500 42542 42576 42569 42556 42559 42570 42602 42626 42661 42669 42628 42569 42515 42463 42431 42419 42383 42385 42362 42357 42368 42370 42404 42428 42437 42419 42347 42271 42212 42168 42123 42115 42076 42057 42046 42058 42059 42066 42107 42102 42101 42051 41998 41956 41936 41925 41918 41897 41907 41869 41869 41887 41901 41922 41935 41977 41980 41922 41851 41808 41786 41808 41854 41865 41890 41924 41960 42011 42004 42037 42104 42124 42094 42043 41973 41930 41922 41941 41993 42076 42164 42244 42350 42436 42522 42620 42695 42752 42736 42714 42724 42797 42861 42927 42979 43061 43118 43150 43191 43225 43297 43359 43418 43442 43438 43418 43409 43401 43413 43367 43315 43287 43277 43251 43259 43241 43241 43249 43189 43153 43140 43132 43133 43174 43195 43234 43288 43381 43460 43494 43517 43499 43397 43274 43140 43002 42874 42673 42418 42333 42227 42110 42040 42028 41991 41969 41921 41855 41751 41506 41303 41148 41104 41047 41016 41012 41079 41213 41368 41488 41572 41686 41773 41768 41686 41537 41358 41247 41155 41112 41154 41306 41447 41516 41577 41728 41842 41880 41846 41764 41720 41758 41791 41654 41546 41488 41476 41490 41524 41522 41529 41532 41572 41531 41610 41674 41710 41761 41858 41885 41866 41867 41919 41936 41966 42046 42126 42170 42204 42241 42263 42280 42307 42350 42390 42446 42527 42620 42720 42824 42891 42901 42896 42902 42896 42918 42966 43023 43090 43095 43108 43087 43070 43084 43079 43049 43026 43004 42983 42982 42959 42965 42965 42947 42939 42951 42941 42940 42951 42931 42881 42840 42831 42839 42866 42913 42940 42974 43014 43045 43089 43100 43110 43119 43047 43003 42981 42980 42945 42941 42946 43014 43166 43372 43446 43426 43345 43325 43308 43307 43304 43347 43416 43460 43510 43561 43601 43640 43633 43620 43614 43587 43594 43595 43575 43577 43524 43427 43343 43241 43168 43069 42900 42701 42517 42361 42270 42223 42177 42117 42048 42020 41993 41920 41866 41735 41614 41495 41410 41373 41328 41287 41249 41253 41204 41192 41193 41215 41242 41221 41144 41087 41053 41048 41039 41046 41055 41099 41123 41183 41241 41306 41343 41362 41363 41365 41393 41426 41472 41509 41539 41587 41605 41639 41680 41737 41733 41739 41745 41782 41790 41835 41861 41909 41950 42012 42066 42096 42137 42145 42124 42124 42197 42269 42343 42459 42469 42515 42564 42545 42473 42419 42420 42477 42533 42606 42613 42607 42648 42703 42771 42835 42917 42890 42768 42758 42700 42647 42633 42588 42571 42562 42558 42526 42525 42470 42438 42352 42293 42257 42239 42247 42262 42309 42310 42341 42399 42381 42415 42394 42401 42384 42405 42463 42480 42474 42433 42444 42468 42483 42441 42377 42308 42256 42240 42230 42248 42238 42233 42223 42198 42124 42042 41899 41815 41773 41807 41873 41935 41931 41931 41954 41931 41945 41942 41921 41884 41883 41886 41909 41912 41943 41937 41960 41951 41947 41978 41996 41961 41921 41902 41870 41789 41756 41697 41680 41625 41556 41435 41336 41222 41148 41118 41090 41068 41051 40996 40952 40866 40776 40673 40631 40626 40627 40628 40622 40590 40605 40624 40496 40330 40232 40194 40197 40196 40199 40213 40248 40306 40306 40311 40198 40041 39955 39913 39891 39912 39883 39876 39962 40115 40311 40640 40987 41339 41553 41652 41624 41591 41608 41615 41577 41503 41546 41551 41595 41497 41353 41322 41375 41341 41215 41171 41195 41222 41144 41116 41092 41090 41001 40965 40925 40936 40872 40896 40850 40750 40680 40646 40765 40824 40848 40805 40758 40733 40666 40565 40516 40647 40631 40444 40372 40361 40329 40240 40164 40097 39983 39880 39843 39771 39701 39659 39680 39690 39650 39654 39651 39596 39512 39409 39282 39195 39157 39164 39176 39201 39211 39232 39219 39124 38990 38898 38882 38856 38873 38865 38881 38926 38909 38813 38711 38715 38773 38891 38992 39131 39268 39435 39496 39406 39296 39194 39190 39208 39239 39292 39371 39426 39414 39393 39376 39290 39218 39131 39066 39029 39078 39054 38969 38915 38841 38769 38667 38547 38469 38451 38456 38419 38372 38319 38296 38306 38317 38247 38170 38165 38135 38046 38008 37972 37896 37857 37843 37868 37822 37759 37625 37563 37528 37508 37493 37521 37604 37669 37891 37968 37792 37610 37503 37384 37339 37301 37290 37279 37229 37118 37041 36926 36837 36780 36763 36775 36831 36946 37015 36983 36925 41505 45993 45868 45749 45676 45658 45641 45569 45483 45444 45433 45444 45557 45635 45716 45901 46121 46107 46011 45945 45861 45811 45792 45791 45810 45736 45575 45535 45526 45579 45616 45619 45675 45767 45865 45852 45774 45678 45561 45473 45428 45438 45480 45445 45369 45371 45369 45397 45362 45327 46912 48501 48510 48419 48380 48347 48300 48261 48222 48206 48143 48106 48132 48256 48386 48482 48528 48549 48611 48721 48678 48511 48366 48269 48209 48190 48138 48143 48194 48170 48135 48126 48090 48066 48039 48073 48114 48313 48432 48350 48283 48255 48232 48224 48158 48130 48243 48355 48449 48504 48636 48641 48673 48713 48787 48889 48934 48821 48666 48601 48511 48430 48407 48439 48540 48525 48476 48472 48536 48649 48584 48571 48727 48890 48890 48800 48709 48595 48483 48378 48308 48341 48393 48368 48366 48404 48456 48567 48535 48523 48553 48566 48557 48461 48410 48363 48294 48228 48202 48196 48186 48113 48156 48169 48203 48356 48469 48652 48848 48903 48793 48594 48441 48299 48196 48136 48127 48184 48165 48096 48082 48084 48106 48061 48006 48015 48156 48229 48172 48083 48025 47976 47894 47742 47666 47672 47626 47590 47629 47703 47781 47776 47808 47962 48072 48010 47843 47754 47716 47651 47615 47554 47602 47660 47629 47544 47544 47596 47748 47776 47850 48005 48145 48164 48064 47985 47850 47738 47647 47606 47631 47714 47677 47769 47989 48216 48308 48255 48207 48404 48567 48505 48361 48278 48149 48092 48028 47974 47918 47863 47854 47912 48025 48071 48102 48085 48147 48294 48318 48187 48076 47985 47912 47845 47785 47770 47807 47803 47735 47679 47650 47716 47766 47827 47950 48044 48131 48101 47989 47893 47766 47674 47590 47590 47623 47660 47606 47604 47619 47670 47644 47584 47647 47822 47956 47897 47777 47739 47667 47571 47434 47353 47349 47362 47312 47303 47315 47312 47351 47361 47408 47433 47537 47528 47426 47355 47303 47219 47168 47122 47107 47060 46968 46895 46932 47008 47075 47039 47068 47289 47485 47476 47347 47259 47181 47137 47094 47083 47101 47144 47073 47069 47049 47088 47065 47020 47231 47585 47776 47746 47608 47507 47425 47322 47223 47242 47281 47254 47233 47288 47374 47435 47390 47462 47681 47736 47662 47536 47462 47400 47360 47306 47307 47364 47348 47250 47227 47256 47343 47317 47337 47446 47649 47719 47598 47499 47421 47343 47284 47211 47209 47272 47265 47227 47207 47219 47162 47093 47080 47229 47407 47417 47314 47268 47234 47160 47044 46938 46907 46896 46900 46831 46879 47077 47257 47305 47343 47362 47408 47324 47151 47113 47090 47033 46967 46947 47000 47048 46884 46786 46895 47146 47269 47222 47287 47476 47561 47520 47473 47456 47360 47281 47224 47236 47279 47231 47183 47192 47312 47395 47415 47417 47593 47668 47579 47502 47490 47461 47408 47353 47372 47388 47384 47261 47200 47210 47284 47325 47302 47377 47579 47671 47603 47443 47339 47304 47276 47235 47251 47336 47316 47228 47219 47251 47249 47240 47229 47326 47546 47702 47718 47594 47569 47565 47531 47422 47379 47406 47451 47368 47322 47334 47371 47401 47433 47598 47818 47901 47808 47669 47660 47608 47535 47491 47453 47515 47562 47468 47389 47383 47408 47391 47378 47435 47601 47737 47711 47565 47480 47374 47311 47244 47224 47260 47298 47298 47231 47221 47169 47112 47083 47155 47256 47349 47370 47347 47327 47293 47227 47111 47045 47041 47037 47004 46987 46999 47047 47103 47144 47132 47107 47077 47073 47064 47166 47217 47162 47127 47092 47095 47084 46958 46889 46934 46999 47093 47210 47339 47530 47585 47761 48123 48484 48771 49143 49481 50036 50501 50632 50787 50921 51073 51088 51101 51292 51469 51608 51670 51745 51680 51617 51582 51481 51400 51329 51271 51236 51233 51156 51054 51016 50943 50900 50847 50761 50723 50732 50719 50568 50424 50368 50269 50178 50091 50012 49973 49941 49871 49846 49816 49739 49669 49619 49557 49529 49568 49492 49313 49213 49141 49078 49013 48929 48912 48951 48917 48750 48652 48594 48556 48573 48556 48554 48568 48602 48592 48513 48319 48139 48018 47982 47918 47954 47970 47977 47914 47899 47867 47819 47755 47725 47805 47934 48057 48081 48003 47897 47780 47705 47614 47523 47482 47426 47385 47377 47409 47407 47392 47343 47391 47445 47375 47252 47151 47076 47024 46988 46952 46965 47003 47010 47002 46888 46790 46789 47257 47816 48002 48163 48575 48717 49482 50071 50628 51137 51673 52081 52446 52760 53071 53298 53495 53693 53897 54092 54267 54405 54541 54622 54723 54833 54945 55045 55134 55211 55330 55443 55550 55658 55750 55833 55915 56007 56054 55911 55923 56078 56187 56275 56347 56431 56493 56557 56603 56682 56713 56762 56794 56778 56733 56729 56700 56675 56643 56600 56517 56427 56317 56224 56125 55999 55761 55525 55261 55014 54851 54705 54569 54458 54359 54290 54205 54008 53793 53563 53389 53141 52991 52860 52736 52693 52651 52628 52476 52259 52136 52096 52072 52094 52172 52317 52499 52646 52684 52619 52475 52248 52040 51896 51812 48604 45395 45408 45411 45442 45495 45545 45503 45448 45453 45499 45529 45510 45433 45384 45303 45294 45260 45318 45344 45404 45406 45440 45454 45481 45514 45485 45521 45572 45595 45552 45357 45206 45058 44959 44920 44922 44989 45109 45202 45285 45344 45412 45376 45309 45305 45306 45332 45260 45132 46693 48184 48085 48018 47990 47948 47957 47991 48189 48449 48728 48977 49155 49312 49439 49459 49349 49180 49065 48936 48860 48785 48770 48735 48673 48643 48554 48500 48414 48294 48187 48138 48147 48147 48012 47863 47756 47652 47544 47454 47302 47217 47128 46996 46955 46973 46950 46945 46951 47004 47063 46997 46745 46514 46366 46217 46137 46063 46023 46035 46048 46023 46023 45977 45940 45895 45859 45896 46006 46055 45966 45844 45809 45724 45626 45554 45456 45430 45459 45445 45465 45560 45554 45522 45539 45620 45709 45737 45665 45559 45503 45454 45428 45402 45397 45419 45469 45472 45497 45513 45551 45536 45528 45640 45829 45897 45817 45712 45664 45627 45583 45540 45566 45631 45680 45678 45700 45786 45817 45831 45926 46015 46078 46038 45907 45840 45743 45667 45620 45610 45670 45800 45870 45849 45817 45770 45767 45746 45741 45824 45916 45868 45748 45707 45594 45481 45351 45293 45266 45312 45337 45315 45322 45341 45359 45358 45389 45481 45538 45453 45305 45248 45177 45110 45037 45010 45034 45064 44986 44899 44864 44837 44796 44762 44781 44873 44868 44813 44733 44676 44586 44472 44354 44316 44322 44341 44325 44367 44415 44545 44618 44630 44697 44717 44670 44573 44474 44452 44384 44338 44304 44283 44347 44374 44321 44305 44313 44355 44369 44352 44401 44481 44467 44393 44328 44308 44230 44143 44079 44081 44127 44158 44144 44174 44203 44239 44234 44218 44320 44465 44504 44436 44373 44316 44288 44253 44194 44183 44224 44246 44208 44189 44176 44185 44194 44213 44308 44445 44543 44546 44508 44444 44343 44241 44176 44142 44165 44173 44169 44169 44182 44242 44305 44264 44294 44331 44407 44413 44357 44322 44259 44211 44164 44136 44173 44216 44179 44121 44132 44126 44150 44163 44169 44261 44411 44502 44500 44406 44307 44220 44163 44126 44143 44197 44216 44204 44194 44186 44214 44246 44257 44299 44454 44560 44588 44516 44479 44416 44373 44306 44314 44363 44367 44323 44318 44316 44358 44370 44351 44407 44573 44725 44815 44740 44659 44643 44569 44515 44515 44559 44601 44572 44577 44586 44615 44626 44590 44628 44825 45017 45087 45030 44946 44881 44849 44784 44790 44810 44807 44772 44771 44753 44783 44748 44753 44826 44973 45109 45149 45027 44953 44896 44817 44750 44757 44796 44806 44747 44733 44718 44717 44636 44619 44725 44867 44920 44864 44756 44705 44655 44625 44586 44598 44594 44544 44451 44420 44436 44450 44410 44413 44507 44695 44782 44732 44598 44497 44444 44420 44398 44434 44473 44481 44439 44453 44512 44547 44504 44517 44654 44912 44989 44911 44850 44816 44787 44761 44702 44692 44702 44713 44650 44612 44607 44630 44664 44647 44705 44861 45000 45007 44888 44809 44761 44717 44683 44698 44720 44697 44634 44681 44742 44796 44772 44779 44871 45033 45142 45089 45053 45039 44982 44934 44913 44914 44933 44912 44840 44821 44795 44814 44780 44780 44801 44928 44989 44980 44886 44811 44764 44717 44688 44690 44701 44695 44674 44629 44622 44570 44485 44451 44534 44759 44884 44841 44738 44727 44708 44676 44641 44577 44556 44512 44427 44439 44463 44470 44435 44421 44585 44817 44918 44876 44791 44727 44673 44662 44625 44613 44642 44640 44565 44521 44525 44485 44452 44415 44468 44655 44751 44756 44720 44725 44703 44665 44640 44572 44592 44627 44547 44493 44492 44464 44466 44467 44520 44618 44660 44656 44625 44607 44584 44572 44548 44559 44604 44613 44555 44500 44480 44483 44458 44422 44420 44499 44582 44647 44673 44766 44819 44748 44694 44633 44662 44682 44640 44618 44616 44619 44609 44607 44649 44786 44847 44834 44837 44786 44741 44770 44792 44811 44865 44817 44716 44684 44659 44654 44663 44674 44772 44939 45015 44953 44846 44764 44673 44600 44589 44633 44833 45092 45449 46145 46908 47696 48344 48713 48837 48809 49031 49392 49771 50129 50459 50834 51138 51392 51585 51838 51993 52097 52146 52123 52092 52093 52077 52013 51988 51996 51965 51923 51898 51980 52134 52315 52395 52504 52552 52511 52502 52477 52427 52310 52303 52278 52170 52070 51985 51866 51750 51671 51580 51490 51346 51159 50972 50788 50631 50545 50493 50459 50482 50491 50471 50454 50321 50173 50006 49847 49711 49589 49499 49454 49429 49470 49491 49424 49362 49343 49345 49288 49266 49262 49256 49302 49296 49240 49177 49058 48914 48802 48745 48751 48818 48834 48877 48912 48981 49007 49030 49045 48999 48996 49006 48940 48897 48820 48775 48695 48677 48717 48712 48698 48652 48647 48743 48814 48847 48898 48928 48938 48972 48936 48844 48712 48669 48579 48504 48500 48527 48543 48512 48547 48589 48646 48642 48614 48626 48608 48622 48663 48601 48519 48417 48371 48308 48248 48203 48162 48070 48052 48030 48027 48042 48002 48027 48031 48004 47948 47838 47700 47559 47469 47384 47301 47299 47302 47266 47237 47175 47099 47085 47059 47042 47000 47015 46975 46937 46867 46767 46646 46467 46312 46252 46218 46191 46144 46145 46135 46157 46193 46173 46130 46047 46003 45952 45885 45827 45752 45672 45615 45546 45570 45553 45461 45390 45370 45365 45380 45373 45350 45362 45367 45400 45384 45279 45172 45086 45006 44958 44944 44960 44953 44911 44901 44922 44910 44878 44843 44826 44838 44890 44882 44878 44824 44756 44730 44703 44649 44604 44585 44545 44538 44542 44573 44592 44607 44605 44641 44691 44721 44682 44667 44637 44582 44542 44485 44494 44527 44527 44519 44487 44471 44462 44504 44519 44584 44620 44697 44756 44732 44689 44626 44555 44477 44459 44449 44475 44454 44422 44421 44442 44493 44494 44490 44447 44449 44450 44476 44466 44454 44406 44369 44359 44409 44483 44433 44345 44322 44308 44325 44304 44307 44316 44384 44421 44412 44384 44304 44234 44175 44157 44152 44188 44210 44186 44184 44192 44179 44174 44136 44170 44287 44363 44358 44331 44292 44247 44229 44197 44144 44129 44138 44127 44083 44066 44068 44086 44101 44160 44212 44241 44222 44216 44221 44197 44133 44118 44097 44101 44127 44129 44091 44039 44015 44022 44027 44065 44150 44301 44400 44466 44468 44439 44360 44263 44201 44162 44201 44238 44205 44183 44191 44197 44213 44260 44312 44392 44453 44483 44466 44446 44405 44402 44370 44355 44373 44384 44311 44221 44203 44203 44268 44286 44353 44522 44618 44700 44710 44583 44530 44443 44401 44375 44404 44419 44423 44375 44343 44392 44395 44373 44456 44600 44781 44878 44918 44879 44869 44805 44753 44713 44688 44677 44694 44705 44651 44673 44711 44766 44842 44866 44861 44844 44824 44811 44788 44749 44702 44678 44689 44698 44734 44706 44660 44686 44794 44935 44999 45084 45203 45257 45282 45224 45173 45123 45042 44957 44915 44897 44936 44964 44923 44899 44928 44944 44981 45049 45079 45146 45136 45067 45042 45012 44946 44919 44860 44865 44887 44881 44841 44823 44808 44826 44855 44878 44950 45048 45162 45202 45220 45147 45052 44979 44931 44906 44928 44942 44931 44918 44952 44988 45058 45045 45036 45041 45082 45111 45092 45095 45060 45014 44959 44937 44955 44963 44942 44890 44890 44936 45022 45082 45113 45152 45191 45251 45248 45188 45089 44981 44950 44909 44888 44925 44941 45024 45093 45172 45353 45489 45561 45659 45773 45877 45944 45882 45787 45723 45647 45575 45557 45526 45537 45527 45472 45428 45406 45364 45355 45335 45322 45379 45585 45787 45919 46049 45998 45935 45883 45850 45798 45808 45846 45827 45778 45789 45761 45757 45722 45689 45683 45711 45711 45736 45734 45695 45670 45637 45603 45581 45555 45522 45476 45412 45409 45443 45453 45457 45449 45469 45552 45551 45506 45414 45346 45299 45267 45250 45258 45285 45249 45213 45225 45267 45183 45143 45128 45183 45219 45277 45309 45301 45277 45241 45209 45188 45133 45070 45018 44942 44902 45003 45180 45286 45320 45354 45403 45430 45455 45467 45510 45474 45423 45371 45328 45301 45294 45233 45173 45178 45218 45217 45277 45380 45491 45564 45597 45514 45438 45394 45359 45226 45117 45089 45071 45020 44983 45006 45065 45118 45159 45241 45331 45382 45376 45339 45247 45179 45100 45037 45027 45039 45038 45031 45006 44935 44835 44728 44761 45017 45371 45738 46281 46532 47404 48081 48808 49491 50106 50604 51017 51449 51794 52110 52413 52714 53003 53248 53476 53665 53797 53885 54006 54167 54342 54497 54651 54807 54966 55104 55199 55275 55360 55426 55381 55444 55589 55676 55725 55757 55802 55865 55929 55964 56035 56081 56100 56141 56169 56170 56146 56108 56031 55942 55880 55802 55689 55568 55482 55348 55244 55084 54915 54783 54620 54372 54081 53835 53648 53513 53399 53269 53142 53061 52984 52857 52620 52355 52135 51923 51756 51626 51552 51486 51391 51369 51341 51252 51096 50958 50854 50821 50847 50880 50879 50842 50825 50802 50739 50611 50462 50414 50376 50330 50333 50340 50360 50385 50396 50434 48821 47119 47104 47074 47015 46981 46969 46957 46962 46926 46915 46953 46955 46867 46829 46800 46803 46878 46947 46989 47022 47053 47051 47020 46929 46866 46797 46768 46758 46751 46778 46775 46774 46809 46866 46938 46938 46937 46935 46954 46965 46952 46905 46851 46824 46808 46787 46804 46812 46771 46777 46781 46805 46879 46944 46979 47021 47041 47049 47063 47037 46933 46854 46798 46766 46758 46729 46753 46728 46742 46784 46827 46843 46782 46751 46743 46681 46632 46538 46487 46418 46373 46307 46253 46184 46108 46042 46038 46047 46119 46206 46280 46310 46348 46284 46173 46064 45968 45876 45796 45782 45756 45742 45767 45729 45744 45771 45819 45863 45910 45972 46120 46272 46243 46213 46197 46137 46039 45952 45893 45868 45868 45808 45706 45620 45590 45534 45546 45580 45571 45520 45506 45506 45534 45587 45530 45549 45577 45593 45621 45702 45622 45494 45388 45337 45315 45323 45369 45556 45741 45930 46079 46169 46249 46210 46121 46009 45915 45846 45799 45781 45757 45747 45749 45782 45740 45684 45646 45630 45666 45723 45820 45959 46071 46146 46209 46239 46133 46001 45929 45871 45829 45782 45748 45742 45730 45712 45620 45517 45421 45363 45323 45328 45333 45344 45366 45431 45490 45484 45411 45349 45253 45203 45146 45099 45108 45108 45022 44982 44980 44994 45001 44988 45024 45138 45325 45443 45555 45569 45533 45488 45436 45386 45304 45227 45205 45178 45173 45145 45110 45094 45107 45129 45167 45202 45337 45470 45501 45484 45427 45355 45289 45257 45242 45212 45194 45192 45149 45097 45060 45059 45019 45038 45019 44985 44960 44952 44965 44971 44959 44959 44968 44933 44887 44849 44801 44764 44736 44704 44699 44709 44714 44678 44653 44665 44674 44638 44633 44621 44617 44629 44677 44732 44771 44696 44613 44534 44468 44415 44372 44335 44328 44340 44384 44380 44368 44326 44268 44137 44039 43994 43922 43870 43816 43787 43785 43875 44093 44413 44666 44785 44831 44820 44721 44675 44608 44571 44538 44518 44515 44512 44455 44387 44326 44275 44329 44415 44473 44464 44467 44499 44626 44688 44726 44728 44692 44589 44510 44460 44447 44389 44328 44310 44325 44389 44482 44573 44627 44700 44682 44769 44770 44690 44627 44578 44527 44454 44442 44453 44450 44361 44259 44192 44188 44262 44379 44485 44571 44638 44696 44739 44736 44697 44609 44520 44473 44366 44330 44282 44229 44165 44149 44170 44173 44241 44270 44206 44109 44050 43995 43984 43950 43898 43854 43806 43796 43801 43785 43682 43581 43591 43651 43710 43715 43767 43858 43958 44041 44138 44150 44142 44090 43994 43965 43950 43956 43886 43830 43813 43876 43943 44048 44140 44164 44160 44167 44105 44050 44030 43992 43929 43882 43868 43886 43885 43837 43770 43748 43779 43866 43965 44027 44049 44101 44114 44120 44134 44110 44034 43988 43978 43956 43980 43983 43954 43987 44018 44066 44070 44093 44072 44060 44115 44189 44304 44453 44437 44408 44362 44351 44358 44354 44267 44169 44126 44131 44138 44141 44154 44136 44154 44126 44134 44119 44097 44036 43969 43961 43974 43999 43937 43871 43872 43917 44008 44083 44109 44094 44076 44038 43991 43949 43941 43878 43842 43828 43830 43854 43853 43757 43684 43713 43811 43934 44047 44156 44179 44199 44171 44140 44140 44077 43991 43942 43913 43918 43923 43905 43852 43832 43867 43940 44043 44054 44026 44055 44087 44075 44070 44090 44068 44032 44028 43990 43977 43944 43865 43829 43833 43859 43899 43931 43988 44024 44074 44067 44054 44043 44013 43961 43932 43903 43890 43917 43936 43910 43889 43898 43944 43957 43913 43886 43919 43962 43955 44018 44138 44176 44166 44167 44162 44153 44094 43971 43912 44007 44199 44359 44448 44544 44620 44753 44828 44787 44624 44542 44470 44416 44362 44341 44361 44346 44321 44296 44292 44277 44233 44205 44235 44331 44447 44505 44497 44492 44467 44428 44390 44350 44293 44269 44241 44184 44176 44186 44257 44383 44453 45129 46976 47886 48129 48432 48846 48959 49114 49169 49055 48848 48621 48509 48431 48453 48482 48469 48454 48453 48515 48667 48913 49152 49337 49474 49654 49892 50243 50611 51033 51434 51684 51883 52091 52226 52241 52293 52321 52341 52301 52306 52181 52087 51994 51948 51896 51872 51821 51816 51790 51663 51445 51276 51192 51131 51130 51105 51087 51060 51012 50986 50946 50797 50611 50491 50397 50326 50266 50253 50205 50115 50133 50157 50136 50020 49931 49880 49833 49816 49812 49780 49753 49736 49705 49669 49537 49414 49351 49262 49231 49226 49252 49323 49388 49478 49551 49522 49447 49412 49325 49265 49243 49199 49184 49182 49203 49224 49197 49126 49037 49016 49037 49065 49106 49200 49227 49293 49351 49364 49315 49260 49161 49122 49142 49141 49113 49060 49044 49042 49082 49154 49153 49162 49153 49173 49229 49242 49210 49189 49162 49132 49128 49115 49019 48894 48845 48810 48837 48922 48967 49016 49050 49044 49029 49016 48939 48872 48800 48777 48715 48696 48703 48624 48529 48514 48459 48456 48462 48484 48490 48473 48428 48418 48428 48386 48336 48299 48190 48084 48040 47974 47879 47832 47861 47919 47991 48090 48123 48100 48024 47983 48020 47983 47975 47963 47949 47934 47927 47996 47984 47960 47919 47909 47965 48038 48070 48082 48068 48044 48045 48041 48019 47974 47940 47907 47898 47952 48009 47995 47980 47982 48016 48066 48137 48189 48212 48179 48154 48288 48338 48347 48343 48336 48300 48301 48314 48305 48286 48273 48309 48377 48449 48501 48539 48546 48523 48523 48519 48507 48441 48401 48340 48305 48295 48271 48195 48138 48117 48127 48189 48236 48237 48170 48119 48077 48067 48029 47954 47888 47840 47798 47758 47751 47673 47497 47414 47380 47394 47437 47443 47476 47474 47457 47471 47465 47404 47287 47187 47096 47061 47038 47025 46972 46954 46959 47006 47013 46951 46927 46860 46825 46848 46874 46870 46836 46832 46798 46776 46777 46759 46644 46580 46567 46609 46700 46773 46871 46982 47057 47040 47142 47143 47048 47038 47018 46980 46965 46999 47028 47006 47050 47110 47178 47247 47286 47375 47490 47565 47578 47604 47572 47522 47493 47452 47436 47407 47403 47350 47305 47262 47275 47346 47399 47469 47535 47596 47578 47534 47516 47479 47416 47357 47353 47289 47251 47234 47162 47073 47025 47003 47003 47026 47096 47212 47260 47256 47240 47316 47278 47238 47228 47186 47054 47000 46965 46892 46782 46706 46694 46762 46926 47062 47194 47277 47233 47177 47186 47128 47095 47047 47007 46956 46932 46919 46933 46771 46626 46572 46648 46761 46855 46933 46986 47021 47013 47020 47028 46954 46859 46763 46696 46677 46717 46683 46576 46553 46588 46713 46851 46968 47052 47103 47089 47089 47118 47094 47058 47044 47044 47007 47015 47022 46920 46784 46740 46771 46848 46968 47115 47204 47280 47310 47327 47374 47320 47233 47180 47126 47074 47068 47104 47051 46988 46966 46998 47068 47142 47206 47330 47469 47528 47545 47575 47573 47525 47492 47453 47427 47414 47398 47281 47178 47138 47142 47186 47248 47355 47475 47561 47627 47649 47650 47552 47481 47438 47407 47351 47309 47344 47312 47230 47190 47205 47205 47174 47262 47418 47560 47671 47692 47761 47763 47751 47719 47684 47651 47547 47470 47434 47351 47268 47228 47232 47235 47251 47316 47419 47515 47562 47496 47466 47427 47354 47321 47295 47259 47253 47268 47238 47169 47095 47002 47001 47041 47120 47260 47448 47528 47572 47645 47645 47611 47607 47563 47454 47405 47369 47288 47230 47189 47164 47268 47406 47486 47572 47702 47650 47537 47445 47405 47356 47357 47375 47388 47365 47378 47387 47377 47249 47127 47092 47200 47337 47413 47361 47415 47453 47457 47496 47577 47637 47584 47484 47390 47333 47319 47213 47106 47102 47141 47280 47428 47590 47738 47759 47664 47601 47592 47545 47487 47459 47426 47395 47387 47366 47267 47136 47059 47026 47091 47233 47429 47639 47775 47779 47880 47916 47847 47813 47759 47599 47521 47462 47365 47238 47181 47128 47143 47236 47376 47576 47761 47833 47771 47798 47784 47682 47643 47670 47595 47586 47609 47568 47480 47401 47274 47174 47192 47321 47493 47717 47865 47906 48013 48035 47981 47966 47944 47853 47759 47675 47646 47595 47557 47488 47503 47605 47826 48045 48182 48181 48101 48025 47979 47903 47864 47870 47838 47811 47816 47823 47796 47754 47698 47707 47811 47924 48047 48210 48271 48250 48208 48219 48170 48158 48112 48035 47962 47914 47854 47764 47657 47646 47708 47883 48130 48374 48612 48652 48526 48470 48434 48355 48325 48278 48240 48193 48151 48092 48000 47952 47832 47791 47767 47818 47945 48062 48120 48293 48411 48414 48407 48385 48327 48207 48018 47888 47795 47800 47856 48062 48341 48698 48967 49216 49493 49759 50021 50262 50366 50376 50316 50221 50163 50124 50084 50051 50006 49936 49777 49551 49382 49285 49288 49289 49351 49385 49436 49492 49502 49502 49469 49452 49373 49370 49371 49365 49386 49387 49235 49196 49174 49295 49469 49599 49720 49843 49825 49777 49734 49779 49744 49657 49607 49594 49526 49436 49336 49266 49204 49207 49219 49316 49462 49580 49669 49645 49557 49482 49520 49492 49414 49373 49403 49349 49321 49309 49317 49259 49200 49089 49079 49164 49263 49368 49391 49321 49310 49417 49402 49353 49293 49187 49074 49054 49039 49028 48998 48999 48942 48974 49096 49201 49322 49300 49166 49196 49283 49286 49205 49162 49159 49101 49138 49184 49198 49082 49000 49066 49172 49229 49524 49729 50070 50778 51304 51721 52499 52700 52623 52531 52478 52471 52364 52239 52160 52110 52072 52089 52268 52352 52268 52101 51917 51782 51740 51645 51569 51550 51531 51449 51456 51460 51302 51100 50952 50857 50870 50947 51018 51086 51049 51040 51128 51146 51081 50911 50780 50696 50608 50633 50597 50465 50423 50377 50354 50440 50581 50600 50469 50367 50324 50346 50370 50309 50241 50214 50161 50158 50195 50043 49800 49683 49593 49605 49700 49769 49810 49812 49754 49799 49847 49761 49615 49467 49360 49336 49364 49346 49216 49136 49093 49077 49138 49135 49138 49123 49116 49203 49316 49361 49346 49282 49297 49252 49221 49162 49055 48893 48811 48757 48759 48797 48897 48985 48981 48998 48973 48969 48928 48887 48895 48867 48817 48840 48862 48754 48683 48663 48585 48539 48500 48545 48625 48700 48788 48898 48980 48985 48979 48938 48827 48752 48765 48700 48603 48543 48509 48499 48547 48593 48654 48666 48678 48648 48717 48718 48681 48654 48612 48573 48574 48593 48536 48342 48202 48123 48107 48101 48153 48205 48265 48327 48460 48571 48623 48575 48457 48377 48300 48313 48300 48164 48067 47995 47962 47998 48048 48021 47954 47965 48008 48068 48099 48080 48038 48001 47967 47977 47999 47829 47626 47549 47538 47512 47555 47627 47680 47717 47784 47894 47962 47940 47837 47742 47675 47653 47642 47606 47509 47465 47467 47477 47519 47515 47507 47516 47531 47538 47526 47522 47493 47466 47442 47417 47452 47439 47317 47247 47199 47157 47191 47269 47403 47519 47602 47715 47754 47735 47662 47578 47549 47500 47543 47551 47511 47467 47461 47425 47437 47401 47367 47354 47351 47383 47485 47549 47575 47551 47551 47567 47576 47584 47508 47377 47369 47410 47432 47517 47608 47725 47816 47823 47847 47841 47771 47657 47587 47551 47529 47582 47593 47458 47369 47346 47357 47384 47350 47341 47366 47424 47498 47560 47586 47515 47452 47409 47368 47354 47322 47212 47050 46964 46933 46942 46951 47006 47101 47204 47343 47457 47485 47415 47334 47292 47266 47262 47310 47374 47299 47185 47145 47139 47133 47103 47122 47219 47392 47554 47623 47657 47700 47738 47730 47696 47652 47571 47456 47317 47253 47221 47206 47209 47238 47329 47396 47514 47597 47589 47538 47510 47485 47441 47396 47417 47457 47406 47335 47324 47309 47274 47242 47256 47280 47358 47424 47486 47486 47533 47489 47487 47430 47355 47310 47244 47113 47055 47046 47018 47037 47044 47131 47230 47328 47282 47268 47237 47184 47118 47107 47072 47082 47159 47160 47048 46975 46892 46837 46874 47010 47153 47252 47336 47349 47326 47285 47311 47292 47188 47055 47010 46956 46859 46819 46824 46770 46751 46747 46861 46952 46997 46976 46930 46932 46961 46936 46864 46828 46816 46819 46729 46642 46644 46602 46538 46559 46594 46583 46640 46670 46680 46747 46817 46864 46781 46642 46561 46536 46515 46406 46435 46517 46616 46695 46755 46787 46815 46744 46661 46696 46737 46741 46690 46629 46634 46652 46634 46544 46528 46472 46447 46467 46507 46607 46709 46786 46848 46910 46950 46963 46942 46845 46794 46788 46787 46752 46725 46691 46678 46744 46797 46862 46936 46968 46941 46963 47016 47051 47045 47030 46984 47006 47066 47079 46984 46863 46810 46830 46858 46897 46994 47054 47113 47129 47169 47175 47133 47035 46999 46887 46850 46797 46693 46607 46584 46586 46622 46683 46727 46745 46802 46866 46900 46928 46931 46885 46821 46759 46719 46745 46681 46524 46444 46479 46487 46530 46595 46704 46781 46866 46918 46909 46938 46883 46820 46806 46762 46744 46709 46651 46543 46507 46557 46627 46740 46762 46784 46856 46948 46875 46911 47082 47353 47571 47686 47698 47705 47575 47290 46990 46843 46812 46843 47028 47267 47446 47523 47641 47720 47734 47687 47665 47636 47706 47817 47858 47800 47733 47732 47685 47583 47418 47293 47258 47308 47573 47951 48362 48604 48775 48829 48823 48797 48715 48583 48474 48454 48411 48408 48405 48378 48207 48085 48078 48105 48191 48302 48518 48679 48758 48829 48794 48825 48799 48717 48651 48643 48595 48515 48447 48352 48153 48032 48018 47993 48025 48169 48456 48686 48786 48674 48525 48465 48423 48345 48264 48250 48237 48270 48240 48100 47864 47721 47641 47688 47898 48165 48361 48477 48550 48475 48428 48393 48240 48008 47908 47856 47875 47900 47953 47959 47922 47899 47848 47796 47708 47643 47580 47768 48091 48445 48716 48960 49202 49434 49704 49951 49984 50061 50154 50255 50325 50443 50603 50866 51107 51277 51582 52234 52645 53383 54016 54139 54151 54200 54243 54286 54283 54306 54227 54209 54181 54240 54405 54599 54849 55049 55123 55098 55078 55117 55181 55255 55131 55230 55573 55830 56027 56194 56323 56438 56568 56671 56772 56853 56920 56992 57035 57088 57153 57202 57249 57286 57300 57315 57321 57299 57213 57080 56978 56814 56650 56472 56272 56130 56001 55846 55678 55490 55176 54876 54578 54295 54103 53940 53804 53674 53558 53410 53257 53064 52832 52627 52443 52289 52142 51999 51829 51706 51607 51554 51533 51406 47680 43911 43836 43820 43822 43779 43755 43760 43768 43811 43813 43725 43640 43556 43470 43443 43433 43433 43453 43543 43644 43718 43738 43740 43731 43727 43682 43677 43727 43745 43789 43819 43877 43946 43958 43871 43821 43768 43733 43749 43816 43869 43918 43954 44018 44093 44114 44079 44043 44057 45939 47760 47805 47857 47871 47848 47813 47811 47795 47735 47777 47824 47811 47821 47887 47959 47982 47977 48006 48070 48093 48088 48077 48063 48013 47992 47961 47902 47857 47851 47900 47961 48007 47972 47945 47908 47835 47787 47752 47734 47748 47776 47806 47855 47871 47848 47766 47662 47559 47486 47537 47580 47615 47602 47550 47566 47523 47434 47332 47222 47156 47162 47190 47237 47236 47152 46996 47009 47020 47013 47022 46951 46874 46844 46764 46657 46549 46482 46393 46356 46403 46417 46433 46453 46369 46281 46217 46134 46102 46091 46051 46036 46106 46232 46233 46157 46014 45847 45742 45655 45648 45664 45696 45692 45688 45713 45669 45574 45468 45333 45259 45251 45331 45393 45433 45459 45478 45596 45613 45664 45722 45697 45638 45589 45551 45567 45515 45422 45362 45349 45326 45354 45476 45564 45674 45749 45787 45874 45870 45840 45837 45860 45882 45890 45888 45884 45799 45631 45548 45465 45437 45421 45482 45555 45609 45637 45680 45731 45712 45642 45595 45600 45617 45612 45614 45618 45616 45558 45519 45470 45404 45304 45274 45295 45295 45323 45346 45363 45381 45365 45348 45376 45412 45384 45316 45281 45280 45223 45133 45062 44995 44977 44985 45014 45047 44970 44942 44955 44940 44902 44895 44883 44930 44915 44914 44927 44934 44886 44749 44666 44617 44546 44560 44621 44714 44783 44838 44920 45017 45002 44927 44880 44883 44914 44911 44938 44915 44933 44904 44895 44881 44852 44804 44761 44775 44770 44746 44720 44682 44645 44643 44627 44655 44713 44758 44752 44742 44744 44743 44698 44692 44647 44617 44639 44750 44888 45011 45080 45084 45069 45039 44968 44916 44882 44887 44863 44895 44973 45001 44963 44924 44894 44838 44814 44833 44891 44878 44859 44825 44761 44712 44626 44546 44527 44536 44574 44605 44640 44683 44697 44654 44650 44588 44570 44558 44629 44692 44712 44726 44732 44754 44698 44689 44669 44652 44639 44598 44554 44542 44500 44443 44427 44415 44361 44347 44410 44510 44606 44622 44640 44634 44600 44564 44547 44580 44624 44617 44606 44607 44624 44593 44528 44475 44415 44361 44383 44451 44535 44571 44602 44659 44693 44714 44706 44689 44708 44701 44656 44659 44671 44686 44606 44576 44534 44495 44496 44554 44608 44651 44690 44756 44772 44777 44762 44714 44745 44770 44751 44771 44763 44739 44691 44638 44618 44598 44595 44612 44720 44815 44845 44891 44976 44980 44946 44932 44923 44922 44922 44911 44924 44946 44922 44869 44857 44802 44710 44685 44707 44746 44768 44814 44857 44847 44850 44808 44784 44813 44858 44788 44758 44751 44720 44691 44645 44599 44575 44539 44635 44852 45073 45171 45215 45246 45247 45197 45215 45166 45127 45115 45053 45022 45035 45029 44933 44835 44777 44734 44735 44808 44940 45010 45083 45080 45089 45080 45047 44965 44922 44916 44921 44921 44867 44824 44795 44765 44736 44690 44638 44630 44670 44753 44802 44801 44777 44647 44561 44498 44473 44505 44540 44580 44562 44465 44474 44520 44537 44544 44511 44463 44480 44524 44605 44609 44526 44415 44251 44161 44117 44134 44194 44261 44360 44371 44398 44400 44370 44332 44270 44169 44109 44151 44274 44410 44479 44481 44470 44415 44363 44317 44295 44287 44285 44266 44279 44283 44274 44193 44176 44144 44094 44196 44389 44511 44507 44463 44466 44410 44357 44342 44340 44365 44372 44339 44354 44366 44289 44108 44010 43959 43943 44008 44217 44421 44552 44578 44616 44680 44683 44610 44560 44593 44587 44548 44510 44490 44431 44314 44248 44210 44175 44135 44145 44236 44314 44375 44441 44470 44467 44427 44424 44449 44466 44419 44336 44254 44207 44071 44008 43974 43923 43958 44131 44333 44464 44538 44599 44600 44560 44500 44465 44472 44486 44454 44435 44445 44453 44385 44348 44272 44192 44187 44233 44375 44505 44572 44637 44671 44696 44678 44634 44613 44584 44542 44519 44531 44536 44520 44499 44522 44489 44480 44519 44620 44669 44687 44714 44714 44705 44713 44648 44587 44609 44632 44625 44655 44660 44604 44574 44557 44532 44484 44453 44432 44398 44372 44354 44392 44443 44486 44520 44624 44667 44653 44607 44519 44384 44323 44235 44156 44101 44106 44058 44055 44134 44241 44327 44429 44537 44599 44570 44514 44515 44476 44480 44495 44490 44405 44363 44317 44253 44157 44061 44032 44003 44067 44246 44475 44626 44702 44755 44871 44984 44953 44910 44913 44933 44941 44933 44897 44840 44785 44646 44510 44451 44422 44387 44408 44452 44485 44503 44581 44763 44840 44826 44875 44912 44926 44938 44893 44830 44803 44779 44728 44662 44608 44575 44517 44554 44641 44723 44789 44949 45060 45050 45040 45053 45036 45003 44976 44887 44850 44862 44802 44702 44654 44611 44582 44590 44668 44752 44789 44831 44901 44881 44858 44811 44774 44773 44770 44732 44723 44721 44653 44507 44388 44318 44259 44241 44286 44384 44492 44594 44667 44667 44644 44628 44519 44440 44402 44351 44347 44344 44332 44257 44205 44164 44121 44052 44071 44151 44230 44287 44344 44335 44272 44202 44147 44131 44174 44198 44183 44185 44210 44201 44209 44195 44142 44121 44135 44190 44301 44392 44331 44176 44054 43941 43861 43842 43898 44004 44154 44290 44433 44543 44587 44599 44527 44500 44461 44436 44445 44518 44596 44598 44646 44682 44666 44692 44674 44637 44637 44669 44659 44669 44686 44663 44613 44581 44544 44499 44480 44489 44587 44677 44723 44807 44834 44814 44804 44794 44794 44821 44799 44759 44750 44745 44674 44643 44645 44601 44561 44610 44677 44765 44822 44903 44910 44855 44803 44742 44709 44688 44658 44638 44665 44717 44668 44600 44511 44440 44369 44369 44413 44450 44467 44478 44453 44429 44413 44370 44350 44321 44291 44283 44351 44386 44430 44480 44482 44452 44432 44437 44431 44374 44314 44250 44206 44127 44065 44050 44090 44151 44211 44225 44262 44288 44262 44251 44239 44222 44202 44261 44396 44582 44812 44920 44869 44791 44743 44705 44674 44668 44697 44683 44672 44692 44759 44729 44738 44713 44727 44671 44683 44739 44910 45098 45162 45140 45125 45049 44964 44893 44855 44870 44853 44880 44921 44965 45019 45059 45075 45023 45038 45025 44969 44935 44896 44880 44844 44816 44757 44667 44593 44509 44459 44574 44822 45264 45554 46109 46713 47224 47671 48065 48417 48742 49023 49290 49529 49743 49934 50080 50270 50460 50622 50757 50896 51004 51105 51192 51286 51381 51486 51568 51662 51750 51851 51905 51934 51968 52004 52051 52102 52151 52159 52209 52212 52243 52286 52324 52343 52327 52297 52308 52295 52305 52329 52333 52361 52395 52429 52447 52470 52423 52366 52344 52321 52326 52326 52316 52369 52355 52372 52385 52409 52347 52272 52226 52201 52206 52218 52216 52199 52223 52225 52280 52277 52206 52118 52068 52025 52041 52018 52024 52019 52060 52057 52075 52111 52120 52024 51942 51898 51865 51864 51882 51869 51885 51898 51903 51938 51976 51977 51901 51854 51829 51827 51831 51838 51843 51874 51865 51892 51931 51959 51997 51960 51886 51872 51886 51919 51961 51969 51998 52019 52056 52071 52074 52111 52121 52115 52103 52088 52089 52102 52135 52148 52159 52195 52212 52238 52262 52230 52167 52146 52129 52135 52135 52149 52152 52170 52198 52215 52238 52259 52254 52172 52129 52092 52113 52131 52132 52114 52119 52131 52159 52169 52199 52208 52144 52069 52019 52025 52034 52053 52040 52050 52070 52095 52102 52140 52149 52135 52043 52002 52032 51995 52029 52035 52034 52044 52060 52090 52106 52140 52148 52077 51997 51944 51945 51968 51959 51956 51948 51961 52007 52008 52046 52038 51963 51884 51809 51771 51770 51770 51748 51734 51750 51772 51797 51822 51805 51697 51604 51537 51506 51497 51488 51468 51478 51481 51492 51520 51546 51551 51500 51348 51303 51200 51135 51213 51228 51233 51235 51264 51241 51225 51328 51400 51330 51274 51259 51281 51284 51303 51293 51318 51347 51369 51416 51474 51483 51422 51320 51252 51244 51239 51264 51248 51238 51278 51310 51355 51389 51423 51431 51322 51241 51197 51188 51189 51200 51210 51221 51251 51312 51348 51378 51415 51341 51219 51149 51124 51147 51160 51162 51186 51208 51238 51277 51322 51374 51379 51272 51176 51141 51141 51146 51160 51166 51206 51224 51246 51285 51330 51381 51362 51249 51163 51134 51150 51172 51162 51179 51208 51241 51279 51329 51365 51420 51351 51232 51187 51158 51190 51233 51229 51236 51236 51268 51292 51329 51365 51401 51315 51202 51158 51157 51178 51199 51218 51221 51234 51265 51285 51330 51355 51266 51135 51067 51058 51032 51039 51031 51031 51037 51069 51085 51130 51166 51094 50950 50871 50812 50763 50735 50786 50789 50791 50815 50845 50866 50902 50898 50784 50685 50587 50543 50525 50507 50497 50489 50496 50520 50561 50585 50634 50608 50477 50366 50302 50299 50292 50270 50283 50293 50313 50348 50380 50421 50486 50462 50333 50226 50170 50156 50158 50151 50148 50161 50171 50216 50256 50304 50332 50273 50140 50055 50019 50023 50014 50004 50028 50030 50075 50131 50149 50201 50212 50082 49974 49894 49875 49857 49873 49878 49896 49914 49953 49997 50074 50118 50138 50036 49943 49882 49872 49883 49880 49904 49928 49946 50002 50046 50092 50169 50234 50172 50059 50019 50009 50028 50040 50078 50063 50087 50107 50131 50298 50415 50481 50477 50389 50302 50261 50283 50293 50305 50301 50311 50334 50374 50432 50492 50555 50557 50460 50348 50299 50302 50303 50305 50328 50356 50391 50432 50474 50532 50583 50522 50460 50350 50322 50326 50321 50338 50331 50343 50356 50415 50454 50500 50545 50520 50414 50308 50276 50239 50246 50231 50247 50266 50293 50334 50389 50462 50514 50557 50484 50355 50307 50312 50337 50330 50313 50336 50399 50458 50515 50543 50583 50515 50432 50396 50405 50427 50468 50476 50506 50553 50619 50658 50706 50761 50756 50652 50574 50530 50514 50519 50518 50537 50553 50580 50613 50647 50698 50677 50546 50420 50339 50280 50242 50235 50262 50351 50432 50540 50626 50698 50713 50615 50448 50178 50028 50163 50167 50164 50157 50168 50192 50234 50263 50258 50117 49949 49822 49758 49725 49715 49735 49715 49727 49754 49810 49869 49919 49925 49796 49660 49555 49509 49498 49491 49489 49505 49542 49587 49618 49691 49759 49707 49585 49483 49425 49441 49424 49424 49447 49472 49518 49573 49647 49706 49730 49622 49526 49460 49424 49414 49444 49447 49483 49535 49585 49641 49716 49732 49655 49578 49564 49510 49533 49546 49574 49598 49649 49708 49763 49833 49905 49947 49898 49828 49769 49757 49771 49796 49831 49861 49907 49960 50025 50085 50159 50223 50160 50105 50050 50028 50029 50045 50080 50105 50138 50185 50251 50311 50380 50444 50448 50409 50363 50360 50363 50369 50379 50407 50436 50486 50544 50569 50626 50657 50676 50596 50490 50426 50382 50365 50354 50343 50344 50360 50386 50395 50431 50417 50263 50142 50086 50037 49992 49958 49989 50053 50083 50094 50128 50144 50104 50038 49856 49650 49459 49330 49262 49212 49187 49176 49164 49163 49197 49216 49111 48882 48521 48289 48207 48194 48211 48085 48116 48293 48457 48594 48704 48859 49005 49119 49233 49406 49596 49739 49887 50055 50212 50372 50509 50662 50791 50904 50976 51046 51054 51065 51060 51076 51129 51164 51215 51268 51300 51343 51329 51287 51239 51240 51216 51241 51256 51281 51320 51290 51269 51333 51364 51382 51408 51437 51484 51474 51520 51541 51571 51619 51696 51743 51810 51787 51720 51696 51664 51556 51526 51548 51545 51523 51524 51561 51598 51580 51447 51294 51199 51177 51127 51096 51091 51094 51103 51086 51022 50982 50889 50725 50583 50483 50419 50403 50342 50302 50326 50391 50460 50529 50503 50386 50293 50205 50149 50095 50077 50067 50068 50083 50107 50127 50139 50099 49979 49887 49830 49820 49825 49824 49888 49941 49984 49998 50029 50094 50067 49990 49938 49940 49842 49853 49877 49906 49949 50027 50084 50163 50214 50216 50133 50068 49981 49930 49966 49997 50046 50117 50136 50235 50282 50334 50363 50376 50425 50494 50542 50591 50666 50709 50747 50824 50909 50965 51033 51034 50996 51017 51063 51064 50985 50981 51033 51295 51342 51491 51626 51706 51744 51770 51772 51805 51850 51932 52019 52095 52158 52174 52211 52249 52227 52165 52044 51969 51926 51889 51885 51865 51871 51886 51953 52032 52116 52213 52291 52262 52169 52079 52050 52053 52054 52084 52130 52154 52144 52118 52137 52155 52148 52083 52023 51956 51946 51930 51930 51928 51910 51906 51909 51954 51968 51994 51903 51757 51661 51583 51557 51563 51571 51579 51642 51651 51696 51705 51682 51563 51461 51388 51373 51379 51440 51505 51514 51497 51526 51539 51581 51644 51686 51624 51512 51495 51514 51548 51564 51569 51568 51591 51675 51745 51803 51774 51677 51610 51588 51586 51604 51614 51638 51688 51719 51767 51811 51844 51854 51770 51667 51601 51551 51580 51597 51596 51609 51626 51636 51635 51658 51652 51556 51485 51430 51419 51405 51415 51463 51492 51528 51601 51653 51710 51736 51687 51578 51504 51454 51448 51446 51480 51490 51494 51512 51539 51558 51613 51616 51530 51447 51420 51419 51456 51412 51398 51378 51373 51369 51387 51353 51304 51193 51139 51118 51119 51187 51300 51390 51450 51517 51590 51644 51722 51823 51915 52064 52191 52322 52422 52518 52612 52673 52702 52763 52808 52839 52799 52752 52754 52745 52759 52773 52818 52846 52878 52941 53005 53032 53070 53046 53027 53011 53038 53056 53090 53119 53138 53165 53182 53210 53192 53113 53018 52965 52843 52832 52837 52814 52783 52772 52757 52753 52702 52537 52365 52271 52218 52199 52160 52143 52154 52170 52188 52211 52200 52068 51936 51812 51757 51728 51735 51752 51771 51773 51802 51848 51842 51710 51559 51461 51422 51401 51435 51416 51438 51448 51486 51549 51527 51398 51272 51178 51161 51168 51187 51197 51209 51251 51292 51313 51275 51181 51109 51073 51084 51112 51138 49222 47286 47309 47353 47391 47364 47327 47270 47247 47266 47296 47310 47348 47380 47417 47463 47520 47520 47434 47362 47321 47276 47268 47238 47221 47224 47207 47223 47251 47271 47220 47099 47019 46981 46998 47037 47107 47181 47265 47360 47465 47538 47644 47716 47718 47682 47677 47685 47722 47741 47810 47821 47839 47855 47884 47897 47918 47938 47881 47751 47652 47584 47575 47567 47530 47508 47488 47482 47479 47492 47492 47464 47367 47235 47147 47126 47094 47073 47073 47057 47044 47047 47083 47118 47160 47140 47014 46869 46784 46747 46717 46735 46736 46760 46795 46824 46874 46906 46957 46989 46994 46884 46771 46692 46660 46638 46631 46617 46623 46637 46644 46674 46701 46746 46808 46798 46687 46573 46496 46464 46449 46447 46460 46475 46495 46544 46568 46611 46660 46690 46748 46724 46611 46529 46479 46465 46472 46480 46478 46490 46521 46549 46597 46648 46695 46735 46690 46577 46512 46480 46483 46461 46443 46437 46454 46462 46512 46559 46601 46642 46675 46608 46472 46360 46310 46259 46250 46236 46222 46223 46253 46289 46313 46348 46395 46450 46424 46308 46167 46083 46026 46007 45983 45968 45981 45997 46029 46055 46113 46156 46198 46253 46190 46064 45951 45875 45834 45825 45831 45817 45864 45868 45890 45950 45996 46036 46087 46147 46118 46021 45918 45860 45824 45833 45830 45821 45826 45844 45899 45940 45992 46044 46100 46065 45961 45918 45842 45798 45799 45798 45806 45834 45867 45909 45964 46023 46070 46126 46159 46074 45969 45883 45853 45839 45841 45837 45851 45875 45915 45960 46026 46061 46110 46168 46210 46135 46032 45956 45913 45877 45861 45875 45888 45901 45941 45968 46017 46079 46119 46171 46246 46213 46115 46032 45993 45985 45965 45967 45962 45985 46005 46052 46078 46125 46182 46244 46298 46356 46304 46211 46141 46103 46066 46049 46038 46027 46022 46052 46068 46104 46161 46207 46238 46284 46218 46097 46008 45977 45952 45942 45950 45939 45956 46005 46041 46094 46155 46188 46245 46277 46209 46090 46006 45960 45923 45946 45935 45937 45943 45968 46002 46035 46092 46153 46207 46267 46275 46187 46059 45996 45948 45950 45926 45924 45950 45959 45999 46025 46085 46133 46206 46254 46325 46293 46185 46093 46044 46021 46018 46019 46019 46034 46062 46108 46149 46191 46250 46298 46353 46388 46333 46228 46177 46137 46128 46132 46124 46109 46115 46132 46155 46203 46233 46298 46350 46328 46226 46131 46082 46072 46041 46038 46030 46031 46012 45917 45854 45955 46071 46147 46220 46181 46071 45974 45927 45892 45893 45878 45866 45858 45795 45823 45918 45971 46016 46057 46099 46061 45953 45879 45807 45778 45757 45757 45761 45796 45785 45810 45843 45885 45949 45992 46028 45984 45948 45879 45825 45781 45763 45763 45754 45755 45780 45816 45853 45913 46071 46189 46286 46267 46174 46063 45994 45951 45951 45950 45932 45941 45949 45977 45996 46027 46067 46098 46116 46051 45941 45862 45803 45777 45765 45770 45772 45778 45814 45870 45920 45981 46032 46098 46162 46115 46020 45973 45938 45923 45929 45915 45906 45911 45923 45964 46010 46037 46084 46127 46156 46047 45955 45890 45872 45849 45835 45843 45850 45862 45888 45917 45928 45998 46048 46088 45999 45886 45811 45758 45739 45750 45750 45732 45750 45772 45809 45839 45874 45931 45911 45801 45681 45579 45508 45478 45464 45469 45468 45492 45508 45549 45586 45643 45672 45600 45484 45396 45330 45308 45305 45308 45309 45327 45385 45409 45462 45512 45570 45631 45605 45510 45443 45396 45385 45387 45399 45426 45450 45496 45553 45595 45662 45712 45781 45826 45766 45704 45674 45670 45667 45682 45692 45706 45758 45803 45852 45914 45968 46030 46080 46048 45999 45984 45982 46008 46036 46076 46105 46132 46165 46207 46253 46293 46370 46366 46323 46299 46271 46280 46281 46291 46322 46334 46356 46391 46430 46473 46510 46542 46526 46464 46408 46359 46320 46301 46297 46279 46244 46286 46301 46336 46358 46398 46416 46439 46414 46333 46249 46173 46126 46115 46100 46085 46074 46080 46105 46130 46184 46210 46264 46297 46295 46203 46166 46088 46045 46016 46006 46005 45994 46012 46036 46063 46113 46152 46204 46219 46183 46098 46027 45981 45965 45984 45972 45990 46011 46044 46081 46124 46158 46220 46264 46264 46170 46109 46053 46039 46033 46042 46059 46057 46087 46135 46176 46219 46269 46310 46357 46319 46246 46197 46154 46147 46155 46154 46165 46172 46203 46249 46292 46349 46404 46450 46492 46486 46416 46355 46326 46320 46315 46316 46335 46342 46360 46418 46447 46481 46519 46580 46630 46672 46611 46548 46497 46453 46437 46425 46432 46422 46430 46461 46486 46521 46559 46598 46633 46666 46654 46555 46487 46442 46427 46429 46441 46396 46380 46389 46408 46434 46459 46490 46517 46525 46458 46378 46296 46247 46217 46203 46195 46189 46194 46209 46241 46265 46314 46389 46407 46366 46235 46077 45970 45985 45987 45972 45957 45957 45965 45978 46025 46088 46116 46145 46173 46019 45863 45820 45806 45792 45778 45767 45770 45766 45820 45838 45871 45903 45956 46004 46050 45991 45894 45813 45765 45743 45743 45734 45733 45733 45765 45802 45848 45900 45935 45993 46045 46014 45921 45907 45841 45827 45815 45817 45820 45841 45870 45893 45931 45984 46006 46058 46073 46018 45958 45917 45913 45906 45925 45925 45965 45988 46034 46079 46153 46183 46233 46283 46235 46169 46119 46069 46057 46063 46036 46055 46084 46109 46138 46181 46220 46267 46309 46313 46250 46185 46144 46118 46104 46118 46109 46123 46151 46181 46192 46239 46283 46324 46373 46376 46325 46240 46187 46153 46145 46142 46135 46140 46159 46178 46208 46241 46277 46342 46404 46434 46427 46359 46283 46255 46228 46232 46229 46224 46202 46225 46214 46274 46321 46332 46377 46410 46443 46395 46302 46244 46231 46224 46238 46258 46252 46264 46274 46311 46349 46393 46431 46486 46520 46485 46428 46370 46353 46333 46315 46319 46259 46140 46181 46269 46329 46389 46428 46481 46529 46513 46444 46361 46305 46271 46276 46262 46263 46267 46273 46286 46311 46361 46396 46423 46475 46502 46418 46330 46275 46227 46189 46180 46172 46186 46160 46165 46192 46229 46244 46274 46328 46371 46388 46305 46219 46162 46101 46092 46085 46059 46054 46058 46079 46091 46131 46162 46202 46240 46290 46212 46139 46069 46042 46034 46037 46037 46033 46045 46064 46083 46121 46158 46189 46227 46213 46118 46052 45990 45956 45942 45934 45926 45947 45982 45998 46008 46030 46063 46092 46137 46162 46093 46006 45956 45912 45902 45897 45892 45874 45881 45893 45920 45964 46000 46028 46057 46093 46051 45992 45913 45858 45834 45822 45803 45814 45828 45840 45885 45908 45947 45971 46027 46062 46037 45972 45894 45832 45806 45794 45773 45769 45763 45776 45825 45849 45891 45935 45971 46031 46023 45961 45885 45839 45834 45845 45859 45858 45881 45904 45931 45979 46017 46073 46125 46167 46184 46127 46075 46073 46059 46063 46066 46082 46109 46127 46173 46198 46228 46279 46308 46364 46340 46316 46270 46252 46259 46272 46293 46302 46330 46359 46390 46429 46500 46518 46573 46604 46594 46542 46481 46458 46460 46450 46441 46446 46448 46481 46502 46545 46574 46610 46658 46701 46705 46647 46562 46513 46478 46462 46405 46383 46357 46353 46380 46378 46402 46420 46428 46460 46480 46432 46325 46249 46195 46158 46155 46126 46115 46116 46135 46162 46176 46221 46269 46284 46329 46327 46242 46166 46106 46101 46094 46086 46042 46043 46077 46119 46164 46195 46235 46289 46356 46385 46370 46301 46252 46238 46228 46276 46273 46279 46277 46319 46343 46385 46445 46477 46534 46565 46573 46521 46496 46478 46481 46498 46504 46524 46534 46562 46611 46637 46681 46711 46756 46758 46725 46685 46634 46592 46572 46584 46606 46609 46629 46661 46667 46698 46721 46755 46740 46731 46692 46633 46598 46560 46552 46533 46524 46568 46549 46572 46557 46575 46594 46617 46630 46605 46508 46426 46375 46343 46314 46289 46245 46232 46221 46227 46213 46222 46244 46242 46245 46150 46103 46021 45999 45988 46003 45979 45965 45957 45934 45947 45961 45980 45976 45987 45959 45894 45860 45839 45828 45842 45854 45852 45842 45861 45880 45931 45972 46010 46031 46025 45990 45951 45908 45915 46005 46073 46109 46111 46124 46150 46217 46255 46278 46289 46273 46243 46216 46219 46224 46248 46276 46285 46279 46285 46294 46324 46363 46387 46425 46396 46375 46341 46326 46318 46317 46330 46330 46346 46367 46389 46437 46466 46511 46508 46494 46499 46461 46458 46460 46465 46457 46483 46472 46475 46495 46509 46530 46478 46416 46345 46303 46292 46274 46260 46258 46236 46206 46197 46193 46183 46201 46107 45983 45878 45755 45670 45595 45532 45485 45427 45422 45421 45426 45431 45440 45333 45196 45120 45120 45180 45278 45409 45551 45739 45905 46022 46098 46201 46274 46311 46325 46314 46310 46332 46355 46377 46374 46407 46445 46510 46560 46603 46635 46654 46648 46631 46633 46648 46674 46711 46741 46736 46741 46768 46792 46817 46835 46837 46822 46775 46715 46653 46607 46578 46552 46556 46541 46548 46571 46584 46549 46452 46314 46260 46246 46296 46273 46233 46205 46131 46049 46014 45982 46010 45950 45926 45865 46268 47026 47630 47936 48182 48299 48326 48304 48268 48235 48200 48158 47987 47876 47678 47531 47380 47228 47081 46989 46964 46962 46948 46965 46973 46966 46912 46860 46803 46760 46742 46735 46736 46737 46764 46783 46797 46853 46921 46925 46891 46840 46811 46822 46844 46882 46892 46918 46951 46986 47009 47072 47128 47185 47188 47140 47109 47098 47098 47120 47123 47164 47184 47230 47246 47293 47370 47418 47469 47460 47434 47386 47370 47386 47424 47441 47463 47487 47553 47601 47634 47675 47720 47773 47767 47751 47749 47754 47795 47809 47828 47860 47884 47935 47964 48019 48045 48099 48144 48153 48153 48142 48159 48167 48192 48219 48233 48260 48272 48307 48332 48376 48408 48455 48428 48400 48372 48365 48369 48379 48380 48373 48382 48372 48396 48404 48390 48371 48296 48300 48330 48368 48394 48437 48462 48511 48566 48613 48680 48728 48773 48829 48894 48899 48907 48914 48932 48976 49005 49025 49069 49093 49132 49157 49195 49220 49223 49205 49175 49149 49156 49166 49164 49197 49210 49215 49227 49245 49269 49297 49281 49224 49165 49118 49120 49109 49126 49139 49145 49165 49197 49208 49249 49271 49246 49175 49088 49038 49041 49000 48990 48986 48969 48982 48982 49004 49007 49016 49055 49035 48928 48826 48764 48720 48691 48680 48648 48630 48627 48636 48647 48666 48693 48740 48744 48757 48721 48668 48622 48611 48607 48608 48611 48619 48627 48651 48688 48714 48738 48771 48794 48828 48821 48818 48816 48786 48796 48818 48861 48860 48868 48887 48906 48941 48955 48975 49007 49043 49075 49088 49092 49102 49122 49126 49153 49171 49182 49210 49231 49261 49277 49306 49333 49399 49411 49434 49459 49450 49461 49450 49466 49477 49462 49437 49432 49477 49501 49521 49556 49560 49590 49606 49626 49638 49616 49584 49574 49585 49628 49609 49623 49620 49637 49655 49678 49708 49714 49726 49742 49749 49730 49686 49647 49625 49620 49615 49600 49589 49597 49601 49617 49655 49654 49713 49701 49727 49740 49717 49669 49616 49587 49575 49573 49563 49561 49570 49566 49573 49606 49604 49647 49650 49681 49686 49652 49610 49578 49555 49562 49558 49549 49541 49560 49560 49567 49580 49596 49621 49639 49660 49679 49636 49569 49547 49544 49546 49552 49548 49542 49561 49577 49594 49614 49663 49678 49691 49694 49651 49584 49551 49528 49516 49529 49513 49503 49524 49537 49564 49591 49613 49635 49656 49648 49594 49542 49492 49483 49473 49515 49485 49493 49493 49511 49527 49549 49575 49598 49623 49659 49635 49565 49500 49477 49460 49444 49464 49459 49460 49469 49511 49530 49544 49562 49611 49629 49619 49604 49530 49481 49448 49433 49454 49443 49449 49444 49455 49479 49509 49538 49569 49567 49595 49624 49609 49529 49475 49448 49429 49474 49444 49441 49435 49441 49466 49494 49513 49536 49559 49572 49610 49608 49553 49457 49441 49418 49416 49422 49419 49399 49387 49393 49417 49452 49501 49524 49539 49552 49564 49520 49487 49466 49472 49485 49464 49483 49510 49506 49526 49562 49594 49632 49644 49647 49621 49611 49547 49495 49453 49488 49478 49472 49465 49481 49496 49528 49539 49562 49599 49600 49624 49636 49572 49486 49417 49395 49379 49375 49373 49354 49345 49358 49386 49409 49450 49479 49509 49511 49513 49428 49339 49289 49280 49273 49272 49287 49286 49297 49320 49349 49379 49399 49433 49460 49488 49460 49393 49323 49285 49312 49297 49310 49299 49321 49316 49350 49365 49386 49421 49431 49465 49428 49356 49283 49232 49234 49231 49230 49225 49238 49258 49270 49299 49312 49363 49381 49412 49361 49246 49145 49074 49034 49022 49012 48995 48991 48986 49006 49032 49043 49086 49099 49126 49116 48981 48852 48762 48709 48678 48692 48659 48646 48624 48654 48667 48697 48725 48751 48778 48810 48736 48590 48448 48371 48342 48324 48297 48263 48270 48273 48304 48325 48339 48393 48446 48462 48501 48447 48304 48186 48102 48054 48037 48009 48003 47988 47997 48032 48079 48113 48149 48196 48240 48280 48228 48084 47997 47930 47917 47935 47912 47911 47916 47950 47965 48015 48043 48095 48132 48189 48205 48109 47992 47938 47902 47899 47914 47906 47912 47954 47984 48018 48052 48096 48164 48193 48196 48108 47999 47916 47871 47870 47874 47866 47879 47902 47937 47974 48023 48074 48125 48172 48216 48170 48042 47937 47899 47887 47879 47906 47898 47903 47946 47984 48032 48058 48112 48171 48217 48240 48162 48049 47961 47924 47897 47902 47894 47906 47924 47951 47998 48043 48087 48125 48203 48217 48244 48164 48017 47931 47892 47883 47878 47876 47869 47885 47907 47950 48000 48046 48088 48148 48175 48215 48106 47981 47916 47876 47849 47873 47860 47846 47848 47879 47902 47941 47996 48035 48085 48114 48075 47937 47837 47757 47726 47713 47712 47704 47709 47735 47773 47815 47869 47911 47971 48022 48030 47944 47810 47697 47645 47608 47600 47595 47591 47589 47628 47655 47704 47746 47775 47819 47874 47871 47724 47590 47522 47453 47423 47461 47420 47416 47426 47461 47483 47551 47601 47651 47680 47736 47729 47578 47449 47386 47347 47334 47334 47321 47347 47374 47405 47453 47494 47546 47618 47657 47718 47703 47585 47477 47440 47427 47438 47444 47427 47454 47492 47532 47584 47648 47685 47749 47788 47727 47622 47570 47537 47543 47560 47590 47581 47609 47646 47690 47731 47780 47844 47903 47939 47881 47779 47703 47671 47671 47668 47672 47678 47691 47735 47774 47826 47857 47910 47946 48002 47980 47875 47811 47756 47722 47728 47731 47730 47754 47783 47821 47860 47916 47950 47996 48031 48052 47967 47856 47781 47738 47728 47706 47696 47729 47727 47746 47768 47812 47858 47901 47950 47975 48000 47915 47805 47745 47691 47680 47655 47613 47610 47650 47693 47732 47784 47829 47880 47918 47975 47929 47802 47714 47653 47653 47649 47640 47650 47657 47678 47706 47755 47783 47814 47848 47856 47756 47591 47483 47412 47380 47367 47346 47331 47355 47350 47386 47428 47465 47506 47549 47576 47485 47327 47187 47109 47083 47062 47040 47016 47024 47055 47099 47136 47192 47251 47296 47340 47288 47181 47044 46970 46932 46939 46933 46939 46944 46971 47001 47055 47114 47173 47231 47296 47319 47219 47118 47060 47035 47021 47031 47056 47071 47101 47162 47185 47235 47297 47347 47404 47472 47457 47387 47319 47303 47312 47337 47354 47371 47383 47410 47441 47484 47522 47593 47657 47703 47658 47580 47578 47533 47509 47479 47473 47509 47591 47607 47670 47714 47774 47816 47879 47865 47781 47698 47673 47629 47621 47592 47573 47571 47582 47612 47645 47698 47717 47759 47802 47771 47654 47566 47496 47441 47434 47413 47388 47376 47383 47396 47438 47473 47497 47543 47572 47553 47437 47315 47265 47225 47230 47191 47205 47219 47221 47248 47277 47313 47383 47431 47484 47477 47394 47280 47229 47159 47148 47143 47118 47123 47130 47166 47196 47247 47286 47340 47366 47373 47268 47161 47091 47063 47048 47039 47038 47047 47065 47096 47154 47205 47242 47300 47318 47292 47168 47072 47016 46968 46975 46976 46996 46994 47019 47057 47095 47139 47184 47225 47287 47244 47118 47023 46953 46879 46829 46766 46715 46688 46695 46721 46746 46769 46787 46798 46778 46678 46502 46384 46307 46299 46288 46298 46306 46332 46373 46407 46493 46554 46628 46696 46721 46683 46664 46696 46719 46773 46819 46863 46924 46972 47047 47094 47160 47227 47286 47270 47220 47177 47178 47203 47249 47272 47289 47329 47373 47420 47481 47539 47582 47613 47554 47457 47414 47415 47437 47476 47481 47508 47536 47584 47618 47679 47728 47765 47712 47654 47624 47635 47675 47697 47723 47757 47794 47855 47899 47956 48002 48044 47994 47909 47913 47901 47920 47945 47974 48003 48041 48071 48123 48176 48218 48268 48226 48134 48090 48077 48073 48074 48071 48097 48118 48171 48203 48254 48281 48344 48294 48186 48112 48081 48087 48088 48098 48093 48109 48139 48187 48224 48267 48312 48286 48162 48056 47987 47973 47967 47955 47966 47972 47965 48011 48029 48079 48122 48171 48133 47990 47872 47801 47763 47756 47742 47743 47735 47748 47776 47807 47861 47918 47959 47980 47866 47727 47661 47622 47645 47632 47622 47629 47650 47673 47708 47765 47804 47863 47904 47897 47753 47633 47557 47539 47519 47521 47523 47512 47543 47552 47602 47633 47700 47753 47781 47755 47621 47520 47471 47449 47443 47428 47415 47418 47440 47482 47509 47537 47574 47611 47604 47476 47372 47311 47286 47284 47277 47276 47307 47317 47362 47411 47460 47498 47558 47597 47535 47392 47295 47240 47212 47198 47189 47191 47201 47206 47235 47272 47321 47374 47407 47438 47337 47261 47139 47094 47070 47063 47066 47069 47072 47097 47127 47179 47208 47256 47307 47351 47287 47165 47071 47047 47016 47031 47039 47040 47049 47083 47157 47188 47223 47271 47340 47382 47413 47312 47221 47143 47141 47130 47138 47141 47154 47177 47203 47253 47298 47338 47394 47409 47457 47378 47286 47265 47228 47242 47247 47246 47261 47288 47312 47324 47373 47421 47467 47504 47444 47320 47247 47190 47178 47166 47161 47159 47181 47195 47228 47272 47334 47360 47413 47445 47427 47285 47159 46987 46905 46864 46809 46733 46690 46700 46682 46710 46846 46964 47056 47152 47207 47136 47025 46938 46888 46889 46876 46872 46850 46849 46860 46908 46964 47010 47061 47126 47174 47189 47088 46976 46890 46853 46844 46845 46842 46848 46876 46907 46955 47000 47059 47106 47148 47201 47227 47177 47088 47033 47005 47009 47030 47034 47047 47068 47113 47158 47201 47246 47280 47340 47378 47328 47241 47194 47183 47221 47228 47237 47250 47251 47285 47323 47374 47414 47470 47514 47550 47535 47444 47351 47319 47292 47280 47286 47282 47275 47310 47314 47376 47417 47484 47513 47559 47581 47549 47428 47351 47276 47241 47249 47247 47255 47254 47262 47266 47292 47323 47373 47406 47461 47472 47412 47283 47189 47132 47136 47104 47070 47049 47046 47055 47060 47102 47111 47153 47176 47231 47279 47252 47121 47041 46968 46926 46913 46914 46890 46895 46914 46944 46989 47029 47062 47086 47124 47167 47129 46998 46901 46860 46845 46843 46825 46829 46823 46853 46890 46919 46964 46992 47035 47054 47003 46886 46807 46752 46761 46734 46730 46725 46742 46770 46816 46852 46903 46945 46997 47043 47065 46967 46868 46785 46755 46736 46735 46735 46747 46754 46790 46834 46886 46925 46961 46989 47036 47065 46969 46857 46772 46722 46695 46696 46692 46695 46714 46743 46778 46819 46853 46912 46950 46997 47044 46971 46862 46770 46756 46723 46708 46695 46691 46711 46746 46778 46814 46850 46899 46951 47009 47062 47037 46909 46830 46778 46751 46763 46754 46759 46769 46778 46818 46870 46894 46953 47009 47048 47088 47006 46908 46867 46846 46846 46847 46857 46875 46900 46930 46969 47004 47061 47112 47155 47191 47105 46998 46931 46926 46901 46905 46910 46912 46926 46964 46992 47051 47111 47153 47217 47267 47268 47150 46997 46886 46787 46698 46678 46763 46850 46901 46938 46984 47050 47050 47074 47111 47143 47079 46936 46815 46734 46693 46662 46652 46645 46652 46697 46732 46752 46783 46830 46886 46953 47009 46947 46858 46824 46832 46820 46830 46841 46844 46879 46911 46954 46995 47029 47090 47078 47050 47058 47033 47049 47031 47049 47066 47081 47082 47129 47123 47150 47159 47239 47246 47301 47342 47300 47196 47112 47061 47034 47034 47035 47020 47035 47072 47120 47170 47221 47243 47295 47352 47363 47266 47171 47127 47098 47113 47099 47101 47104 47129 47152 47196 47265 47325 47377 47459 47506 47449 47339 47239 47179 47153 47153 47146 47154 47151 47184 47217 47265 47316 47390 47410 47463 47511 47402 47323 47259 47228 47243 47256 47257 47260 47289 47339 47391 47433 47481 47521 47571 47590 47507 47396 47342 47321 47308 47326 47298 47277 47311 47340 47366 47379 47390 47403 47378 47315 47243 47207 47191 47176 47191 47197 47195 47219 47246 47272 47326 47377 47420 47466 47515 47429 47310 47207 47157 47125 47119 47097 47101 47105 47115 47154 47191 47235 47265 47329 47365 47327 47210 47102 47045 47012 46999 47012 47006 47028 47036 47058 47087 47126 47153 47203 47243 47265 47167 47036 46986 46923 46922 46932 46933 46944 46974 47019 47067 47113 47167 47217 47269 47326 47372 47271 47178 47112 47059 47070 47097 47107 47144 47167 47216 47246 47291 47333 47381 47434 47399 47296 47227 47184 47186 47197 47209 47221 47243 47297 47318 47353 47401 47453 47488 47541 47487 47364 47283 47220 47187 47181 47165 47159 47159 47184 47220 47255 47293 47340 47377 47413 47352 47214 47160 47071 47027 47027 47009 46990 46995 47021 47058 47091 47148 47202 47263 47292 47266 47132 47015 46961 46920 46918 46910 46904 46915 46954 46986 47044 47069 47121 47177 47226 47195 47079 46975 46905 46897 46896 46889 46890 46910 46935 46958 47006 47062 47099 47148 47147 47013 46898 46828 46790 46798 46796 46771 46786 46805 46835 46895 46947 46933 46948 47020 47036 46899 46770 46691 46634 46630 46617 46624 46633 46658 46691 46738 46802 46835 46895 46932 46964 46854 46721 46643 46583 46561 46544 46538 46552 46560 46602 46649 46698 46747 46794 46844 46877 46824 46687 46595 46554 46533 46533 46541 46527 46547 46574 46610 46662 46716 46757 46807 46856 46882 46777 46680 46623 46599 46593 46594 46597 46609 46629 46665 46700 46739 46789 46844 46888 46851 46748 46659 46637 46618 46614 46623 46635 46644 46677 46711 46765 46814 46861 46903 46912 46804 46707 46624 46597 46585 46581 46572 46575 46624 46641 46675 46717 46763 46806 46858 46835 46731 46623 46559 46525 46509 46497 46492 46511 46524 46551 46610 46659 46714 46768 46812 46810 46705 46639 46551 46527 46516 46541 46539 46557 46579 46617 46662 46723 46766 46824 46886 46918 46851 46760 46709 46686 46668 46667 46656 46673 46710 46742 46790 46813 46858 46911 46982 46958 46861 46773 46723 46711 46699 46705 46700 46727 46746 46787 46831 46880 46933 46981 47021 46949 46814 46740 46690 46681 46649 46640 46641 46661 46681 46718 46767 46814 46869 46930 46961 46935 46815 46711 46655 46607 46619 46604 46600 46616 46649 46696 46743 46791 46855 46894 46935 46960 46860 46754 46683 46651 46639 46660 46657 46672 46698 46730 46778 46836 46886 46939 47002 47050 47033 46938 46853 46827 46825 46853 46851 46859 46882 46918 46952 46985 47029 47079 47147 47157 47131 47028 46947 46878 46875 46881 46878 46900 46911 46969 47005 47043 47102 47168 47246 47280 47260 47152 47052 47004 46976 46983 47011 47015 47025 47077 47118 47183 47240 47295 47355 47416 47414 47326 47221 47172 47130 47131 47134 47158 47167 47166 47206 47248 47304 47332 47403 47452 47462 47375 47279 47238 47199 47198 47195 47175 47181 47201 47228 47270 47264 47210 47239 47307 47313 47233 47162 47137 47131 47153 47150 47147 47178 47197 47248 47285 47355 47421 47480 47483 47410 47351 47347 47358 47377 47395 47447 47491 47530 47591 47631 47681 47744 47801 47854 47865 47845 47816 47821 47836 47881 47925 47955 48008 48050 48098 48139 48177 48239 48275 48308 48347 48353 48344 48372 48389 48405 48440 48499 48546 48556 48582 48613 48640 48664 48703 48711 48736 48759 48793 48811 48843 48862 48883 48921 48953 48973 49005 49019 49075 49072 49091 49117 49135 49166 49189 49201 49219 49251 49249 49270 49294 49300 49318 49335 49345 49368 49384 49419 49420 49466
