47191 50182 50178 50180 50247 50275 50300 50329 50339 50354 50337 50292 50223 50204 50173 50148 50113 50077 50063 50043 50014 49977 49945 49902 49872 49819 49768 49583 49362 49176 48983 48828 48677 48515 48397 48277 48165 48046 47955 47823 47701 47594 47465 47261 46951 46647 46338 46073 45829 45589 45399 45279 45141 45067 44988 44914 44854 44826 44791 44769 44668 44490 44349 44255 44195 44141 44107 44089 44088 44103 44112 44143 44149 44153 44155 44167 44173 44144 44003 43909 43857 43870 43918 43994 44037 44107 44186 44247 44314 44362 44428 44527 44627 44704 44717 44656 44617 44590 44599 44624 44628 44652 44660 44690 44706 44747 44762 44775 44821 44859 44869 44815 44771 44727 44699 44701 44754 44768 44749 44746 44751 44782 44809 44828 44848 44876 44909 44879 44835 44813 44799 44812 44823 44825 44835 44859 44868 44874 44886 44905 44940 44966 44957 44956 44873 44753 44667 44594 44544 44552 44605 44684 44765 44861 44977 45084 45181 45266 45339 45383 45338 45243 45187 45113 45056 45022 45023 45044 45064 45095 45138 45199 45237 45248 45259 45238 45224 45156 45075 45021 44970 44904 44863 44818 44786 44762 44766 44767 44801 44834 44852 44895 44891 44867 44868 44828 44793 44702 44565 44525 44565 44628 44662 44652 44577 44473 44476 44555 44583 44328 44108 43976 43916 43922 43958 44018 44131 44183 44209 44230 44250 44272 44293 44284 44278 44347 44419 44468 44533 44534 44458 44394 44359 44351 44347 44359 44485 44613 44652 44684 44693 44513 44222 43945 44001 44289 44464 44452 44360 44367 44373 44391 44415 44373 44384 44372 44341 44438 44672 44801 44795 44781 44731 44633 44556 44531 44556 44643 44691 44751 44847 44914 44986 45052 45123 45168 45256 45313 45382 45499 45634 45694 45772 45878 45846 45822 45864 45991 45993 45924 45894 45884 45862 45778 45733 45699 45633 45486 45445 45397 45359 45299 45183 45121 45083 45147 45278 45383 45483 45574 45627 45636 45653 45655 45680 45696 45762 45770 45659 45592 45694 45868 46044 46151 46229 46254 46284 46314 46279 46230 46138 46035 46021 46298 47022 47560 47644 47506 47460 47416 47352 47151 47077 47061 47091 46957 46809 46728 46564 46671 46715 46798 46864 46932 46897 46834 46770 46717 46646 46629 46610 46588 46577 46580 46614 46648 46686 46720 46673 46632 46524 46409 46374 46409 46479 46600 46790 46891 46976 47088 47139 47231 47329 47434 47531 47645 47764 47865 47931 47985 48042 48110 48168 48212 48252 48309 48279 48151 48015 47937 47791 47752 47709 47633 47627 47515 47551 47635 47686 47716 47699 47693 47683 47708 47711 47739 47737 47736 47725 47692 47660 47653 47644 47627 47573 47496 47476 47415 47379 47328 47282 47252 47184 47137 47096 47059 46986 46888 46847 46817 46798 46834 46808 46760 46735 46680 46674 46689 46744 46778 46819 46879 46865 46894 46893 46896 46884 46875 46893 46859 46844 46829 46713 46471 46352 46273 46260 46290 46340 46385 46427 46466 46511 46538 46551 46557 46591 46637 46658 46626 46592 46581 46612 46650 46667 46686 46688 46666 46668 46685 46718 46756 46837 46903 46947 46965 46983 46977 46956 46960 46933 46955 46956 46942 46923 46882 46879 46871 46880 46922 46949 46928 46929 46864 46818 46796 46779 46835 46851 46869 46862 46847 46825 46782 46745 46710 46711 46712 46782 46904 46970 47000 47040 47057 47051 47043 47046 47068 47120 47156 47200 47277 47358 47388 47370 47357 47384 47417 47436 47432 47424 47459 47441 47471 47398 47058 46955 47023 47025 47000 47050 47052 47093 47115 47138 47164 47159 47177 47173 47182 47155 47116 47065 47018 47011 46988 47006 46995 46969 46955 46953 46946 46917 46863 46801 46753 46707 46657 46632 46590 46574 46528 46484 46507 46505 46474 46451 46435 46416 46447 46473 46520 46564 46597 46665 46692 46677 46607 46549 46503 46474 46445 46444 46439 46442 46459 46435 46416 46399 46336 46235 46180 46114 46069 46029 45995 46012 45976 45972 46020 46059 46086 46053 46027 46000 46013 46018 46022 46001 45942 45949 45915 45903 45878 45821 45761 45707 45685 45670 45687 45690 45710 45712 45717 45757 45795 45842 45841 45800 45790 45867 45953 46025 46067 46127 46169 46166 46175 46173 46170 46126 46106 46095 46075 46087 46133 46147 46179 46176 46205 46180 46187 46169 46109 46058 46005 45994 45968 45948 45964 45979 46002 46006 46011 45994 45959 45914 45914 45924 45933 45965 46068 46129 46190 46157 46092 46087 46080 46057 46053 46044 46051 46047 46101 46119 46168 46247 46301 46338 46376 46469 46575 46670 46736 46772 46802 46873 46891 46917 46963 46989 47037 47074 47109 47105 47130 47180 47271 47417 47592 47711 47832 47881 47931 47922 47937 47926 47903 47903 47930 47974 48021 47990 47945 47928 47895 47880 47909 47962 47972 48002 48028 48058 48093 48080 48019 47992 47973 47969 47954 47913 47860 47795 47720 47704 47621 47486 47347 47370 47416 47513 47585 47651 47740 47758 47765 47730 47699 47679 47655 47640 47601 47614 47630 47638 47635 47660 47712 47703 47653 47627 47658 47687 47760 47792 47853 47866 47915 48003 48227 48419 48479 48560 48643 48725 48794 48837 48904 48963 49022 49072 49095 49128 49139 49151 49171 49222 49215 49244 49254 49267 49294 49305 49320 49355 49385 49412 49436 49469 49506 49585 49687 49877 50305 50772 51208 51702 52012 52056 52160 52205 52278 52279 52288 52258 52191 52110 51803 51528 51534 51556 51556 51719 51726 51614 51414 51242 51181 51085 50978 50845 50726 50578 50497 50405 50362 50266 50071 49894 49657 49487 49283 48997 48816 48690 48619 48637 48707 48754 48826 48849 48773 48656 48459 48258 48273 48253 48229 48209 48242 48322 48523 48613 48650 48730 48671 48613 48695 48823 49052 49061 48994 48816 48639 48567 48485 48424 48369 48303 48146 47957 47794 47719 47679 47678 47700 47733 47771 47894 48078 48271 48422 48530 48579 48625 48713 48797 48897 48971 49019 49105 49149 49112 48989 48817 48580 48436 48311 48195 48130 48181 48342 48524 48538 48537 48584 48627 48691 48766 48850 48918 48984 49048 49113 49184 49245 49324 49372 49432 49497 49562 49608 49640 49689 49728 49778 49817 49834 49893 49908 49941 49994 50027 50066 50094 50113 50126 50161 50179 50216 50240 50265 50291 50301 50272 50256 50244 50227 50169 50143 50112 50131 50116 50122 50150 50171 50177 50179 50176 50179 50186 50202 50214 50263 50286 50322 50368 50417 50402 50311 50101 49909 49712 49532 49442 49375 49369 49298 49251 49250 49207 49141 48984 48797 48647 48521 48439 48344 48258 48206 48177 48161 48166 48162 48126 48187 48208 48235 48315 48316 48154 48020 47872 47752 47618 47523 47503 47685 47959 48190 48439 48669 48846 48979 49085 49169 49260 49345 49423 49486 49568 49634 49699 49777 49828 49900 49963 49990 50038 50090 50091 50076 50098 50108 50146 50146 50197 50211 50244 50272 50289 50281 50341 50355 50387 50405 50400 50392 50383 50419 50439 50477 50476 50495 50522 50528 50565 50568 50602 50611 50641 50644 50633 50613 50601 50608 50630 50646 50658 50671 50676 50711 50729 50730 50742 50766 50841 50825 50822 50789 50793 50809 50809 50838 50852 50845 50858 50877 50892 50925 50949 50962 50971 50993 50952 50921 50913 50896 50911 50920 50921 50960 50934 50952 50966 50978 51009 51015 51030 51041 51040 51018 50983 50956 50946 50954 50962 50970 50964 50976 50986 50993 51013 51024 51023 51059 51104 51119 51090 51072 51048 51053 51090 51122 51150 51165 51180 51195 51219 51213 51230 51233 51241 51268 51296 51326 51301 51279 51252 51267 51239 51253 51227 51237 51237 51254 51245 51269 51272 51287 51294 51305 51319 51314 51275 51238 51218 51237 51228 51240 51260 51252 51278 51283 51300 51311 51353 51345 51348 51367 51363 51322 51287 51281 51275 51279 51274 51274 51268 51273 51300 51302 51309 51335 51347 51360 51388 51374 51349 51277 51267 51284 51285 51274 51288 51271 51280 51299 51311 51319 51343 51355 51354 51383 51401 51369 51324 51288 51265 51269 51275 51278 51278 51289 51293 51317 51352 51355 51379 51384 51378 51404 51395 51336 51303 51275 51261 51270 51260 51258 51273 51285 51310 51318 51335 51345 51344 51371 51378 51394 51353 51327 51283 51275 51278 51283 51282 51277 51287 51294 51313 51321 51370 51363 51390 51438 51458 51444 51406 51341 51312 51309 51312 51318 51303 51308 51346 51347 51356 51368 51389 51390 51406 51428 51448 51401 51290 51213 51196 51212 51248 51255 51275 51302 51334 51349 51357 51378 51400 51409 51425 51481 51472 51414 51364 51346 51328 51325 51336 51333 51327 51337 51355 51364 51376 51391 51407 51428 51456 51467 51446 51395 51347 51343 51348 51318 51372 51340 51340 51366 51353 51386 51392 51396 51416 51454 51463 51486 51474 51428 51375 51370 51372 51376 51366 51378 51383 51397 51414 51430 51453 51485 51489 51495 51519 51520 51481 51412 51375 51377 51362 51369 51368 51360 51372 51367 51393 51416 51435 51454 51471 51489 51504 51481 51419 51386 51390 51371 51364 51350 51359 51353 51379 51391 51422 51471 51479 51477 51498 51527 51522 51495 51431 51382 51389 51396 51394 51399 51406 51392 51404 51437 51431 51449 51456 51496 51507 51505 51464 51411 51384 51398 51409 51398 51408 51371 51361 51316 51289 51262 51268 51273 51285 51309 51298 51226 51206 51138 51103 51058 51021 50966 50957 50867 50805 50663 50464 50197 50025 49997 49915 49804 49729 49616 49568 49494 49413 49346 49262 49201 49106 49064 49011 48996 48996 48955 48977 48987 49023 49086 49166 49181 49162 49162 49134 49058 49027 49041 49040 48932 48799 48669 48563 48480 48434 48410 48420 48306 48094 48135 48089 48066 48021 47977 47982 48038 48248 48475 48828 49031 49151 49281 49403 49532 49707 49815 49918 50019 50087 50057 49892 49846 49816 49942 50005 49984 49954 49977 50002 50018 50037 50036 50013 50001 49998 49998 50038 50066 50173 50354 50433 50353 50213 50132 50248 50394 50572 50588 50697 50718 50735 50745 50737 50758 50759 50734 50603 50482 50393 50272 50062 49768 49469 49231 49005 48805 48640 48528 48358 48167 48209 48501 48890 49363 49707 49649 49468 49330 49252 49194 49069 48842 48561 48372 48260 48236 48323 48476 48589 48599 48520 48417 48323 48268 48244 48228 48234 48202 48201 48230 48267 48319 48395 48486 48505 48490 48466 48455 48492 48499 48501 48499 48508 48536 48552 48568 48575 48599 48539 48396 48210 48092 47930 47777 47670 47647 47661 47718 47812 47925 48010 48053 48068 48001 47810 47543 47339 47187 47053 46917 46820 46747 46696 46659 46609 46573 46556 46394 46150 45952 45784 45672 45604 45528 45503 45574 45535 45313 45403 45650 45868 46024 45939 45609 45571 45765 45853 45935 45951 45955 45954 46002 46000 46033 46070 46108 46129 46098 46206 46588 46847 46943 46978 47015 47047 47117 47183 47236 47319 47451 47559 47658 47751 47780 47825 47788 47766 47797 47854 47919 47999 48073 48133 48174 48255 48283 48336 48375 48424 48471 48539 48604 48677 48750 48797 48806 48808 48814 48831 48822 48817 48884 48921 48955 48873 48722 48619 48534 48435 48343 48260 48206 48143 48081 48031 47996 47950 47886 47767 47569 47391 47240 47104 46991 46897 46801 46760 46669 46619 46568 46521 46488 46447 46416 46357 46238 46070 45928 45814 45737 45685 45631 45601 45588 45592 45570 45578 45586 45605 45629 45643 45637 45542 45468 45448 45420 45401 45378 45369 45350 45370 45379 45389 45415 45446 45478 45521 45526 45451 45345 45275 45227 45224 45224 45211 45208 45239 45239 45266 45306 45340 45364 45404 45431 45425 45352 45295 45263 45255 45247 45245 45264 45265 45320 45348 45397 45432 45509 45624 45801 45814 45846 45836 45845 45820 45860 46016 46276 46509 46644 46796 46915 47015 47124 47211 47315 47418 47497 47565 47610 47695 47757 47846 47912 47976 48053 48116 48170 48227 48283 48362 48433 48487 48553 48571 48535 48433 48252 48132 48055 48007 48054 48235 48418 48383 48470 48559 48591 48623 48649 48674 48738 48762 48802 48835 48842 48876 48892 48916 48944 48970 48986 48990 49024 49041 49110 49147 49132 49054 48931 48851 48778 48782 48898 48914 48921 49008 49017 49003 48973 48945 48926 48900 48872 48846 48817 48763 48627 48460 48297 48180 48117 48030 47944 47888 47851 47831 47814 47824 47831 47835 47851 47836 47723 47578 47472 47414 47366 47338 47319 47299 47283 47284 47289 47299 47321 47334 47346 47281 47150 47049 46998 46973 46954 46952 46935 46967 46958 46975 47007 47039 47079 47117 47140 47106 46984 46879 46823 46785 46757 46741 46716 46725 46738 46765 46780 46822 46854 46912 46953 46957 46948 46859 46799 46738 46695 46657 46612 46556 46501 46463 46438 46397 46365 46331 46315 46276 46266 46171 46032 45936 45859 45785 45743 45694 45674 45683 45663 45647 45660 45664 45674 45694 45707 45741 45709 45653 45582 45545 45511 45495 45499 45495 45497 45505 45516 45532 45553 45571 45591 45615 45652 45591 45522 45464 45419 45393 45372 45346 45315 45307 45328 45374 45380 45373 45311 45295 45357 45496 45650 45770 45892 46047 46212 46377 46521 46661 46778 46906 47047 47177 47291 47399 47510 47610 47690 47775 47872 47937 47991 48043 48085 48162 48225 48305 48364 48437 48490 48559 48613 48689 48766 48807 48874 48930 49011 49060 49102 49126 49172 49235 49278 49323 49343 49381 49409 49437 49457 49471 49510 49477 49392 49351 49310 49246 49148 49138 49054 49069 49210 49362 49507 49672 49814 49910 49924 50030 50117 50293 50579 50846 51039 51198 51282 51295 51315 51255 51164 51103 50968 50784 50658 50443 50255 50029 49876 49774 49653 49529 49413 49180 48881 48613 48370 48124 47902 47727 47572 47407 47293 47254 47175 47093 47003 46943 46880 46863 46752 46575 46454 46442 46566 46805 47099 47313 47429 47505 47537 47602 47699 47773 47858 47980 48109 48194 48284 48361 48458 48536 48595 48658 48740 48804 48863 48923 48964 49024 49063 49101 49128 49168 49187 49204 49184 49142 49168 49138 49121 49114 49118 49118 49119 49095 49085 49081 49036 49068 49052 48979 48922 48930 48980 49074 49215 49272 49334 49422 49466 49526 49577 49621 49681 49737 49806 49837 49841 49838 49849 49862 49893 49902 49932 49925 49937 49982 50026 50041 50077 50101 50120 50127 50134 50077 49968 49890 49794 49540 49290 49096 48913 48712 48575 48456 48437 48399 48202 48234 48403 48426 48367 48182 47971 47755 47534 47328 47176 47016 46887 46741 46563 46369 46249 46181 46163 46133 46095 46049 46012 45905 45725 45549 45432 45252 45074 44919 44907 44952 44991 44996 44948 44833 44841 44874 44905 44993 45085 45095 45036 44951 44835 44764 44766 44798 44773 44788 44802 44728 44694 44774 44888 45239 45754 46446 46945 47053 47243 47387 47311 47217 47057 47018 47067 47145 46928 46860 46772 46684 46715 46850 47015 47143 47219 47220 47249 47273 47276 47288 47288 47287 47310 47302 47274 47295 47291 47298 47289 47237 47194 47149 47077 47004 46947 46945 46994 47021 47032 47060 47064 47047 47017 46993 46912 46826 46767 46711 46656 46587 46543 46517 46473 46506 46551 46610 46683 46680 46710 46640 46608 46548 46508 46456 46437 46351 46299 46307 46310 46328 46355 46427 46418 46348 46292 46203 46145 46115 46098 46151 46164 46214 46171 46260 46221 46232 46222 46241 46218 46133 46092 46139 46103 46065 46038 46038 46050 46071 46070 46139 46095 46108 46037 46035 45998 46010 46013 46006 46012 46034 46059 46078 46098 46118 46162 46104 46093 46218 46240 46289 46356 46367 46392 46400 46476 46438 46487 46500 46393 46385 46285 46271 46266 46232 46257 46265 46290 46350 46406 46477 46495 46526 46537 46543 46544 46463 46567 46485 46578 46538 46613 46615 46619 46618 46606 46620 46576 46537 46497 46473 46474 46454 46434 46432 46456 46439 46473 46499 46520 46558 46549 46481 46435 46407 46417 46461 46469 46393 46321 46340 46400 46399 46501 46644 46924 47131 47206 47339 47332 47340 47541 47612 47693 47811 47741 47968 48050 48163 48227 48191 48172 48179 48242 48275 48369 48374 48285 48153 48005 47852 47741 47538 47457 47288 47222 47058 46925 46817 46691 46650 46699 46766 46788 46800 46834 46833 46811 46831 46868 46905 46927 46935 46965 47062 47185 47317 47463 47607 47719 47846 47931 47938 47956 47974 47936 47907 47848 47817 47786 47788 47773 47765 47778 47817 47864 47925 48035 48130 48207 48244 48301 48359 48440 48521 48596 48646 48712 48704 48477 48424 48537 48684 48758 48641 48414 48291 48244 48189 48228 48097 47946 47892 47920 47910 47948 48005 48071 48105 48089 48092 48056 47988 47934 47866 47799 47736 47680 47653 47669 47660 47576 47501 47464 47394 47326 47314 47302 47287 47244 47184 47091 47059 46949 46856 46832 46767 46771 46823 46797 46749 46637 46529 46485 46427 46361 46299 46281 46318 46317 46312 46332 46335 46176 46061 45959 45905 45920 45920 45998 46087 46133 46109 46102 46565 46484 46293 46274 46448 46618 46745 46831 46913 46999 47063 47129 47162 47187 47196 47138 46984 46848 46761 46663 46653 46672 46627 46615 46547 46697 47045 46921 46722 46590 46557 46545 46530 46574 46667 46733 46812 46868 46974 47084 47238 47317 47339 47319 47255 47170 47136 47046 46980 46904 46820 46783 46769 46770 46772 46802 46763 46664 46506 46388 46296 46288 46242 46212 46214 46194 46180 46183 46163 46172 46122 46104 46018 45966 45917 45924 45913 45901 45920 45930 45935 45947 45968 45969 45918 45877 45842 45825 45851 45876 45898 45915 45935 45942 45972 45996 46004 45940 45883 45842 45822 45832 45839 45835 45842 45851 45821 45763 45683 45595 45514 45368 45267 45200 45262 45312 45406 45482 45557 45639 45723 45778 45783 45767 45785 45780 45794 45813 45832 45861 45867 45913 45940 45964 45957 45878 45834 45804 45842 45856 45893 45882 45908 45927 45980 45988 46035 46000 45960 45906 45890 45869 45851 45833 45797 45767 45757 45739 45757 45746 45688 45648 45630 45631 45640 45670 45691 45727 45756 45789 45831 45865 45841 45799 45728 45673 45672 45661 45661 45671 45673 45691 45736 45793 45836 45840 45830 45785 45763 45756 45750 45728 45725 45726 45731 45776 45812 45784 45742 45702 45669 45661 45653 45648 45673 45682 45696 45707 45725 45735 45706 45652 45629 45612 45637 45644 45644 45634 45664 45679 45710 45716 45695 45631 45590 45542 45534 45517 45519 45527 45563 45572 45580 45550 45598 45547 45517 45481 45474 45472 45490 45482 45513 45517 45517 45530 45581 45581 45561 45532 45503 45485 45514 45513 45548 45549 45531 45540 45536 45513 45518 45469 45461 45417 45450 45447 45461 45456 45454 45446 45458 45507 45466 45386 45315 45299 45283 45288 45303 45295 45311 45361 45406 45399 45414 45367 45273 45247 45189 45168 45148 45140 45123 45112 45114 45106 45120 45088 45042 44997 44925 44915 44900 44925 44961 44988 44981 45005 45009 45011 44974 44910 44867 44830 44806 44816 44807 44815 44835 44840 44881 44913 44880 44815 44769 44705 44690 44709 44724 44711 44749 44817 44878 44930 44999 44977 44953 44955 44943 44952 44962 44979 45002 45056 45120 45156 45194 45184 45167 45124 45087 45089 45078 45080 45113 45111 45130 45146 45154 45242 45232 45155 45105 45084 45092 45153 45184 45194 45224 45217 45232 45277 45268 45211 45140 45084 45063 45077 45086 45083 45092 45104 45120 45183 45191 45131 45086 45080 45037 45029 45022 45013 45076 45061 45086 45091 45152 45189 45086 45094 45068 45081 45162 45170 45195 45204 45238 45267 45290 45372 45332 45321 45265 45211 45204 45207 45224 45218 45233 45264 45262 45324 45332 45319 45295 45207 45182 45222 45269 45356 45367 45429 45484 45533 45654 45632 45592 45586 45541 45519 45508 45519 45549 45559 45580 45582 45610 45605 45596 45544 45478 45445 45427 45416 45429 45419 45435 45462 45450 45522 45539 45550 45496 45431 45428 45458 45450 45459 45451 45452 45494 45499 45513 45516 45488 45421 45386 45359 45363 45374 45382 45403 45411 45404 45435 45448 45429 45370 45316 45280 45244 45250 45245 45229 45211 45198 45291 45300 45280 45193 45149 45111 45087 45099 45110 45098 45113 45140 45167 45178 45169 45112 45032 44979 44945 44943 44952 44954 44950 44968 44972 45005 44986 45001 44943 44903 44909 44915 44979 44993 45006 45021 45036 45053 45057 45029 45005 44764 44584 44302 44052 44171 44266 44397 44536 44693 44816 44868 44920 44977 45043 45114 45210 45268 45350 45399 45442 45504 45485 45392 45318 45282 45284 45349 45390 45445 45498 45540 45580 45609 45591 45585 45575 45569 45604 45653 45675 45740 45777 45827 45876 45864 45840 45808 45774 45795 45820 45854 45925 46003 46071 46092 46160 46190 46130 46103 46097 46103 46086 46106 46117 46127 46153 46173 46181 46147 46094 46057 46016 45992 45970 45989 46007 46059 46109 46138 46122 46092 46040 45998 45978 45983 46012 46063 46100 46144 46196 46218 46213 46136 46136 46100 46050 45942 45862 45775 45759 45760 45730 45731 45665 45595 45532 45485 45504 45544 45610 45631 45702 45727 45755 45772 45722 45660 45617 45665 45701 45742 45767 45772 45826 45846 45783 45719 45664 45628 45604 45640 45654 45680 45704 45762 45790 45872 45881 45888 45866 45838 45813 45822 45805 45788 45821 45796 45870 45921 45938 45974 45909 45882 45911 45945 45834 45595 45342 45171 45146 45085 45096 45115 45150 45172 45153 45175 45162 45191 45286 45365 45472 45611 45692 45729 45804 45849 45924 45965 46028 46116 46234 46376 46466 46472 46357 46229 46166 46063 46111 46260 46363 46491 46599 46701 46817 46865 46933 46959 46952 46971 46995 47015 47049 47106 47131 47155 47111 47106 47138 47167 47107 47074 47028 46974 46945 46908 46902 46966 46999 46815 46548 46377 46236 46024 45853 45874 46009 46123 46228 46220 46258 46075 46164 46199 46231 46254 46360 46373 46231 46217 46153 46112 46110 46085 46034 46005 45910 45771 45666 45629 45620 45623 45606 45604 45584 45565 45567 45529 45539 45480 45417 45393 45349 45330 45362 45449 45494 45519 45597 45628 45569 45486 45427 45386 45420 45463 45464 45420 45362 45428 45416 45583 45385 45369 45415 45533 45566 45513 45633 45747 45846 46014 46068 46134 46164 46248 46325 46399 46459 46507 46544 46595 46659 46716 46776 46855 46902 46976 47031 47032 47072 47103 47140 47152 47187 47223 47253 47294 47320 47354 47313 47247 47179 47162 47134 47123 47130 47129 47162 47153 47163 47131 47097 47080 47054 47041 47022 47024 46992 47017 47016 47003 47012 47004 46971 46979 46959 46972 46985 46993 47000 47006 47015 47031 47011 46947 46899 46829 46845 46767 46763 46771 46763 46749 46730 46689 46635 46481 46385 46227 46411 46254 46247 46318 46362 46420 46384 46477 46356 46341 46351 46384 46398 46452 46496 46579 46648 46755 46852 46848 46872 46785 46693 46507 46267 46056 45879 45840 45891 45927 46009 46018 45997 45951 45951 45963 45965 45983 46008 46003 46046 46139 46148 46298 46311 46287 46271 46292 46320 46329 46356 46369 46412 46417 46393 46306 46247 46242 46268 46290 46306 46350 46363 46411 46417 46408 46374 46326 46277 46273 46296 46315 46348 46400 46415 46441 46499 46462 46395 46353 46355 46305 46315 46299 46289 46274 46260 46255 46193 46037 45926 45856 45882 45928 45979 46021 46045 46066 46118 46149 46087 46039 46000 45990 45983 45992 46000 46008 46032 46008 46016 46005 45980 45945 45865 45896 45906 45935 45993 45987 46008 46023 46061 46042 45965 45912 45896 45877 45951 45974 45992 46026 46037 46053 46061 46012 45972 45980 46011 46030 46051 46069 46115 46148 46179 46229 46187 46102 46049 45984 45983 45970 46003 45998 45999 46019 46021 46027 46002 45945 45888 45918 45905 45943 45952 45992 46007 46003 46025 46025 45973 45914 45844 45855 45822 45853 45808 45844 45900 45897 45932 45892 45842 45819 45830 45820 45840 45860 45887 45914 45926 45945 45986 45923 45881 45832 45815 45819 45864 45893 45927 45903 45973 46010 46011 45984 45937 45949 45967 46018 46040 46031 46041 46047 46064 46068 46050 45993 45970 45982 45985 46001 46027 46083 46100 46090 46103 46138 46092 46090 46041 46064 46058 46092 46101 46104 46094 46101 46130 46136 46139 46096 46102 46103 46138 46179 46211 46240 46260 46335 46346 46310 46218 46173 46181 46116 46112 46162 46180 46183 46195 46261 46264 46254 46198 46191 46160 46217 46232 46244 46301 46315 46328 46295 46211 46143 46068 46023 46056 46103 46134 46151 46147 46207 46226 46176 46139 46101 46120 46101 46091 46098 46072 46083 46104 46158 46161 46100 46088 46120 46119 46117 46162 46176 46152 46171 46204 46168 46133 46119 46157 46126 46159 46184 46160 46164 46177 46232 46193 46108 46033 46022 46052 46080 46084 46100 46132 46161 46172 46067 46103 46001 45999 45980 45983 46021 46017 46064 46100 46133 46085 46035 46007 46037 46001 46008 46012 46025 46050 46056 46071 45984 45950 45923 45935 45937 45964 46052 46100 46160 46192 46185 46184 46209 46150 46090 46035 46114 46114 46165 46148 46287 46274 46239 46191 46137 46250 46228 46286 46275 46369 46345 46402 46355 46238 46154 46189 46209 46247 46251 46288 46315 46363 46463 46528 46493 46480 46496 46461 46489 46451 46451 46461 46531 46589 46622 46596 46567 46577 46566 46580 46563 46580 46645 46631 46679 46688 46708 46622 46578 46546 46548 46574 46567 46563 46601 46618 46614 46603 46594 46545 46525 46550 46562 46563 46577 46581 46589 46622 46643 46590 46564 46521 46522 46500 46494 46419 46393 46412 46414 46411 46293 46149 46055 45971 45981 46009 46080 46118 46185 46206 46253 46226 46208 46141 46152 46201 46150 46215 46187 46247 46175 46273 46227 46248 46169 46196 46129 46195 46223 46247 46236 46345 46309 46369 46311 46308 46211 46256 46255 46276 46252 46277 46305 46337 46304 46318 46291 46232 46237 46206 46227 46222 46253 46296 46329 46302 46332 46309 46233 46249 46223 46218 46231 46238 46242 46261 46301 46313 46284 46253 46235 46194 46177 46174 46198 46242 46261 46278 46307 46288 46300 46282 46253 46247 46260 46295 46280 46303 46276 46284 46294 46304 46291 46242 46252 46234 46242 46231 46280 46311 46329 46384 46362 46388 46311 46307 46254 46266 46247 46278 46260 46273 46306 46292 46347 46284 46256 46252 46187 46189 46201 46211 46227 46224 46257 46301 46260 46258 46211 46183 46184 46203 46231 46261 46297 46319 46354 46360 46308 46206 46173 46132 46190 46206 46237 46281 46301 46349 46366 46340 46284 46236 46264 46297 46357 46397 46367 46420 46431 46443 46379 46304 46285 46273 46262 46309 46321 46321 46407 46436 46495 46454 46413 46377 46370 46358 46365 46351 46375 46375 46410 46426 46420 46365 46350 46339 46347 46341 46364 46346 46363 46361 46397 46421 46445 46362 46321 46295 46321 46341 46373 46343 46388 46420 46449 46431 46401 46345 46314 46319 46303 46298 46317 46342 46383 46393 46389 46373 46306 46225 46211 46201 46173 46173 46193 46244 46245 46252 46295 46220 46195 46139 46149 46147 46168 46172 46164 46212 46211 46203 46121 46088 46013 46001 46005 46019 46032 46021 46047 46070 46078 46014 45961 45911 45889 45871 45860 45831 45839 45833 45832 45864 45863 45796 45726 45751 45750 45731 45757 45776 45771 45773 45794 45746 45652 45592 45561 45530 45547 45560 45585 45637 45676 45675 45664 45629 45586 45581 45553 45537 45550 45535 45556 45538 45557 45524 45448 45407 45409 45414 45451 45452 45533 45576 45626 45666 45627 45579 45542 45526 45509 45554 45625 45619 45613 45638 45680 45668 45622 45612 45606 45616 45611 45689 45686 45705 45695 45715 45718 45672 45628 45599 45603 45626 45651 45664 45702 45758 45823 45841 45816 45798 45798 45742 45726 45776 45767 45775 45779 45813 45799 45781 45723 45717 45716 45722 45749 45770 45757 45815 45798 45825 45798 45736 45714 45671 45650 45641 45689 45684 45775 45795 45836 45856 45817 45794 45770 45797 45776 45824 45859 45887 45898 45945 45970 45946 45898 45894 45824 45813 45812 45797 45797 45817 45824 45871 45884 45839 45785 45755 45769 45793 45787 45828 45844 45870 45858 45868 45855 45788 45717 45749 45735 45725 45721 45742 45800 45829 45841 45905 45851 45808 45727 45687 45697 45672 45697 45684 45707 45755 45789 45809 45738 45686 45620 45620 45583 45569 45581 45607 45657 45634 45688 45695 45628 45540 45498 45511 45516 45563 45582 45599 45629 45690 45699 45641 45611 45580 45540 45553 45545 45551 45573 45538 45550 45549 45480 45407 45378 45361 45347 45336 45376 45379 45419 45447 45485 45546 45517 45487 45448 45426 45479 45481 45493 45508 45525 45383 45233 45221 45228 45253 45294 45319 45371 45391 45418 45451 45488 45486 45496 45544 45522 45505 45503 45471 45396 45320 45300 45386 45482 45409 45365 45269 45113 45081 45109 45215 45194 45229 45276 45371 45466 45513 45549 45602 45606 45616 45728 45763 45771 45706 45729 45737 45804 45970 46155 46369 46473 46524 46564 46618 46675 46729 46769 46803 46848 46912 46898 46871 46798 46698 46664 46727 46789 46919 47005 47102 47179 47252 47346 47370 47379 47333 47323 47373 47351 47361 47300 47183 47110 47072 47009 46991 46841 46723 46613 46613 46625 46579 46561 46596 46599 46550 46471 46411 46278 46180 46078 46035 46011 46015 46016 46016 46004 46012 46017 45963 45825 45796 45791 45774 45754 45747 45706 45707 45697 45732 45717 45651 45590 45526 45540 45538 45526 45434 45441 45476 45507 45524 45529 45465 45434 45421 45381 45369 45317 45322 45317 45342 45420 45436 45335 45325 45343 45351 45354 45391 45408 45460 45473 45532 45561 45558 45519 45463 45433 45474 45444 45551 45553 45634 45619 45655 45668 45614 45577 45504 45510 45498 45501 45572 45574 45631 45635 45671 45693 45642 45582 45646 45618 45640 45704 45778 45753 45795 45832 45859 45856 45813 45802 45797 45787 45765 45760 45790 45806 45869 45871 45869 45869 45798 45736 45730 45739 45743 45769 45749 45790 45810 45826 45822 45791 45746 45710 45687 45718 45719 45743 45741 45723 45708 45735 45728 45679 45632 45645 45618 45644 45612 45659 45647 45666 45701 45719 45698 45640 45584 45545 45552 45507 45507 45474 45484 45506 45501 45546 45556 45535 45484 45443 45441 45471 45528 45566 45576 45584 45605 45621 45606 45509 45457 45428 45395 45416 45413 45406 45404 45427 45430 45451 45412 45409 45349 45328 45317 45340 45349 45325 45342 45349 45361 45366 45266 45233 45208 45192 45221 45235 45253 45295 45333 45343 45197 45121 45054 45125 45162 45148 45162 45224 45295 45361 45379 45396 45424 45471 45430 45357 45318 45324 45339 45349 45375 45396 45421 45449 45442 45425 45359 45351 45322 45310 45337 45323 45366 45347 45405 45454 45505 45487 45451 45448 45429 45443 45454 45473 45492 45522 45533 45565 45560 45532 45462 45413 45394 45387 45461 45500 45567 45624 45650 45673 45690 45667 45578 45540 45510 45498 45484 45507 45508 45517 45500 45543 45623 45621 45635 45614 45692 45732 45758 45791 45866 45936 45965 45993 46003 45978 45905 45844 45814 45814 45815 45878 45879 45882 45929 45968 45997 45995 45928 45876 45842 45842 45828 45821 45835 45816 45846 45858 45885 45856 45821 45819 45769 45744 45743 45751 45746 45781 45801 45793 45789 45794 45740 45666 45662 45652 45676 45676 45705 45756 45793 45826 45847 45843 45802 45768 45722 45733 45759 45755 45789 45817 45839 45863 45882 45931 45851 45824 45804 45803 45802 45846 45834 45858 45873 45870 45911 45921 45891 45819 45786 45758 45763 45765 45759 45780 45805 45809 45849 45855 45895 45818 45797 45784 45791 45781 45757 45845 45858 45921 45890 45926 45980 45970 45911 45861 45828 45889 45871 45894 45927 45988 45964 45819 45254 45765 46206 46284 46283 46222 46225 46261 46318 46346 46418 46369 46472 46522 46618 46717 46810 46838 46743 46813 46846 46854 46891 46853 46863 46897 46917 46949 46875 46815 46770 46732 46756 46720 46713 46728 46751 46752 46724 46737 46694 46613 46552 46541 46470 46500 46509 46525 46521 46537 46480 46426 46348 46321 46267 46224 46198 46239 46281 46370 46439 46526 46620 46645 46666 46670 46637 46676 46702 46783 46837 46902 46960 46984 47004 46996 47025 46968 46958 46918 46876 46827 46808 46821 46858 46842 46853 46746 46873 46790 46809 46689 46659 46625 46604 46591 46530 46477 46514 46471 46380 46164 46089 46068 46121 46206 46208 46231 46190 46202 46272 46264 46317 46322 46230 46111 46016 45986 45991 46014 45999 46037 46098 46122 46175 46212 46190 46130 46065 46008 45938 45928 45915 45923 45978 46020 46033 46026 45993 45959 45942 45939 45917 45936 45928 45955 45957 45977 45982 46025 46068 46070 46007 45968 45946 45964 45978 45997 46025 46044 46119 46109 46157 46170 46101 46045 45986 45921 45869 45911 45966 45979 46028 46056 46091 46124 46168 46132 46093 46021 45980 45985 45991 45978 45978 46022 46030 46025 46058 46086 46086 46088 46090 46064 46041 46004 45927 45830 45690 45629 45628 45685 45701 45663 45624 45650 45632 45801 45850 45904 46006 46055 46107 46098 46290 46263 46223 46145 46183 46177 46148 46225 46254 46255 46296 46355 46455 46478 46444 46455 46446 46338 46405 46405 46402 46409 46391 46451 46398 46408 46387 46324 46256 46223 46195 46153 46060 45969 45953 46055 46107 46191 46272 46346 46350 46379 46408 46401 46366 46420 46435 46458 46515 46540 46545 46537 46492 46397 46359 46337 46320 46290 46280 46300 46290 46310 46317 46239 46175 46108 46097 46036 46020 45992 45970 45997 45978 45997 45991 45929 45855 45839 45772 45761 45763 45762 45782 45803 45804 45808 45862 45791 45733 45689 45638 45670 45661 45690 45648 45694 45745 45731 45770 45749 45652 45602 45548 45557 45576 45597 45639 45656 45689 45719 45738 45783 45732 45712 45675 45702 45747 45817 45849 45876 45898 45942 45950 46008 45985 45997 46032 46020 46139 46113 46231 46234 46260 46305 46342 46382 46415 46371 46324 46312 46294 46324 46336 46367 46405 46424 46532 46528 46538 46514 46479 46435 46436 46465 46510 46557 46524 46619 46614 46665 46704 46768 46708 46671 46527 46530 46642 46732 46735 46715 46760 46761 46791 46798 46863 46911 46909 46950 46963 46990 46971 47048 47008 47124 47033 47137 47169 47170 47204 47136 47153 47130 47099 47102 47076 47061 47077 47057 47096 47074 46970 46918 46855 46847 46785 46808 46796 46766 46787 46785 46786 46791 46674 46575 46496 46434 46387 46378 46359 46321 46361 46381 46418 46374 46401 46291 46231 45984 45542 45545 45674 45858 45979 46075 46170 46162 46062 45913 45927 45972 46017 45914 46015 46254 46326 46385 46428 46417 46347 46238 46061 46012 46073 46197 46304 46427 46535 46580 46661 46738 46715 46698 46677 46681 46694 46690 46695 46694 46691 46706 46752 46805 46759 46665 46554 46508 46432 46422 46442 46452 46507 46566 46625 46744 46800 46772 46691 46580 46514 46452 46491 46531 46590 46662 46714 46794 46854 46876 46802 46746 46665 46609 46611 46584 46552 46551 46531 46487 46452 46462 46397 46303 46232 46143 46114 46054 46035 46018 46010 45972 45952 46027 45931 45904 45827 45751 45682 45654 45592 45630 45717 45777 45837 45927 45918 45858 45756 45615 45592 45607 45642 45677 45710 45722 45782 45819 45877 45917 45964 45940 45889 45860 45851 45870 45902 45913 45920 45944 45953 45997 46019 46020 45919 45848 45806 45790 45801 45775 45740 45752 45755 45794 45812 45849 45891 45863 45868 45853 45848 45861 45865 45888 45934 45955 45993 46039 46041 46024 46025 45982 45879 45832 45932 45957 45966 46019 46109 46188 46195 46221 46206 46157 46208 46162 46125 46124 46153 46199 46231 46284 46322 46388 46363 46264 46224 46178 46181 46257 46338 46418 46474 46542 46576 46601 46657 46622 46605 46564 46525 46514 46492 46491 46494 46551 46569 46581 46695 46709 46711 46631 46583 46580 46607 46633 46674 46717 46764 46768 46859 46853 46845 46782 46739 46725 46735 46720 46721 46759 46751 46773 46789 46822 46797 46719 46625 46548 46471 46481 46476 46484 46498 46510 46540 46536 46558 46519 46468 46415 46385 46369 46374 46368 46398 46423 46364 46411 46366 46307 46258 46151 46123 46118 46153 46147 46138 46158 46170 46203 46258 46217 46217 46156 46092 46089 46103 46134 46154 46149 46207 46207 46206 46238 46164 46104 46048 46038 46047 46089 46119 46188 46226 46250 46234 46287 46274 46251 46209 46181 46192 46183 46256 46292 46283 46349 46384 46389 46484 46386 46360 46306 46305 46349 46330 46379 46383 46378 46474 46484 46532 46546 46498 46447 46411 46407 46399 46396 46426 46419 46452 46460 46450 46538 46514 46445 46397 46362 46313 46317 46291 46293 46248 46299 46309 46318 46386 46324 46384 46307 46294 46335 46278 46356 46328 46357 46377 46408 46460 46421 46390 46315 46249 46238 46218 46223 46251 46276 46336 46346 46365 46393 46383 46311 46233 46219 46173 46150 46163 46188 46219 46210 46216 46212 46248 46185 46119 46111 46113 46141 46123 46140 46174 46172 46255 46236 46288 46243 46167 46148 46093 46066 46067 46094 46124 46200 46198 46240 46257 46268 46265 46200 46130 46123 46134 46141 46147 46161 46215 46270 46479 46600 46700 46705 46666 46732 46632 46649 46674 46711 46717 46751 46752 46845 46791 46750 46672 46625 46553 46590 46557 46588 46580 46643 46622 46683 46646 46672 46626 46582 46673 46723 46700 46839 46798 46811 46808 46757 46742 46779 46843 46780 46770 46817 46782 46844 46717 46709 46678 46693 46718 46846 46788 46757 46713 46722 46610 46663 46670 46687 46668 46517 46539 46570 46653 46635 46669 46636 46678 46671 46736 46837 46873 46909 46917 46924 46913 46881 46815 46763 46773 46783 46817 46847 46881 46878 46885 46899 46874 46807 46756 46708 46733 46669 46672 46676 46653 46652 46694 46684 46639 46572 46544 46535 46562 46528 46573 46580 46697 46702 46743 46722 46660 46608 46559 46447 46202 46186 46259 46364 46517 46611 46683 46676 46583 46574 46595 46645 46606 46620 46699 46738 46736 46767 46760 46710 46653 46685 46731 46692 46774 46801 46912 46906 47044 46976 46963 46912 46907 46893 46888 46892 46939 47007 47034 47120 47122 47142 47107 47144 47156 47269 47327 47352 47421 47411 47474 47475 47446 47368 47390 47426 47443 47466 47486 47477 47489 47560 47558 47505 47468 47421 47248 47128 47127 47177 47200 47254 47200 47323 47335 47279 47041 46793 46716 46526 46477 46514 46537 46534 46600 46659 46647 46584 46484 46429 46429 46428 46381 46389 46408 46486 46545 46574 46561 46485 46527 46575 46587 46594 46561 46499 46569 46644 46681 46659 46713 46711 46752 46781 46795 46771 46751 46754 46759 46789 46751 46760 46755 46754 46788 46758 46788 46736 46775 46727 46748 46676 46576 46483 46488 46466 46457 46299 46320 46398 46538 46630 46643 46692 46684 46679 46672 46618 46631 46644 46633 46583 46496 46325 46328 46391 46513 46588 46628 46677 46713 46750 46730 46639 46528 46522 46494 46436 46536 46542 46507 46662 46597 46751 46602 46632 46421 46534 46382 46446 46359 46408 46335 46383 46347 46324 46177 46117 46158 46167 46152 46109 46076 46059 45990 45953 45848 45734 45674 45640 45621 45583 45537 45526 45577 45618 45608 45615 45510 45448 45419 45341 45367 45399 45421 45456 45540 45632 45548 45611 45737 45800 45852 45985 46052 46032 46098 46139 46210 46193 46232 46196 46271 46359 46429 46475 46537 46627 46755 46831 46906 46992 47032 47161 47164 47273 47335 47432 47398 47419 47443 47459 47505 47501 47424 47415 47402 47526 47567 47579 47603 47648 47659 47548 47509 47443 47536 47472 47471 47501 47524 47499 47519 47532 47569 47470 47442 47332 47440 47378 47367 47316 47369 47366 47377 47299 47243 47141 47074 47002 47039 46985 47015 47036 47019 46965 46856 46709 46656 46639 46641 46590 46627 46631 46608 46635 46609 46602 46489 46455 46412 46366 46354 46359 46329 46384 46419 46464 46422 46413 46392 46404 46395 46472 46496 46527 46590 46659 46605 46513 46457 46383 46419 46413 46388 46320 46214 46192 46091 46041 45921 45833 45767 45697 45694 45743 45834 45944 46028 46038 46076 46050 45960 45965 46000 46082 46102 46153 46172 46229 46249 46243 46209 46176 46192 46201 46221 46294 46351 46402 46497 46551 46532 46442 46404 46377 46398 46401 46416 46483 46531 46571 46661 46615 46541 46485 46450 46445 46450 46430 46445 46438 46477 46415 46333 46222 46162 46174 46199 46281 46286 46308 46335 46395 46344 46240 46140 46121 46094 46089 46099 46146 46171 46213 46251 46201 46095 46014 45972 45966 45929 45926 45906 46018 45979 46021 45902 45793 45768 45738 45766 45850 45866 45946 45941 46005 45966 45873 45787 45685 45694 45698 45709 45768 45795 45912 45927 45968 45818 45788 45772 45742 45723 45774 45819 45812 45915 45879 45882 45702 45713 45678 45666 45687 45695 45751 45831 45845 45900 45932 45924 45955 45933 46004 46082 46089 46173 46253 46255 46349 46394 46335 46366 46330 46398 46448 46416 46433 46463 46472 46572 46586 46559 46633 46670 46685 46724 46769 46776 46809 46921 46879 46840 46794 46848 46812 46837 46867 46786 46799 46800 46802 46756 46749 46679 46699 46686 46689 46702 46746 46813 46830 46785 46715 46719 46649 46639 46654 46680 46730 46741 46741 46768 46724 46628 46591 46568 46562 46502 46525 46579 46535 46576 46548 46412 46323 46232 46194 46178 46178 46217 46228 46230 46201 46199 46124 46148 46166 46125 46044 45981 45978 46053 46097 46036 45950 45916 45940 45960 45987 46082 46126 46104 46095 46012 46004 45948 45966 45975 45963 46002 45995 46019 46003 45976 46023 45893 45900 45791 45954 45920 46055 46119 46131 46211 46248 46256 46311 46446 46651 46746 46887 47039 47196 47255 47147 47155 47060 47143 47191 47291 47302 47358 47376 47293 47213 47209 47160 47183 47218 47296 47204 47300 47345 47292 47237 47227 47268 47235 47283 47377 47394 47464 47485 47520 47480 47482 47536 47479 47515 47571 47582 47587 47625 47595 47535 47556 47567 47579 47583 47576 47626 47645 47547 47518 47414 47440 47450 47459 47434 47405 47453 47472 47438 47292 47317 47266 47222 47190 47205 47172 47228 47263 47190 47182 47083 47102 47089 47069 47110 47108 47151 47258 47186 47124 47160 47125 47152 47160 47215 47193 47263 47269 47260 47118 47107 47066 47106 47111 47132 47141 47132 47080 46986 46999 47016 47015 47020 47007 47025 47024 46988 46964 46912 46831 46759 46630 46639 46629 46712 46771 46812 46775 46749 46708 46529 46124 45859 45861 45936 46030 46123 46222 46228 46250 46280 46250 46267 46268 46299 46337 46373 46402 46410 46436 46446 46449 46508 46548 46660 46729 46813 46869 46828 46962 46905 46979 47074 47131 47179 47254 47212 47277 47235 47174 47099 47084 47134 47135 47146 47128 47194 47110 47017 46932 46906 46783 46809 46760 46722 46659 46645 46647 46519 46398 46319 46358 46312 46360 46353 46389 46360 46348 46237 46057 45958 45930 45925 45959 45979 45985 45975 45891 45752 45592 45584 45587 45615 45630 45667 45675 45716 45752 45603 45563 45470 45465 45462 45478 45510 45535 45566 45565 45438 45321 45267 45260 45303 45359 45379 45450 45484 45509 45413 45392 45314 45332 45352 45390 45476 45500 45553 45582 45522 45499 45445 45514 45517 45601 45626 45717 45759 45779 45736 45705 45684 45766 45807 45828 45871 45918 45963 45918 45838 45799 45824 45856 45895 45985 46003 46064 46063 46118 46089 46031 46123 46110 46107 46096 46166 46185 46196 46194 46112 46033 46061 46086 46195 46235 46290 46337 46367 46394 46364 46351 46333 46358 46425 46466 46514 46503 46501 46443 46438 46449 46391 46493 46513 46573 46511 46562 46523 46470 46425 46384 46418 46473 46509 46568 46622 46656 46657 46566 46507 46487 46450 46436 46470 46472 46477 46571 46532 46500 46426 46401 46385 46399 46460 46445 46454 46479 46437 46330 46296 46268 46270 46285 46300 46397 46395 46461 46368 46357 46297 46277 46277 46276 46403 46366 46390 46427 46387 46297 46251 46257 46316 46331 46361 46396 46405 46414 46447 46381 46334 46285 46423 46438 46424 46440 46490 46517 46528 46473 46447 46428 46421 46383 46386 46286 46144 45985 45832 45777 45719 45784 45795 45700 45638 45729 45875 45982 46068 46161 46184 46203 46163 46247 46222 46287 46284 46360 46380 46413 46495 46512 46542 46581 46624 46707 46758 46934 47060 47154 47275 47365 47440 47548 47651 47699 47754 47801 47932 47901 48046 48077 48036 48026 48179 48243 48286 48332 48366 48513 48478 48391 48327 48321 48336 48323 48331 48324 48244 48348 48373 48336 48352 48268 48191 48317 48339 48366 48413 48404 48439 48377 48349 48340 48336 48311 48272 48292 48299 48354 48385 48417 48405 48386 48359 48333 48263 48220 48224 48241 48223 48260 48271 48282 48265 48222 48251 48222 48216 48162 48235 48212 48285 48291 48289 48267 48243 48228 48192 48126 48112 48146 48070 47973 47926 47838 47712 47657 47634 47686 47509 47600 47587 47568 47547 47495 47378 47309 47218 47083 47017 46924 46424 46317 46370 46372 46485 46636 46737 46758 46700 46652 46623 46674 46682 46714 46730 46705 46744 46619 46445 46362 46344 46340 46402 46471 46560 46630 46676 46770 46780 46735 46732 46776 46792 46810 46815 46829 46866 46914 46950 47056 47068 47112 47180 47233 47294 47333 47388 47405 47445 47421 47445 47351 47260 47146 47035 46946 46850 46827 46780 46839 46872 46781 46762 46703 46759 46780 46770 46763 46811 46859 46896 46942 46956 46954 46899 46890 46747 46657 46622 46627 46686 46666 46700 46700 46692 46618 46574 46492 46490 46472 46415 46526 46512 46581 46637 46632 46588 46514 46492 46518 46593 46595 46655 46743 46834 46844 46926 46914 46873 46824 46805 46812 46879 46889 46876 46894 46959 46929 46881 46806 46764 46762 46766 46792 46834 46879 46922 46960 46953 46951 46889 46877 46895 46875 46867 46878 46847 46863 46846 46850 46829 46769 46760 46809 46792 46781 46784 46796 46821 46816 46842 46765 46661 46650 46552 46592 46653 46664 46653 46704 46734 46778 46739 46675 46643 46600 46602 46591 46599 46627 46634 46650 46694 46606 46529 46470 46541 46515 46583 46597 46601 46630 46655 46682 46642 46581 46484 46542 46590 46568 46669 46672 46707 46685 46767 46790 46696 46710 46699 46692 46762 46795 46867 46973 46947 47002 46898 46865 46818 46771 46785 46793 46860 46792 46800 46854 46823 46803 46752 46766 46797 46734 46793 46827 46860 46857 46896 47000 46895 46870 46785 46794 46839 46891 46908 46904 46938 46950 46951 46782 46718 46600 46546 46561 46551 46561 46600 46572 46654 46612 46572 46497 46509 46422 46408 46351 46297 46273 46201 46233 46159 46134 46077 46101 46068 45984 45958 45946 45972 46093 46049 45957 45857 45844 45806 45836 45907 45935 45979 46012 46057 46035 46037 46017 45977 46020 46019 46023 46002 45983 46030 46026 46008 45907 45831 45767 45691 45600 45498 45537 45603 45704 45579 45447 45307 45295 45342 45382 45394 45296 45203 45176 45248 45316 45369 45361 45468 45525 45611 45766 45894 45958 46078 46094 46168 46272 46295 46245 46280 46341 46428 46511 46581 46631 46698 46766 46776 46878 46893 46970 47050 47157 47192 47255 47314 47385 47364 47417 47452 47516 47470 47392 47404 47541 47687 47866 48054 48177 48257 48343 48464 48559 48622 48594 48641 48656 48712 48722 48776 48737 48737 48798 48907 48861 48648 48550 48616 48601 48675 48744 48888 48935 49029 49061 49022 49123 49129 49083 49173 49196 49178 49182 49201 49167 49139 49111 49081 49160 49119 49053 48998 49004 48944 48900 48804 48763 48757 48809 48763 48805 48757 48803 48760 48690 48451 48510 48413 48461 48512 48535 48472 48555 48549 48560 48530 48348 48194 48004 47947 47947 47849 47764 47751 47784 47856 47763 47743 47644 47464 47515 47452 47450 47438 47527 47488 47519 47415 47411 47307 47350 47245 47196 47113 47046 47047 47058 47085 47086 47074 46994 46966 46864 46787 46728 46722 46639 46677 46592 46584 46577 46560 46473 46409 46445 46375 46369 46379 46376 46330 46299 46293 46346 46328 46160 46019 45997 45984 46036 46026 46003 45994 46039 45981 45986 45953 45999 45897 45900 45906 45919 45947 45901 45862 45854 45852 45826 45753 45693 45628 45690 45700 45717 45677 45753 45786 45831 45847 45828 45756 45786 45716 45773 45733 45734 45750 45786 45821 45905 45883 45831 45800 45804 45803 45841 45810 45804 45838 45830 45640 45633 45611 45652 45619 45644 45710 45757 45891 45914 45991 46065 46172 46250 46307 46387 46372 46382 46470 46496 46585 46651 46666 46736 46789 46824 46832 46923 46867 46845 46861 46911 46899 46996 47016 47066 47094 47114 47083 47046 47057 47074 47067 47066 47175 47117 47148 47156 47232 47167 47336 47251 47265 47225 47184 47185 47160 47157 47125 47168 47118 47084 47041 47023 46961 46952 46908 46865 46860 46938 46945 46991 47059 47112 47197 47178 47127 47176 47154 47297 47255 47305 47304 47372 47401 47384 47361 47396 47395 47404 47389 47416 47454 47490 47556 47535 47512 47617 47547 47546 47550 47508 47511 47539 47521 47567 47569 47603 47556 47543 47498 47482 47471 47488 47540 47494 47554 47576 47647 47664 47663 47644 47636 47637 47617 47636 47593 47492 47481 47480 47461 47344 47413 47373 47360 47349 47363 47322 47325 47348 47368 47409 47447 47450 47412 47404 47443 47409 47445 47439 47464 47479 47470 47506 47546 47450 47448 47441 47390 47417 47384 47395 47447 47395 47482 47434 47454 47467 47370 47378 47328 47325 47347 47331 47298 47332 47367 47362 47329 47325 47214 47189 47182 47210 47198 47227 47182 47260 47269 47251 47207 47143 47130 47037 47084 47103 47066 47139 47110 47106 47145 47137 47178 47059 47025 47032 46971 46950 46984 46953 46948 46895 46857 46834 46755 46630 46540 46519 46511 46531 46468 46498 46454 46477 46473 46473 46472 46358 46374 46307 46328 46299 46328 46386 46314 46404 46420 46407 46345 46385 46263 46219 46184 46225 46171 46294 46351 46244 46370 46372 46377 46350 46268 46245 46188 46125 46145 46130 46140 46166 46141 46206 46207 46193 46149 46063 46056 45989 46038 46068 46020 46034 46058 46084 46070 46141 46108 46011 45956 45898 45896 45921 45930 45906 45833 45877 45853 45836 45912 45906 45825 45713 45628 45641 45647 45684 45696 45648 45608 45467 45533 45597 45545 45634 45813 45817 45923 45952 46029 46093 46133 46294 46359 46532 46649 46661 46666 46635 46659 46665 46709 46886 46883 47013 47097 47205 47272 47257 47273 47300 47300 47270 47299 47269 47324 47329 47323 47416 47477 47486 47541 47567 47517 47440 47503 47478 47525 47500 47538 47524 47618 47601 47698 47776 47731 47647 47567 47612 47667 47709 47835 47915 47986 48078 48230 48326 48447 48470 48456 48459 48424 48386 48325 48266 48213 48158 48013 47793 47621 47529 47526 47626 47647 47769 47828 47977 48104 48194 48221 48346 48304 48373 48252 48226 48185 48078 47974 47991 47973 47908 47873 47778 47935 47903 47873 47606 47545 47472 47634 47487 47565 47527 47580 47564 47534 47562 47493 47535 47400 47295 47159 47079 47071 47046 47006 46957 46988 47015 47012 47033 46911 46847 46796 46797 46741 46723 46762 46782 46809 46899 46877 46923 46913 46882 46927 46820 46778 46694 46536 46463 46349 46130 46273 46230 46368 46440 46437 46522 46488 46491 46531 46476 46431 46332 46336 46302 46293 46352 46281 46353 46314 46286 46281 46306 46325 46362 46429 46433 46485 46501 46449 46448 46446 46459 46503 46566 46590 46688 46767 46764 46796 46623 46326 46150 46072 45983 46022 46073 46188 46259 46343 46359 46368 46337 46327 46415 46443 46556 46530 46597 46563 46477 46499 46582 46722 46821 46902 46947 46914 46987 46913 46871 46749 46726 46768 46777 46855 46844 46903 47018 47142 47184 47172 47084 47005 46949 46976 47054 47095 47202 47150 47201 47198 47117 47041 46916 46932 46922 46986 46994 47100 47132 47101 47111 47135 47211 47280 47288 47260 47203 47148 47048 47034 47043 47069 47033 47045 47022 46950 47067 47005 46996 46888 46761 46680 46624 46565 46560 46499 46483 46462 46446 46507 46438 46540 46509 46509 46544 46521 46563 46594 46595 46620 46615 46636 46650 46584 46654 46533 46476 46398 46391 46362 46391 46370 46467 46470 46494 46533 46520 46572 46496 46368 46295 46210 46211 46150 46118 46085 46073 46107 46112 46136 46276 46251 46192 46161 46169 46159 46154 46139 46184 46200 46180 46216 46228 46158 46133 46016 46038 46042 46059 46064 46081 46161 46211 46329 46347 46394 46338 46295 46216 46358 46233 46323 46364 46320 46437 46410 46543 46551 46620 46598 46505 46560 46496 46470 46419 46477 46537 46513 46497 46456 46418 46319 46255 46179 46185 46139 46151 46125 46175 46216 46255 46265 46294 46239 46223 46248 46185 46222 46207 46228 46193 46248 46232 46272 46270 46194 46176 46188 46201 46185 46211 46225 46287 46275 46341 46285 46283 46197 46194 46186 46262 46230 46281 46319 46344 46356 46419 46381 46328 46243 46181 46176 46108 46037 45931 45945 45922 46018 46125 46142 46128 46052 46007 46026 46049 46041 46043 46084 46140 46202 46222 46203 46155 46032 46003 46011 46074 46090 46079 46120 46102 46175 46203 46168 46098 46118 46144 46123 46137 46129 46148 46240 46406 46506 46620 46712 46834 46839 46987 47027 47123 47197 47234 47242 47260 47255 47265 47146 47153 47109 47090 47158 47178 47202 47261 47285 47332 47366 47366 47225 47227 47204 47183 47177 47154 47111 47187 47216 47226 47264 47245 47210 47227 47138 47198 47174 47166 47186 47245 47276 47363 47302 47317 47294 47255 47266 47319 47272 47270 47247 47252 47183 47211 47219 47225 47143 47163 47130 47094 47077 47114 47151 47195 47230 47264 47145 47148 47074 47006 46933 46969 46986 46956 46968 47027 47015 47063 47037 46977 46926 46911 46920 46938 46918 47010 47019 46979 46960 47088 46984 46875 46849 46817 46780 46848 46929 47194 47360 47656 48073 48465 48777 48999 49037 49078 49110 49187 49160 49268 49180 49186 49129 49200 49199 49224 49202 49257 49238 49292 49279 49264 49249 49339 49272 49231 49236 49246 49232 49204 49164 49132 49147 49190 49227 49142 49275 49253 49144 49093 49024 49014 49051 49028 48995 48976 48940 48942 48887 48845 48735 48572 48404 48315 48203 48173 48157 48114 48007 47899 47878 47817 47705 47561 47425 47292 47289 47247 47238 47231 47296 47298 47341 47308 47326 47334 47314 47201 47053 46912 46862 46835 47035 47018 47006 46857 46726 46558 46492 46469 46405 46332 46344 46346 46332 46335 46242 46136 45988 45902 45929 45914 45923 45999 46025 45993 46068 46042 45978 45781 45799 45705 45583 45481 45511 45527 45612 45638 45714 45744 45812 45749 45837 45757 45790 45828 45976 46017 46057 46005 45993 45991 46012 46042 46100 46126 46181 46188 46219 46184 46207 46259 46228 46287 46231 46407 46253 46346 46406 46486 46516 46599 46645 46704 46597 46497 46446 46453 46456 46502 46500 46574 46539 46611 46592 46556 46530 46492 46594 46536 46515 46500 46511 46511 46582 46619 46718 46756 46828 46825 46976 46961 46960 47043 47079 47038 46962 46872 46881 46821 46822 46841 46852 46938 47075 47016 47065 47030 46993 46874 46803 46683 46614 46690 46672 46637 46616 46648 46519 46647 46476 46519 46434 46603 46536 46455 46486 46448 46412 46323 46145 46131 46152 46153 46268 46338 46426 46492 46596 46585 46471 46230 46346 46302 46378 46373 46417 46453 46403 46443 46482 46338 46413 46434 46433 46456 46424 46464 46473 46494 46523 46464 46390 46379 46351 46399 46358 46442 46486 46471 46470 46414 46352 46343 46290 46361 46357 46436 46450 46475 46493 46448 46455 46344 46352 46311 46270 46377 46369 46416 46399 46447 46335 46344 46292 46319 46343 46372 46420 46469 46446 46406 46364 46226 46159 46144 46117 46174 46109 46101 46242 46219 46335 46314 46241 46193 46174 46163 46164 46203 46219 46267 46273 46274 46179 46152 46139 46131 46240 46260 46368 46363 46378 46325 46213 46170 46211 46186 46190 46310 46321 46441 46441 46519 46536 46474 46406 46377 46282 46207 46277 46280 46335 46344 46305 46225 46134 46200 46267 46338 46378 46439 46464 46481 46425 46304 46161 46165 46159 46221 46251 46324 46231 46342 46369 46281 46232 46195 46219 46143 46100 46132 46204 46252 46325 46248 46192 46147 46097 46095 46085 46102 46164 46186 46184 46098 46006 45895 45891 45902 46001 45996 46072 46050 46162 46104 45954 45966 45857 45798 45749 45663 45665 45646 45708 45789 45753 45722 45662 45600 45692 45708 45831 45832 45918 45869 45763 45688 45632 45666 45748 45768 45846 45853 45923 45886 45806 45727 45770 45763 45790 45753 45771 45789 45771 45874 45757 45726 45720 45679 45669 45562 45555 45559 45601 45574 45442 45379 45299 45284 45324 45511 45641 45785 45773 45777 45789 45788 45818 45824 45852 45898 45982 46041 46111 46147 46210 46192 46157 46192 46203 46135 46123 46100 46157 46187 46124 46072 46101 46054 46022 45996 46015 46044 46076 46081 45936 45940 45893 45913 45975 46045 46090 46200 46226 46211 46076 46021 45975 45969 46020 46037 46030 46139 46161 46034 45949 45846 45800 45835 45854 45817 45919 45905 45917 45802 45776 45698 45710 45955 46139 46439 46536 46578 46465 46340 46158 46094 46109 46034 45945 45902 45852 45880 45795 45640 45507 45489 45452 45472 45521 45496 45584 45543 45438 45244 45173 45156 45081 45017 44890 44870 44989 45058 45164 45221 45278 45308 45348 45435 45494 45560 45626 45629 45595 45503 45521 45569 45654 45737 45836 45848 46014 45864 45894 45790 45813 45879 45871 45993 45997 46052 46011 45880 45833 45806 45810 45880 45929 45940 45997 46042 46034 46014 45986 45956 45941 45990 46013 46015 45990 45955 45752 45651 45731 45937 46061 46195 46271 46271 46226 46012 46255 46285 46658 46782 46924 46903 46963 47097 47045 47089 47077 47069 47078 47089 47070 47141 47180 47240 47272 47347 47300 47231 47140 47072 47066 47058 46970 46893 46922 46933 46842 46712 46712 46629 46607 46550 46580 46616 46614 46570 46440 46333 46209 46186 46180 46138 46138 46133 46143 46047 45948 45857 45776 45816 45872 45908 45877 45928 45946 45819 45743 45572 45284 45069 44914 44794 44742 44723 44786 44757 44800 44786 44840 44910 45009 45099 45198 45333 45451 45548 45541 45524 45497 45471 45502 45575 45667 45790 45889 45972 46104 46336 46548 46723 46804 46856 46930 46962 46910 46867 46874 46954 47099 47181 47242 47319 47337 47382 47453 47610 47665 47836 47898 47950 48009 48048 48108 48134 48147 48113 48083 48093 48142 48149 48158 48151 48224 48183 48167 48121 48107 48098 48125 48173 48171 48209 48156 48183 48153 48114 48089 48088 48085 48083 48104 48141 48167 48199 48140 48013 47914 47861 47839 47828 47802 47821 47798 47835 47821 47691 47537 47419 47410 47465 47533 47601 47674 47686 47681 47642 47570 47527 47507 47532 47633 47754 47787 47864 47899 47888 47796 47814 47797 47830 47904 47938 48022 48023 47995 47998 47791 47653 47496 47452 47413 47369 47358 47301 47304 47272 47165 47043 46803 46673 46655 46740 46728 46692 46642 46603 46587 46550 46387 46283 46192 46123 46073 46019 45954 45905 45871 45906 45810 45676 45732 45746 46050 46229 46415 46581 46712 46810 46845 46803 46792 46827 46833 46876 46880 46900 46931 46973 47074 47030 47017 47020 47044 47168 47243 47254 47213 47189 47158 47093 46927 46784 46701 46679 46644 46584 46572 46506 46447 46369 46251 46157 46082 46033 46042 46124 46275 46527 46637 46733 46734 46702 46713 46738 46704 46750 46773 46823 46909 47016 46983 46921 46784 46714 46678 46633 46609 46572 46603 46636 46625 46520 46441 46338 46272 46207 46183 46133 46147 46180 46177 46072 45923 45844 45754 45723 45726 45694 45715 45739 45732 45658 45549 45453 45394 45423 45423 45471 45454 45500 45504 45489 45416 45385 45376 45354 45364 45372 45402 45472 45512 45583 45540 45504 45466 45479 45510 45566 45631 45665 45710 45707 45643 45547 45498 45422 45434 45438 45468 45488 45487 45527 45509 45384 45305 45284 45333 45346 45382 45419 45443 45495 45531 45452 45409 45420 45462 45532 45568 45676 45730 45836 45890 45912 45916 45910 45898 45948 45988 46048 46150 46227 46213 46256 46145 46218 46209 46183 46194 46257 46322 46425 46512 46559 46563 46493 46414 46351 46330 46295 46317 46326 46360 46361 46401 46342 46256 46201 46162 46169 46178 46190 46212 46247 46249 46220 46098 45965 45877 45849 45827 45787 45784 45796 45830 45866 45770 45677 45642 45629 45649 45735 45802 45887 45934 46020 46076 46022 45964 45919 45896 45970 45993 45964 45966 45969 45960 45873 45724 45653 45631 45640 45685 45711 45774 45789 45824 45809 45758 45667 45658 45637 45656 45656 45645 45643 45669 45661 45624 45482 45423 45372 45377 45436 45469 45521 45567 45613 45630 45582 45524 45556 45543 45600 45651 45701 45766 45806 45821 45746 45668 45582 45541 45537 45576 45603 45733 45773 45885 45894 45864 45848 46074 46251 46491 46649 46701 46669 46659 46550 46437 46302 46212 46145 46157 46184 46215 46264 46249 46318 46176 46148 46033 46028 46009 46028 46103 46287 46398 46617 46686 46664 46734 46720 46703 46757 46865 46916 46946 46964 46962 46849 46772 46672 46625 46589 46555 46610 46646 46686 46622 46499 46375 46328 46275 46299 46316 46321 46311 46302 46302 46202 46070 45983 45905 45894 45880 45902 45904 45916 45938 45850 45735 45659 45611 45651 45705 45746 45789 45810 45857 45862 45760 45727 45710 45714 45684 45683 45709 45755 45768 45727 45642 45580 45541 45565 45627 45678 45688 45742 45751 45772 45678 45634 45584 45528 45559 45584 45622 45630 45699 45673 45598 45468 45416 45388 45423 45483 45485 45518 45537 45541 45474 45354 45289 45262 45314 45331 45422 45455 45464 45514 45526 45488 45446 45444 45542 45569 45638 45710 45761 45805 45775 45665 45590 45563 45574 45578 45621 45713 45817 45865 45904 45816 45817 45810 45853 45902 45983 46039 46107 46196 46399 46640 46879 47044 47066 47123 47138 47114 47128 47055 47167 47213 47280 47345 47357 47438 47381 47400 47353 47340 47304 47164 47024 46937 46887 46935 47040 47186 47308 47351 47401 47353 47192 47002 47081 46946 47012 47056 46974 47125 47066 47043 47022 46904 46857 46794 46783 46716 46688 46648 46616 46586 46471 46365 46332 46330 46385 46347 46301 46299 46288 46221 46085 45962 45889 45848 45833 45765 45798 45831 45844 45813 45715 45736 45611 45695 45686 45771 45735 45839 45855 45881 45761 45667 45627 45598 45614 45628 45655 45641 45600 45588 45471 45409 45402 45369 45431 45482 45523 45584 45610 45572 45450 45336 45280 45311 45316 45374 45398 45404 45426 45421 45380 45280 45272 45300 45337 45392 45413 45489 45571 45615 45593 45578 45608 45566 45654 45766 45711 45869 45899 45911 45833 45778 45757 45733 45736 45759 45805 45869 45886 45922 45903 45791 45754 45729 45719 45763 45809 45814 45908 45921 45895 45828 45821 45801 45901 45934 46035 46062 46156 46177 46143 46098 46057 46036 46081 46093 46116 46176 46156 46251 46151 46113 46021 46020 46028 46027 46085 46124 46178 46219 46135 46020 45992 45922 45938 45940 45945 45999 45952 46202 46142 46050 46049 45953 46011 46037 46089 46184 46198 46227 46269 46129 46025 45987 45932 46033 46046 46070 46133 46064 46206 46110 45962 45973 45933 45949 46009 45977 46057 46045 46134 45984 45914 45800 45734 45690 45698 45688 45736 45769 45747 45755 45601 45500 45484 45506 45529 45567 45612 45629 45724 45681 45594 45481 45400 45455 45698 45953 46194 46393 46450 46312 46112 45914 45788 45726 45751 45754 45773 45767 45784 45749 45638 45511 45402 45365 45341 45350 45388 45363 45390 45366 45349 45191 45099 45097 45078 45160 45211 45264 45322 45355 45367 45235 45138 45082 45074 45108 45131 45148 45180 45209 45247 45163 44995 44848 45023 45123 45189 45404 45267 45543 45585 45636 45588 45383 45403 45385 45371 45393 45460 45481 45535 45534 45433 45255 45136 45109 45060 45103 45106 45151 45217 45245 45281 45159 45004 44972 44958 45023 45119 45191 45254 45313 45304 45216 45056 44912 44822 44799 44798 44804 44820 44826 44899 44902 44779 44707 44669 44713 44778 44834 44867 44959 45056 45169 45079 45019 44945 44922 44905 44939 45013 45127 45221 45321 45411 45399 45328 45189 45295 45298 45414 45615 45521 45838 45759 45872 45611 45615 45574 45597 45618 45700 45768 45818 45852 45810 45667 45529 45478 45436 45472 45498 45538 45567 45627 45614 45541 45384 45245 45157 45055 44962 44844 44813 44830 44838 44829 44892 44893 44969 45080 45239 45432 45565 45706 45783 45838 45878 45743 45617 45585 45672 45697 45762 45870 45964 46116 46118 45998 45820 45737 45660 45622 45602 45610 45656 45722 45754 45836 45753 45641 45590 45421 45569 45568 45882 45879 46030 45946 45947 45882 45752 45638 45624 45616 45593 45670 45628 45663 45610 45451 45325 45222 45195 45228 45290 45351 45387 45442 45467 45441 45284 45177 45114 45114 45188 45232 45265 45281 45370 45386 45352 45184 45092 45043 45056 45133 45149 45188 45263 45319 45355 45259 45167 45138 45165 45186 45258 45296 45379 45552 45607 45561 45500 45460 45427 45454 45428 45502 45565 45570 45557 45589 45514 45376 45335 45317 45314 45381 45409 45460 45562 45664 45730 45703 45644 45612 45622 45638 45694 45741 45879 45975 46044 46026 45941 45878 45864 45864 45878 45944 45928 46005 46014 46075 46020 45925 45833 45793 45779 45839 45832 45934 45937 45989 46035 45960 45931 45854 45888 45866 45864 45850 45859 45843 45888 45857 45767 45647 45620 45657 45719 45737 45748 45755 45781 45848 45841 45813 45704 45747 45798 46009 46036 46139 46230 46274 46283 46211 46113 46084 46038 46064 46147 46173 46224 46204 46294 46294 46284 46161 46108 46064 46063 46079 46083 46113 46098 46161 46175 46088 45948 45891 45827 45820 45859 45861 45857 45868 45920 45913 45841 45712 45639 45640 45637 45648 45700 45737 45814 45859 45911 45846 45799 45789 45818 45851 45904 45941 46003 46062 46139 46177 46164 46068 46035 46053 46061 46100 46146 46210 46219 46250 46312 46302 46216 46118 46085 46087 46140 46173 46226 46254 46294 46346 46381 46322 46242 46258 46242 46270 46289 46363 46428 46538 46625 46617 46529 46440 46378 46352 46430 46492 46604 46737 46807 46907 46945 46978 46875 46832 46769 46715 46731 46700 46716 46758 46772 46845 46859 46818 46711 46640 46590 46578 46553 46605 46644 46607 46653 46646 46647 46492 46402 46305 46254 46256 46239 46225 46175 45980 45888 45827 45805 45792 45749 45680 45699 45698 45722 45888 45976 46093 46148 46237 46308 46203 46086 46050 46036 46055 46068 46056 46044 46137 46130 46234 46177 46081 45998 45937 45931 45929 45952 45965 45959 45974 46024 45999 45935 45762 45687 45657 45761 45833 45974 45928 46157 46225 46215 46406 46402 46463 46323 46404 46424 46353 46302 46156 46065 46075 46039 45949 45749 45589 45482 45485 45349 45400 45570 45789 45942 46040 46194 46249 46332 46377 46294 46238 46205 46206 46226 46212 46280 46247 46321 46216 46328 46338 46267 46143 45970 46121 46082 46289 46327 46390 46542 46447 46587 46639 46615 46472 46450 46411 46459 46526 46520 46603 46633 46647 46693 46653 46617 46455 46280 46162 46041 46141 46081 46212 46181 46215 46271 46295 46366 46334 46403 46662 46764 46943 47073 47131 47340 47547 47747 47904 48036 48064 47943 47812 47694 47604 47563 47531 47504 47493 47455 47510 47528 47538 47519 47391 47298 47260 47228 47436 47690 47941 48056 48190 48299 48468 48603 48695 48738 48774 48763 48756 48745 48758 48770 48813 48902 48975 49050 49131 49159 49244 49328 49447 49517 49550 49578 49571 49566 49549 49546 49558 49549 49495 49491 49514 49560 49686 49829 49974 50094 50251 50416 50533 50613 50684 50764 50896 50988 50997 51015 50997 50956 50964 50953 50953 50968 50903 50850 50765 50599 50497 50420 50366 50280 50200 50124 50060 49834 49556 49343 49212 49130 49126 49128 49192 49161 49152 49176 49211 49230 49174 49088 48991 48895 48811 48738 48674 48606 48421 48305 48200 48016 47797 47547 47404 47297 47274 47258 47297 47353 47395 47466 47362 47233 47077 46979 46852 46723 46546 46401 46267 46200 46154 46098 45961 45752 45557 45476 45420 45414 45370 45327 45326 45361 45353 45297 45145 45051 44982 44973 44901 44853 44850 44849 44868 44870 44820 44813 44851 44866 44866 44919 44953 45031 45110 45081 45198 45210 45211 45148 45067 45055 45029 45035 44998 45019 44996 45081 45067 45088 45030 44997 45064 45041 45082 45111 45174 45214 45265 45283 45302 45211 45219 45209 45236 45249 45271 45270 45169 44985 44897 44914 44935 44948 44983 45027 45088 45203 45188 45276 45307 45392 45406 45392 45360 45387 45393 45386 45473 45512 45594 45622 45693 45756 45744 45662 45609 45649 45654 45716 45715 45771 45824 45853 45922 45959 46018 46081 46231 46380 46488 46625 46706 46781 46807 46885 46858 46759 46626 46489 46378 46327 46277 46250 46232 46184 46194 46230 46193 46065 45941 45906 45880 45846 45837 45832 45835 45855 45915 45935 45846 45762 45675 45691 45619 45682 45674 45706 45767 45831 45816 45761 45685 45599 45514 45517 45512 45555 45530 45587 45572 45622 45530 45383 45275 45284 45238 45301 45320 45388 45423 45419 45489 45492 45428 45329 45304 45338 45350 45393 45424 45469 45565 45598 45611 45532 45419 45348 45304 45323 45325 45355 45412 45446 45454 45485 45497 45379 45306 45303 45331 45375 45375 45417 45468 45483 45585 45552 45632 45557 45520 45452 45485 45514 45566 45584 45618 45628 45666 45664 45550 45441 45427 45439 45439 45463 45457 45524 45526 45548 45546 45458 45384 45294 45299 45305 45316 45392 45596 45629 45731 45771 45782 45751 45657 45692 45705 45748 45795 45799 45859 45895 45930 45962 45924 45921 45820 45797 45768 45839 45802 45837 45863 45899 45908 45931 45836 45740 45696 45653 45656 45692 45703 45745 45752 45775 45823 45800 45698 45601 45543 45508 45500 45558 45577 45514 45405 45335 45361 45216 45177 45136 45157 45275 45331 45338 45315 45271 45144 45189 45362 45359 45431 45500 45628 45718 45746 45804 45846 45947 46029 46135 46158 46231 46235 46116 45973 45950 46057 46233 46438 46565 46687 46700 46798 46821 46778 46760 46685 46671 46633 46613 46586 46600 46585 46550 46611 46655 46580 46465 46370 46271 46326 46328 46455 46430 46562 46607 46685 46720 46581 46499 46455 46445 46388 46396 46409 46395 46364 46380 46322 46225 46082 45871 45848 45718 45724 45708 45672 45662 45648 45720 45773 45705 45602 45498 45566 45507 45478 45367 45376 45446 45473 45512 45527 45588 45504 45368 45222 45174 45189 45197 45236 45180 45211 45236 45265 45323 45281 45173 45086 45032 44992 45032 45043 45092 45134 45209 45249 45303 45396 45319 45345 45255 45278 45285 45243 45155 45070 45048 45090 45223 45335 45424 45421 45315 45265 45290 45249 45379 45458 45536 45679 45695 45708 45759 45817 45760 45759 45714 45632 45585 45632 45685 45856 45980 46075 46151 46215 46224 46247 46199 46212 46186 46176 46194 46190 46269 46286 46363 46431 46451 46384 46281 46204 46165 46166 46197 46234 46259 46307 46336 46380 46485 46451 46385 46319 46333 46296 46247 46237 46257 46254 46288 46281 46308 46312 46274 46165 46059 45963 45934 45914 45906 45892 45908 45948 45988 45990 46013 45962 45828 45605 45339 45264 45141 45051 45037 45149 45283 45448 45598 45688 45707 45692 45554 45510 45509 45619 45745 45911 45922 45936 46000 46022 46129 46300 46479 46673 46844 46984 47156 47291 47413 47613 47849 48113 48217 48221 48234 48221 48264 48248 48250 48279 48553 48691 48837 48997 49079 49203 49342 49496 49594 49682 49782 49865 49890 49881 49840 49783 49723 49659 49614 49625 49616 49623 49611 49666 49709 49738 49704 49710 49690 49693 49672 49539 49406 49151 48929 48720 48546 48438 48308 48209 48094 47992 47895 47841 47706 47465 47211 47022 46860 46767 46711 46686 46647 46599 46526 46459 46412 46333 46104 45896 45755 45658 45572 45521 45479 45453 45421 45418 45417 45386 45250 45087 44956 44862 44827 44790 44733 44707 44678 44678 44664 44654 44577 44392 44269 44197 44169 44139 44103 44069 44063 44095 44118 44093 44008 43940 43919 43895 43913 43946 43978 44024 44035 44064 44068 44089 44072 44012 43881 43826 43783 43740 43698 43755 43756 43616 43592 43768 44034 44254 44384 44420 44393 44328 44305 44231 44139 44055 43993 43910 43860 43751 43642 43464 43320 43214 43108 43037 42936 42869 42795 42735 42682 42623 42511 42394 42334 42308 42298 42283 42278 42266 42279 42294 42317 42324 42286 42227 42207 42188 42204 42225 42238 42262 42273 42299 42318 42326 42290 42219 42178 42147 42157 42181 42231 42297 42404 42460 42581 42727 42889 42993 43046 43128 43272 43443 43653 43941 44066 44339 44735 45181 45497 45773 45997 46196 46390 46590 46775 46938 47110 47255 47420 47553 47673 47817 47935 48021 48016 47983 47968 47854 47899 47938 47973 48029 48136 48257 48353 48414 48443 48468 48472 48502 48536 48523 48521 48539 48593 48666 48736 48847 48961 49020 49082 49124 49176 49231 49278 49314 49351 49405 49432 49488 49511 49555 49592 49625 49620 49629 49656 49684 49681 49640 49597 49579 49552 49570 49530 49549 49514 49452 49398 49313 49265 49226 49199 49207 49213 49207 49148 49076 49007 48977 48979 48947 48938 48998 49095 49206 49311 49413 49503 49578 49614 49645 49675 49717 49764 49825 49852 49882 49925 49964 49940 49865 49803 49798 49832 49853 49891 49934 49976 49976 49988 50004 50015 50060 50076 50123 50166 50184 50219 50262 50285 50328 50364 50347 50318 50289 50260 50220 50194 50162 50134 50035 50019 50004 49941 49979 50026 50057 50067 50053 50060 50059 50081 50105 50119 50122 50146 50171 50189 50205 50241 50273 50272 50267 50253 50263 50268 50294 50295 50243 50070 49844 49631 49590 49514 49370 49183 48938 48709 48581 48420 48345 48309 48288 48286 48340 48378 48429 48470 48545 48565 48543 48520 48523 48544 48569 48592 48641 48691 48711 48749 48810 48849 48877 48906 48910 48881 48859 48851 48863 48896 48915 48951 48978 49016 49041 49067 49129 49158 49182 49200 49179 49156 49173 49162 49153 49168 49170 49176 49221 49248 49275 49312 49353 49349 49309 49248 49204 49180 49195 49180 49186 49185 49195 49215 49247 49276 49301 49339 49337 49312 49242 49218 49193 49184 49204 49224 49230 49246 49256 49286 49305 49339 49356 49395 49408 49353 49311 49290 49310 49307 49338 49338 49377 49372 49403 49452 49465 49495 49518 49499 49464 49422 49399 49410 49418 49420 49405 49435 49472 49493 49535 49568 49594 49590 49563 49474 49426 49409 49376 49375 49408 49410 49400 49301 49215 49048 48833 48686 48566 48463 48329 48169 48075 48071 48126 48178 48252 48290 48343 48388 48442 48491 48555 48591 48633 48664 48632 48621 48596 48593 48613 48640 48671 48702 48735 48782 48811 48863 48902 48926 48923 48904 48885 48886 48928 48954 48995 49019 49046 49069 49102 49127 49166 49214 49247 49239 49230 49203 49203 49217 49238 49264 49284 49314 49353 49381 49399 49427 49457 49504 49516 49497 49489 49464 49481 49483 49506 49527 49558 49581 49604 49626 49661 49682 49706 49733 49723 49667 49666 49661 49680 49686 49700 49730 49758 49778 49811 49857 49873 49894 49898 49882 49821 49811 49807 49812 49844 49862 49874 49908 49923 49952 49985 50015 50048 50063 50074 50021 49976 49974 49969 49988 50035 50028 50035 50063 50089 50115 50144 50157 50194 50210 50233 50203 50172 50161 50166 50126 49989 49748 49427 49195 49095 49020 48979 49076 49041 49065 49017 48986 48992 49009 49014 49029 49054 49081 49095 49120 49161 49201 49234 49278 49294 49291 49245 49237 49218 49245 49271 49296 49317 49333 49383 49409 49433 49462 49510 49541 49559 49543 49520 49502 49516 49526 49552 49565 49600 49630 49661 49687 49707 49741 49775 49813 49814 49805 49783 49812 49806 49843 49858 49884 49914 49927 49940 49971 49993 50030 50053 50060 50045 50015 49991 49994 49985 50025 50029 50023 50052 50081 50096 50121 50160 50155 50179 50196 50171 50136 50131 50124 50133 50133 50158 50172 50188 50204 50222 50240 50271 50280 50311 50306 50271 50240 50234 50240 50245 50289 50284 50296 50313 50340 50366 50377 50390 50427 50421 50386 50372 50358 50355 50333 50330 50360 50389 50393 50425 50461 50492 50516 50549 50532 50539 50485 50492 50501 50505 50527 50528 50550 50563 50584 50568 50569 50552 50596 50625 50575 50441 50293 50087 49741 49310 49005 48801 48719 48645 48704 48779 48815 48905 48948 48953 48930 48942 48981 49011 49063 49098 49163 49212 49272 49322 49363 49417 49457 49475 49440 49422 49418 49447 49469 49524 49540 49572 49597 49642 49664 49710 49747 49783 49803 49762 49726 49734 49743 49753 49769 49776 49800 49814 49830 49841 49876 49886 49913 49889 49882 49825 49815 49815 49827 49845 49889 49893 49899 49938 49967 50005 50039 50047 50012 49978 49947 49945 49950 49966 49987 49995 50010 50056 50074 50132 50144 50180 50189 50156 50094 50078 50068 50075 50097 50111 50119 50144 50159 50195 50238 50267 50293 50319 50299 50249 50213 50213 50223 50241 50273 50286 50290 50303 50345 50362 50404 50434 50461 50427 50383 50367 50365 50396 50424 50438 50465 50501 50528 50563 50600 50624 50658 50666 50635 50617 50495 50280 49839 49398 49111 48857 48755 48701 48706 48837 48929 49011 49072 49123 49114 49104 49109 49128 49189 49222 49264 49292 49321 49364 49437 49450 49505 49531 49568 49546 49534 49536 49549 49574 49604 49599 49634 49652 49687 49728 49746 49773 49797 49803 49760 49740 49732 49737 49776 49813 49816 49845 49859 49869 49917 49950 49988 49994 50012 49968 49937 49935 49928 49944 49951 49965 49981 50000 50019 50051 50076 50092 50127 50143 50162 50117 50094 50076 50080 50105 50104 50109 50139 50148 50172 50188 50202 50221 50196 50129 50035 49986 49960 49972 49981 50002 50004 50011 50002 50013 49985 50001 50023 50035 50010 49917 49811 49717 49649 49621 49562 49570 49604 49653 49708 49782 49862 49925 49998 50070 50078 50080 50043 50043 50088 50104 50148 50153 50165 50162 50174 50223 50258 50280 50306 50347 50297 50274 50295 50329 50379 50423 50472 50511 50545 50565 50525 50321 49964 49869 49804 49839 49873 49934 49991 50035 50089 50135 50165 50175 50225 50250 50280 50310 50330 50362 50391 50385 50365 50350 50355 50367 50388 50381 50413 50403 50404 50418 50431 50456 50455 50470 50441 50393 50373 50362 50371 50406 50425 50419 50458 50459 50479 50498 50535 50564 50567 50541 50501 50495 50474 50493 50519 50524 50550 50565 50579 50608 50633 50660 50683 50697 50626 50504 50396 50317 50306 50275 50235 50050 49829 49622 49433 49155 48944 48651 48327 47860 47255 46689 46240 45867 45502 45163 44855 44600 44404 44239 44094 43977 43856 43587 43167 42765 42449 42253 42138 42018 41965 41919 41839 41806 41761 41719 41765 41822 41904 41898 41743 41553 41358 41309 41318 41426 41576 41730 41906 42054 42208 42370 42478 42415 42286 42256 42334 42473 42584 42798 43105 43353 43513 43616 43785 43909 43932 43882 43767 43593 43486 43414 43469 43595 43703 43681 43737 43816 43903 44039 44106 44144 44140 44056 43960 43862 43774 43753 43729 43742 43732 43688 43612 43548 43470 43363 43124 42907 42746 42647 42542 42519 42537 42602 42644 42735 42820 42917 42975 42855 42725 42683 42709 42807 42937 43072 43186 43300 43385 43402 43453 43416 43275 43154 43060 43017 42989 42969 42980 43082 43187 43312 43361 43510 43589 43499 43356 43292 43293 43357 43401 43442 43426 43550 43706 43780 43889 43897 43777 43743 43802 43781 43738 43714 43720 43679 43674 43640 43662 43716 43634 43524 43454 43416 43423 43419 43412 43478 43532 43618 43667 43744 43794 43577 43429 43274 43166 43143 43184 43305 43451 43529 43598 43634 43702 43596 43444 43378 43374 43402 43530 43549 43647 43737 43831 43894 43964 43960 43836 43682 43643 43654 43786 43854 43926 43964 44025 44035 44106 44176 44156 44028 43945 43944 43976 43974 44030 44090 44145 44247 44261 44300 44271 44161 44044 43960 43951 43979 44032 44069 44141 44212 44228 44278 44333 44291 44195 44103 44094 44136 44232 44312 44495 44612 44711 44801 44874 44864 44798 44711 44659 44693 44756 44760 44835 44920 45016 45038 45132 45170 45143 45035 44939 44891 44873 44892 44900 44883 44866 44856 44880 44864 44755 44575 44444 44471 44470 44540 44546 44603 44652 44704 44756 44847 44933 44880 44865 44948 45028 45189 45319 45392 45495 45464 45316 45255 45197 45057 44908 44821 44886 45070 45314 45432 45633 45799 46025 46235 46359 46428 46325 46276 46219 46337 46508 46684 46852 46977 47017 47063 47057 46934 46721 46448 46345 46133 46052 45956 45904 45813 45797 45843 45874 45804 45646 45400 45427 45430 45462 45448 45403 45382 45432 45469 45640 45652 45663 45594 45551 45603 45529 45500 45367 45390 45334 45300 45267 45127 44905 44727 44560 44472 44465 44562 44582 44566 44540 44547 44597 44533 44374 44150 44077 44007 44044 44010 43990 43967 44041 44070 44084 44099 44036 43944 43879 43955 43952 44048 44096 44185 44256 44299 44391 44375 44252 44184 44138 44142 44162 44260 44308 44392 44509 44572 44616 44597 44553 44482 44456 44422 44457 44507 44539 44585 44581 44558 44485 44396 44323 44234 44118 44056 44070 44172 44310 44406 44538 44655 44736 44745 44680 44716 44687 44729 44745 44769 44801 44817 44880 44949 45006 45004 44954 44938 44864 44868 44923 44968 45057 45103 45192 45249 45258 45210 45138 45076 45036 45018 45031 45211 45232 45280 45346 45410 45490 45443 45320 45286 45208 45210 45236 45326 45342 45344 45388 45442 45473 45395 45333 45236 45173 45197 45189 45200 45248 45254 45271 45296 45295 45182 45042 44956 44921 44924 44947 44986 45038 45063 45176 45184 45244 45193 45080 45017 45026 45015 45058 45038 45059 45082 45069 45072 45069 44944 44910 44870 44875 44880 44892 44961 45028 45098 45163 45211 45228 45188 45151 45140 45102 45136 45137 45237 45260 45285 45330 45416 45374 45329 45276 45240 45237 45263 45326 45381 45396 45470 45490 45504 45442 45336 45346 45248 45188 45334 45338 45383 45355 45439 45474 45511 45441 45320 45288 45247 45252 45253 45259 45398 45399 45476 45525 45581 45509 45426 45395 45479 45425 45418 45434 45642 45616 45697 45663 45697 45582 45502 45437 45450 45427 45406 45422 45469 45521 45529 45527 45503 45373 45337 45282 45227 45258 45260 45369 45338 45394 45420 45453 45323 45213 45114 45087 45122 45023 45005 45063 45080 45175 45151 45188 45069 44978 44925 44907 44897 44903 44963 45007 45065 45091 45074 45010 44920 44786 44753 44785 44815 44795 44948 44923 45026 44990 45135 45080 44925 44772 44776 44765 44810 44790 44851 44939 44951 44972 44993 44951 44823 44771 44717 44716 44721 44818 44868 44864 44882 44967 44971 44856 44750 44686 44661 44671 44736 44803 44833 44898 45105 45182 45260 45237 45157 45211 45126 45118 45263 45434 45487 45520 45515 45500 45475 45282 45186 45092 45089 45122 45126 45234 45261 45284 45324 45298 45262 45127 45033 45014 44939 45112 45124 45197 45198 45210 45218 45237 45147 45117 44985 45008 45031 45075 45205 45349 45554 45800 46060 46207 46409 46560 46487 46572 46496 46421 46385 46295 46297 46356 46254 46204 46194 46081 45935 45757 45651 45656 45642 45651 45591 45625 45648 45670 45592 45468 45343 45231 45179 45159 45174 45204 45155 45174 45158 45147 45170 45031 44907 44802 44779 44789 44799 44802 44776 44874 44895 44915 44966 44837 44743 44665 44634 44640 44675 44709 44733 44795 44820 44952 45010 44936 44862 44749 44769 44763 44824 44877 44919 44905 44956 45016 45044 45019 44917 44726 44558 44495 44331 44432 44474 44543 44746 44873 45015 45034 45066 45014 44956 44958 44890 45047 45119 45323 45410 45470 45473 45510 45417 45446 45329 45321 45410 45359 45436 45453 45440 45535 45503 45593 45575 45606 45533 45424 45455 45392 45389 45309 45286 45244 45142 45191 45301 45409 45448 45380 45369 45415 45445 45404 45514 45512 45518 45659 45763 45790 45876 45750 45621 45575 45434 45494 45458 45522 45417 45497 45446 45388 45539 45315 45469 45414 45473 45448 45556 45473 45415 45425 45353 45278 45298 45181 45113 45100 44988 44757 44814 44835 44825 44950 45066 45096 44855 45010 45019 45572 45611 45968 45957 45805 45779 45759 45750 45651 45621 45629 45805 46049 46232 46185 46037 45936 45953 45900 46013 45950 46023 46047 46115 46215 46216 46264 46122 45938 45774 45644 45574 45499 45614 45844 45981 46206 46403 46498 46522 46425 46315 46174 45980 45814 45738 45731 45709 45649 45742 45786 45839 45835 45751 45558 45318 45256 45188 45418 45703 45944 46061 46127 46097 46076 45963 45921 45887 45863 45750 45671 45637 45674 45708 45701 45653 45658 45592 45470 45412 45353 45305 45204 45174 45206 45274 45276 45282 45316 45251 45017 45021 44847 44847 44806 44848 44862 44975 45028 45076 45121 45054 44863 44742 44624 44571 44621 44624 44717 44771 44813 44870 44921 44855 44709 44602 44566 44554 44588 44658 44757 44806 44852 44901 44944 44911 44823 44652 44616 44559 44565 44600 44647 44647 44707 44712 44782 44770 44684 44564 44569 44561 44611 44665 44745 44783 44783 44807 44858 44867 44832 44704 44678 44617 44629 44702 44813 44897 44864 44893 44937 45007 44994 44870 44800 44771 44792 44804 44867 44887 44926 44950 45024 45094 45021 44883 44841 44820 44822 44893 44919 45073 45135 45328 45409 45508 45541 45543 45546 45528 45590 45643 45699 45770 45774 45786 45779 45723 45617 45506 45381 45311 45270 45282 45336 45334 45444 45484 45525 45557 45418 45403 45264 45184 45107 45135 45143 45174 45234 45224 45367 45379 45280 45153 45057 45030 45048 45106 45187 45215 45276 45402 45430 45410 45345 45234 45165 45127 45116 45168 45191 45202 45193 45237 45303 45279 45120 45021 44977 45023 45079 45087 45148 45128 45233 45270 45324 45205 45076 44910 44824 44852 44895 44914 45004 44961 45081 45139 45219 44992 44825 44791 44739 44741 44731 44802 44815 44890 44905 44931 44887 44828 44710 44595 44587 44598 44629 44619 44681 44716 44760 44773 44717 44576 44598 44464 44562 44521 44678 44691 44751 44803 44838 44857 44745 44579 44521 44480 44563 44578 44683 44689 44863 44898 45050 44983 44970 44949 44975 44933 44962 44988 45027 45078 45064 45174 45202 45106 44993 44930 44927 44960 44943 45008 45073 45089 45132 45243 45251 45126 45023 44950 44928 44925 44983 45026 45128 45112 45190 45201 45205 45085 44984 44911 44909 44937 44947 44903 44967 44971 45053 45038 45025 44943 44932 44877 45036 44993 45135 45179 45287 45298 45316 45357 45260 45117 45001 44948 44992 45052 45052 45117 45160 45222 45279 45292 45233 45044 45067 44996 45017 44985 45097 45129 45166 45174 45311 45261 45101 45021 44954 44974 44979 45035 45061 45112 45152 45166 45164 45061 44908 44799 44805 44802 44911 44956 45023 44986 44998 45073 45084 44978 44877 44881 44830 44803 44795 44758 44790 44813 44897 44956 44929 44815 44746 44732 44785 44779 44818 44840 44880 44949 44969 44918 44791 44787 44755 44759 44815 44870 44918 44943 45046 45095 45120 45069 45005 44918 44907 44884 44872 44956 44991 45043 45089 45096 45038 44890 44837 44802 44807 44839 44960 44955 44974 44994 45086 44973 45001 44809 44828 44752 44803 44785 44900 44951 45040 45139 45054 45002 44853 44712 44673 44684 44706 44782 44794 44801 44797 44816 44709 44647 44612 44609 44720 44771 44894 44897 44959 44972 45065 44990 44875 44787 44778 44834 44888 44966 45011 45059 45094 45098 45068 44845 44746 44700 44705 44784 44903 44871 45069 45052 45175 45054 44914 44950 44871 44810 44875 44932 44983 45011 45071 45065 45085 44911 44879 44764 44742 44836 44800 44878 44777 44623 44573 44493 44523 44547 44553 44511 44423 44556 44646 44725 44824 44973 45131 45242 45323 45372 45429 45518 45716 45828 45990 46039 46180 46203 46285 46233 46070 45994 45903 45952 45929 45983 46008 46129 46243 46330 46345 46359 46346 46382 46509 46671 46775 46808 46851 46836 46781 46705 46599 46551 46527 46463 46483 46508 46521 46531 46571 46737 46806 46876 46813 46675 46601 46520 46509 46505 46450 46465 46529 46352 46395 46328 46309 46254 46075 46047 45970 45986 45930 45929 45860 45797 45768 45704 45504 45415 45225 45090 45012 44983 45137 45272 45367 45364 45335 45285 45265 45191 45072 45102 45185 45359 45417 45473 45470 45420 45385 45358 45374 45344 45276 45523 45555 45658 45624 45751 45811 45928 45888 45866 45654 45441 45341 45075 45145 45091 45330 45358 45427 45294 45189 45049 44861 44801 44728 44896 44960 44964 44885 44669 44578 44513 44458 44429 44436 44546 44581 44564 44533 44563 44417 44348 44308 44305 44375 44438 44447 44492 44504 44598 44598 44532 44357 44277 44246 44278 44305 44403 44421 44481 44562 44472 44388 44270 44253 44329 44373 44448 44466 44553 44614 44632 44535 44463 44474 44465 44532 44595 44682 44753 44796 44888 44904 44809 44734 44744 44710 44707 44738 44824 44868 45029 45094 45074 45037 45049 45001 44976 45020 45098 45162 45262 45280 45381 45337 45342 45291 45190 45201 45199 45308 45294 45257 45256 45307 45240 45174 45152 45156 45132 45150 45153 45177 45257 45332 45382 45291 45271 45238 45273 45232 45392 45405 45470 45503 45540 45601 45497 45456 45377 45408 45448 45484 45517 45627 45644 45698 45637 45538 45379 45308 45301 45332 45366 45362 45356 45396 45404 45402 45292 45179 45152 45167 45202 45234 45242 45239 45285 45252 45237 45077 44956 44867 44897 44944 44984 44983 45048 45089 45151 45105 45044 44945 44896 44920 44986 44983 45010 45066 45099 45159 45176 45195 45108 45035 45038 45088 45106 45191 45226 45293 45269 45356 45299 45179 45128 45052 45040 45053 45081 45147 45210 45363 45358 45344 45258 45197 45234 45259 45348 45384 45482 45522 45556 45619 45583 45472 45396 45376 45426 45414 45520 45532 45656 45693 45801 45797 45743 45698 45693 45681 45734 45770 45727 45753 45810 45854 45862 45743 45607 45610 45625 45655 45709 45738 45738 45757 45814 45806 45652 45582 45512 45505 45555 45552 45651 45670 45782 45771 45851 45753 45733 45592 45666 45662 45696 45707 45687 45688 45748 45745 45661 45543 45496 45468 45484 45503 45520 45520 45535 45529 45497 45396 45313 45131 45121 45137 45194 45214 45262 45319 45373 45379 45163 45066 44978 45024 45025 45144 45174 45244 45262 45264 45183 45078 44972 44943 44983 45021 45042 45042 45103 45169 45140 45050 44966 44941 44926 44958 44996 45053 45095 45135 45196 45221 45168 45058 45115 45079 45112 45176 45232 45354 45410 45517 45456 45405 45346 45268 45377 45396 45469 45475 45551 45596 45586 45515 45465 45362 45402 45389 45458 45485 45519 45559 45612 45599 45527 45499 45469 45485 45471 45527 45550 45618 45664 45714 45624 45514 45456 45421 45423 45443 45485 45518 45547 45594 45599 45539 45463 45361 45329 45345 45378 45436 45471 45538 45603 45612 45546 45449 45389 45399 45437 45450 45489 45497 45577 45559 45575 45463 45400 45344 45318 45353 45359 45428 45480 45503 45556 45562 45494 45386 45303 45333 45283 45350 45370 45443 45475 45517 45526 45442 45276 45231 45196 45277 45301 45366 45399 45398 45515 45539 45461 45392 45341 45385 45394 45406 45405 45458 45427 45477 45499 45377 45241 45145 45214 45230 45293 45304 45366 45385 45407 45429 45380 45252 45263 45201 45231 45250 45275 45291 45331 45328 45275 45162 45079 45022 45041 45105 45193 45233 45244 45296 45350 45306 45135 45014 44953 44922 44916 44993 44995 45084 45107 45189 45159 45061 44917 44905 44899 44938 44949 44968 44982 45002 45012 44974 44850 44749 44692 44682 44710 44731 44779 44831 44905 44900 44844 44738 44701 44700 44697 44715 44737 44740 44788 44829 44873 44849 44741 44667 44576 44557 44592 44639 44680 44714 44814 44916 44919 44851 44638 44540 44572 44666 44766 44989 45131 45291 45365 45411 45405 45445 45472 45551 45605 45572 45686 45719 45784 45743 45720 45646 45528 45434 45431 45430 45433 45452 45492 45587 45618 45587 45514 45383 45316 45345 45399 45458 45470 45480 45502 45489 45384 45226 45129 45073 45055 45022 45003 45022 45020 45051 45100 45092 44979 44932 44896 44885 44941 45028 45094 45182 45249 45328 45271 45084 44952 44874 44873 44904 44990 45078 45082 45193 45225 45212 45114 45035 44986 45025 45086 45192 45213 45353 45381 45441 45353 45211 45062 44975 44924 44929 44947 45012 45036 45080 45064 44988 44844 44855 44825 44843 44795 44795 44810 44876 45004 45150 45228 45151 45155 45065 45074 44998 45077 45074 45151 45186 45270 45262 45179 45040 45014 45030 45100 45121 45143 45196 45221 45247 45179 45056 44946 44873 44887 44917 45015 45097 45125 45145 45160 45082 44957 44890 44890 44887 44934 44930 44967 44996 44997 45009 44961 44831 44740 44676 44714 44831 44923 45000 45088 45117 45225 45169 45067 44967 44974 45003 45061 45111 45192 45301 45381 45422 45401 45317 45257 45209 45213 45188 45267 45297 45352 45405 45392 45284 45175 45150 45198 45207 45227 45263 45324 45419 45435 45401 45264 45167 45129 45176 45192 45236 45278 45279 45219 45168 45048 44928 44831 44861 44931 45001 45002 45036 45091 45090 45058 44904 44775 44702 44653 44623 44600 44686 44752 44768 44836 44885 44834 44808 44770 44786 44814 44825 44866 44915 44991 45023 45016 44888 44825 44792 44802 44851 44891 44937 44967 44982 45012 44953 44866 44674 44559 44522 44569 44614 44682 44692 44716 44739 44702 44719 44755 44869 44920 45033 45125 45134 45144 45074 45107 45083 45051 44995 45106 45032 45048 45001 45013 45037 45121 45158 45177 45091 45053 44975 44929 44843 44792 44819 44881 44938 44930 44926 44982 44978 45020 45005 45093 45157 45203 45256 45306 45348 45280 45265 45313 45419 45488 45576 45587 45672 45694 45760 45735 45681 45526 45516 45456 45504 45540 45658 45816 45863 45963 45865 45795 45664 45554 45490 45499 45467 45373 45292 45259 45199 44994 44912 44905 44853 44826 44990 45024 45035 45068 45077 44999 44771 44607 44610 44603 44668 44707 44822 44904 45007 45023 44849 44658 44520 44450 44441 44428 44430 44455 44513 44601 44625 44603 44529 44524 44548 44638 44594 44584 44596 44620 44562 44460 44424 44400 44457 44545 44655 44685 44810 44882 44940 44923 44772 44694 44701 44702 44720 44749 44825 44933 45008 45091 45003 44904 44832 44835 44829 44849 44937 44957 45031 45085 45084 45027 44986 45007 45027 45209 45339 45373 45458 45459 45565 45499 45424 45360 45388 45441 45537 45630 45752 45948 46052 46110 46152 46143 46127 46186 46241 46305 46247 46246 46281 46224 46069 46033 45957 45977 46015 46024 45976 46009 46025 45887 45680 45472 45260 45170 45264 45261 45340 45310 45332 45335 45178 45055 44999 44948 44896 44907 44986 45103 45188 45177 45111 45002 44967 44989 45030 45038 45162 45163 45203 45239 45073 44957 44911 44945 44986 45036 45125 45220 45228 45195 45014 44886 44792 44638 44533 44593 44743 44933 45145 45278 45400 45416 45572 45603 45770 45850 45978 46089 46122 46053 45795 45626 45491 45432 45450 45387 45358 45391 45392 45181 45023 44998 44916 44960 44937 44977 44986 44951 44920 44763 44710 44708 44782 44854 45004 45012 45079 45100 45142 45049 44957 44902 44917 44963 45007 45041 45052 45129 45118 45012 44917 44858 44807 44859 44868 44884 44942 44984 44972 45026 44941 44895 44911 44980 45014 45016 45022 45051 44969 44776 44684 44582 44536 44570 44567 44586 44611 44693 44663 44580 44512 44615 44671 44731 44759 44907 44966 45045 45026 44886 44787 44748 44803 44820 44902 44928 44946 44960 44984 44893 44793 44764 44772 44849 44936 45031 45101 45164 45232 45225 45156 45184 45281 45455 45553 45653 45699 45783 45765 45668 45587 45556 45564 45630 45610 45667 45785 45881 45906 45828 45716 45648 45599 45603 45598 45581 45596 45590 45532 45380 45262 45224 45186 45235 45260 45318 45391 45453 45504 45433 45356 45341 45336 45383 45427 45459 45474 45530 45536 45443 45364 45352 45419 45453 45521 45531 45574 45542 45672 45279 44960 45134 45240 45239 45256 45311 45441 45587 45870 46045 46060 46103 46202 46295 46545 46589 46668 46697 46690 46610 46483 46377 46315 46346 46423 46447 46498 46497 46494 46483 46447 46381 46381 46406 46438 46492 46595 46632 46745 46777 46839 46750 46627 46549 46496 46490 46522 46580 46598 46667 46716 46752 46656 46677 46708 46822 47024 47377 47733 48060 48351 48578 48695 48655 48624 48588 48637 48652 48685 48763 48797 48903 48899 48754 48667 48600 48704 48750 48796 48786 48845 48881 48882 48800 48619 48485 48460 48469 48515 48582 48771 48884 49057 49064 48976 48829 48662 48621 48635 48700 48742 48733 48715 48756 48766 48715 48683 48700 48848 48941 49086 49203 49258 49407 49552 49652 49668 49644 49573 49492 49441 49311 49344 49371 49364 49380 49410 49393 49455 49393 49345 49352 49348 49379 49387 49430 49437 49385 49273 49104 48890 48735 48591 48521 48466 48356 48262 48172 48100 48071 47879 47609 47323 47153 46998 46843 46734 46628 46511 46409 46361 46282 46094 45850 45693 45582 45504 45416 45378 45347 45357 45323 45339 45246 45049 44896 44812 44734 44738 44712 44717 44730 44775 44772 44703 44598 44393 44320 44165 44142 44140 44162 44163 44287 44285 44330 44379 44421 44460 44477 44504 44504 44593 44646 44683 44712 44633 44556 44594 44644 44679 44752 44842 44954 45060 45123 45231 45285 45335 45349 45237 45241 45157 45166 45176 45200 45249 45245 45306 45391 45400 45294 45166 45094 45044 45025 45007 45002 44983 45033 45105 45191 45149 45023 44848 44737 44663 44610 44564 44540 44552 44553 44562 44560 44406 44306 44245 44204 44162 44156 44147 44098 44139 44244 44274 44168 44050 43964 43947 43970 44037 44053 44084 44116 44142 44173 44159 44119 44144 44177 44265 44346 44414 44452 44520 44566 44607 44596 44550 44435 44259 44216 44345 44441 44498 44545 44613 44794 45065 45307 45515 45685 45802 45941 46053 46067 46206 46333 46434 46456 46344 46109 45951 45904 45894 45894 45952 46030 45910 46031 45895 46063 45935 45879 45882 45792 45889 45916 46006 46180 46092 46361 46359 46424 46474 46515 46520 46459 46358 46385 46384 46363 46274 46274 46401 46083 45974 45965 45874 45859 45836 45680 45586 45554 45525 45504 45282 44970 44712 44426 44386 44329 44366 44393 44377 44365 44428 44325 44361 44285 44099 43979 44004 44128 44229 44367 44556 44700 44793 44831 44761 44534 44311 44196 44206 44233 44206 44214 44349 44672 45246 45781 46113 46174 46192 46226 46239 46244 46245 46261 46339 46505 46674 46932 47291 47575 47947 48438 48648 48663 48653 48642 48649 48661 48651 48608 48566 48534 48522 48534 48579 48629 48654 48706 48751 48778 48771 48790 48858 48904 48891 48922 48963 49009 49064 49109 49160 49190 49205 49209 49227 49128 49014 48905 48860 48840 48846 48841 48917 49161 49437 49683 49849 49957 49929 49892 49896 49900 49834 49712 49589 49484 49378 49330 49263 49075 48858 48656 48462 48307 48187 48073 47975 47848 47754 47685 47587 47374 47189 46944 46787 46619 46473 46325 46220 46127 46056 46000 45858 45619 45392 45193 45039 44931 44831 44732 44654 44597 44541 44466 44294 44056 43871 43810 43748 43738 43777 43797 43857 43949 44010 44184 44444 44626 44926 45294 45604 45848 46056 46272 46412 46559 46702 46828 46949 47064 47162 47250 47380 47448 47534 47628 47711 47793 47881 47954 48020 48067 48113 48144 48138 48053 47966 47974 47970 47935 47957 47946 47792 47682 47617 47689 47761 47864 47917 48006 48072 48145 48205 48261 48275 48282 48298 48349 48389 48434 48493 48534 48581 48634 48685 48721 48706 48695 48698 48741 48768 48824 48901 48940 49010 49084 49158 49191 49195 49141 49082 49047 48952 48943 48880 48753 48680 48671 48707 48589 48364 48096 47822 47590 47383 47148 46857 46608 46346 46139 45961 45803 45579 45239 44854 44572 44357 44178 44014 43850 43706 43532 43360 43216 43093 42914 42645 42414 42286 42241 42155 42055 41976 41818 41711 41639 41594 41524 41341 41091 40898 40796 40762 40716 40710 40723 40677 40752 41021 41302 41359 41164 41003 40914 40914 40969 41028 41060 41090 41097 41150 41220 41225 41138 41086 41094 41128 41186 41243 41273 41299 41331 41386 41436 41455 41374 41316 41308 41337 41375 41443 41493 41563 41603 41633 41693 41749 41753 41670 41612 41591 41648 41722 41762 41807 41879 41944 42016 42059 42115 42177 42332 42799 43376 43695 43939 44177 44393 44776 45178 45528 45842 46109 46336 46535 46708 46873 47037 47190 47315 47429 47544 47658 47770 47869 47961 48017 48102 48167 48245 48326 48383 48448 48492 48539 48577 48575 48597 48583 48602 48590 48571 48548 48546 48548 48555 48579 48628 48664 48706 48743 48800 48803 48815 48851 48898 48950 49012 49064 49175 49267 49343 49427 49501 49551 49591 49597 49642 49686 49728 49770 49805 49820 49856 49891 49918 49979 49992 49975 49936 49946 49895 49876 49966 50166 50216 50152 49971 49791 49539 49160 48692 48258 47866 47561 47300 47100 46886 46672 46447 46221 45994 45802 45564 45177 44776 44447 44274 44036 43819 43655 43483 43379 43366 43404 43395 43294 43034 42673 42364 42123 41995 41916 41869 41804 41763 41737 41709 41696 41668 41603 41436 41360 41272 41234 41249 41249 41280 41279 41311 41335 41352 41384 41379 41265 41166 41115 41110 41132 41171 41193 41231 41245 41285 41314 41348 41376 41370 41250 41181 41160 41180 41237 41265 41298 41322 41363 41395 41432 41471 41500 41477 41362 41324 41324 41350 41391 41417 41438 41486 41519 41557 41620 41652 41680 41654 41559 41542 41552 41606 41657 41699 41755 41833 41942 42040 42125 42207 42214 42152 42128 42122 42138 42169 42192 42192 42217 42259 42261 42286 42324 42369 42409 42378 42297 42253 42271 42295 42282 42274 42329 42357 42371 42414 42470 42517 42513 42471 42452 42473 42549 42681 42823 42967 43059 43019 42990 43000 42961 42964 42953 42891 42854 42831 42842 42881 42907 42929 42970 43014 43048 43087 43134 43153 43083 43015 43003 43015 43043 43075 43116 43130 43163 43207 43255 43295 43333 43349 43279 43211 43179 43179 43195 43219 43248 43289 43321 43348 43376 43413 43405 43323 43282 43212 43220 43243 43262 43293 43317 43340 43359 43405 43421 43460 43399 43310 43248 43235 43253 43290 43310 43343 43382 43414 43436 43457 43477 43461 43349 43278 43256 43251 43255 43264 43273 43295 43322 43362 43393 43423 43420 43338 43257 43215 43193 43198 43208 43204 43201 43234 43258 43291 43331 43338 43302 43197 43127 43125 43160 43204 43231 43281 43311 43333 43371 43413 43448 43460 43391 43327 43306 43304 43334 43346 43363 43393 43416 43450 43457 43474 43485 43509 43434 43370 43330 43325 43344 43365 43393 43418 43459 43484 43528 43568 43589 43625 43608 43544 43496 43478 43504 43517 43543 43532 43547 43572 43592 43608 43632 43659 43637 43564 43522 43532 43551 43599 43635 43651 43671 43713 43729 43777 43811 43824 43763 43705 43671 43644 43637 43637 43642 43646 43620 43609 43615 43621 43655 43657 43600 43483 43408 43363 43354 43366 43379 43375 43383 43404 43426 43444 43478 43518 43517 43435 43409 43414 43433 43477 43424 43452 43647 43934 44182 44308 44423 44474 44485 44508 44566 44617 44676 44758 44798 44801 44852 44947 45077 45196 45233 45222 45144 45066 45061 45086 45144 45183 45197 45206 45205 45216 45246 45269 45286 45270 45234 45232 45288 45384 45444 45615 45884 46128 46575 46976 47335 47610 47800 47956 48098 48225 48353 48500 48586 48667 48755 48823 48894 48971 49036 49078 49107 49145 49187 49234 49272 49315 49371 49449 49499 49564 49601 49647 49678 49713 49718 49739 49755 49787 49819 49862 49898 49944 49982 50015 50063 50083 50132 50174 50184 50190 50201 50234 50293 50310 50311 50321 50354 50374 50387 50443 50470 50491 50492 50478 50470 50480 50496 50512 50548 50561 50586 50609 50644 50691 50715 50754 50760 50778 50775 50776 50801 50806 50835 50847 50870 50897 50910 50925 50944 50968 51011 51027 51020 51000 51004 51021 51016 51041 51067 51083 51094 51099 51134 51126 51129 51138 51110 51069 51063 51060 51063 51072 51066 51069 51076 51090 51103 51137 51165 51172 51155 51115 51107 51114 51105 51123 51133 51164 51168 51179 51199 51233 51243 51274 51286 51266 51228 51218 51194 51204 51211 51215 51231 51248 51269 51280 51314 51333 51369 51385 51333 51303 51309 51211 51062 50909 50752 50594 50414 50207 49993 49720 49520 49300 48935 48389 47876 47457 47171 46920 46737 46623 46702 47148 47508 47785 48205 48459 48359 47930 47311 46555 46009 45671 45501 45556 45600 45570 45542 45511 45554 45678 45844 46014 45869 45585 45367 45264 45389 45398 45346 45260 45321 45374 45450 45615 45784 45950 45863 45536 45363 45369 45340 45326 45274 45187 45123 45037 44918 44911 44884 44803 44668 44400 44142 43922 43750 43657 43521 43486 43570 43685 43794 43830 43875 43902 43938 43923 43816 43642 43507 43440 43431 43415 43407 43355 43316 43267 43239 43209 43137 43176 43305 43240 42967 42760 42665 42788 42954 43208 43629 43881 44009 44051 44083 44157 44098 44144 44180 44099 44053 44063 44099 44431 45116 45804 46195 46164 46053 46098 46057 46082 46263 46540 46760 47026 47224 47298 47258 47155 47010 46896 46749 46599 46571 46499 46432 46399 46324 46146 45958 45768 45664 45549 45521 45518 45484 45408 45367 45333 45217 45111 45165 45159 45182 45251 45218 45261 45252 45693 46491 47267 48015 48507 48843 49172 49367 49348 49088 48738 48440 48215 47930 47781 47634 47454 47226 46993 46870 46863 46928 47111 47336 47402 47464 47404 47234 47166 47165 47110 47114 47086 46979 46862 46547 46177 46057 46062 46061 45978 45765 45508 45283 45079 44959 45027 44973 44776 44616 44467 44374 44379 44468 44754 44911 44733 44524 44447 44372 44307 44156 44060 43944 43882 43874 43831 43795 43961 44370 44755 45207 45441 45579 45687 45701 45697 45745 45756 45648 45422 45222 45061 44969 44989 45141 45199 45266 45354 45555 45674 45844 46014 46081 46142 46193 46229 46286 46465 46528 46432 46306 46200 46108 45967 45827 45685 45514 45430 45386 45397 45386 45415 45492 45545 45456 45379 45346 45253 45247 45310 45455 45687 45927 46188 46377 46447 46596 46760 46902 47189 47432 47681 47766 47781 47770 47695 47656 47722 47805 48272 48558 48669 48852 49070 49402 49545 49547 49746 49973 50072 50285 50768 51217 51538 51890 52122 52120 52122 51983 51919 51997 52087 52117 52044 51912 51787 51667 51504 51293 51025 50833 50598 50294 49937 49658 49405 49150 48901 48618 48400 48213 48079 48012 47920 47862 47796 47690 47509 47286 47042 46818 46640 46533 46494 46513 46617 46843 47028 47226 47497 47721 47819 47731 47545 47319 47152 47040 47023 46978 46962 46948 46916 46858 46829 46796 46719 46590 46378 46204 46088 46026 45994 45934 45879 45829 45779 45758 45751 45736 45785 45914 45912 45914 45925 45917 45957 45879 45711 45597 45547 45570 45614 45629 45663 45679 45624 45547 45505 45454 45427 45454 45476 45546 45590 45778 46072 46542 46875 47751 48723 49640 49988 50158 50096 50068 50037 49971 50037 50431 50490 50615 50717 50736 50766 50784 50982 51234 51323 51140 50886 50726 50557 50459 50260 50095 49881 49681 49458 49300 49116 48911 48643 48271 47973 47745 47581 47448 47342 47283 47227 47194 47167 47176 47154 47067 46948 46842 46801 46708 46602 46491 46374 46273 46153 46029 45950 45866 45731 45542 45323 45205 45170 45103 45052 45023 45012 45038 45054 45100 45194 45275 45393 45421 45343 45268 45294 45385 45487 45496 45391 45192 45012 44952 44988 45168 45315 45356 45408 45436 45448 45505 45573 45663 45826 45999 46140 46309 46461 46632 46761 46884 46971 47068 47174 47244 47346 47430 47428 47371 47348 47357 47343 47352 47333 47299 47222 47161 47125 47082 47035 46993 46972 47004 47006 47004 47001 47000 46975 46875 46755 46628 46507 46411 46332 46258 46159 46070 46036 46173 46248 46269 46220 46034 45848 45798 45872 45996 46105 46174 46223 46314 46431 46512 46573 46526 46476 46437 46404 46429 46425 46413 46424 46411 46390 46416 46478 46527 46486 46386 46274 46218 46177 46191 46200 46210 46168 46129 46139 46076 45989 45811 45688 45638 45646 45645 45630 45604 45563 45574 45628 45703 45788 45795 45738 45705 45660 45620 45614 45604 45604 45607 45594 45595 45616 45629 45607 45499 45391 45316 45277 45337 45416 45602 45798 46008 46173 46321 46370 46315 46202 46153 46147 46190 46173 46178 46118 46069 46032 46067 46037 46030 45906 45774 45696 45590 45526 45574 45651 45762 45904 45947 46200 46564 46822 46989 47111 47060 47117 47105 47113 47169 47141 47080 47017 46957 46996 46906 46777 46648 46553 46508 46472 46478 46457 46477 46511 46520 46613 46635 46622 46599 46547 46543 46474 46443 46399 46355 46275 46212 46242 46274 46284 46246 46196 46173 46142 46199 46218 46287 46328 46381 46448 46460 46397 46324 46258 46204 46213 46206 46203 46182 46214 46161 46164 46174 46058 45943 45787 45714 45692 45724 45772 45801 45824 45903 45993 46042 46031 45970 45935 45946 45918 45985 46025 46105 46115 46184 46235 46290 46225 46121 46055 46001 45976 45921 45912 45920 45904 45891 45894 45962 45954 45876 45716 45650 45603 45553 45523 45471 45467 45508 45557 45620 45613 45565 45455 45406 45403 45431 45491 45498 45546 45628 45672 45743 45724 45504 45376 45457 45570 45683 45863 45966 46053 46168 46284 46397 46470 46431 46349 46261 46224 46215 46223 46161 46071 46139 46220 46247 46147 45941 46653 46279 45195 45200 45197 45073 45060 44758 44487 44506 44656 44755 44691 44455 44233 44040 43886 43720 43577 43418 43268 43142 42984 42657 42299 42028 41848 41670 41504 41348 41288 41267 41257 41361 41396 41255 41049 40895 40825 40850 40841 40816 40778 40770 40771 40753 40678 40436 40168 39985 39905 39871 39855 39896 39980 40134 40261 40326 40357 40252 40095 40001 39921 39901 39880 39895 39925 39915 39881 39849 39806 39614 39388 39252 39217 39216 39264 39291 39322 39298 39310 39325 39301 39163 38986 38880 38872 38935 38999 39044 39060 39100 39144 39233 39233 39097 38980 38925 38985 39036 39097 39133 39156 39186 39239 39299 39268 39077 38950 38920 38942 38992 39055 39105 39144 39204 39264 39341 39281 39129 39031 39022 39058 39043 39036 39014 39026 39052 39093 39144 39175 39200 39207 39277 39397 39558 39691 39828 39910 39988 40072 40031 39869 39767 39705 39690 39705 39758 39789 39840 39893 39966 40013 39855 39659 39545 39533 39532 39604 39653 39679 39703 39758 39812 39759 39565 39415 39318 39261 39279 39377 39431 39479 39536 39585 39615 39528 39402 39353 39325 39240 39147 39071 39010 39157 39460 39647 39664 39451 39336 39306 39368 39461 39530 39558 39583 39625 39681 39725 39639 39499 39385 39389 39423 39494 39571 39645 39676 39719 39797 39803 39665 39515 39464 39506 39554 39576 39649 39695 39766 39815 39866 39777 39613 39512 39507 39552 39629 39742 39827 39889 39964 40006 40051 39927 39763 39635 39657 39709 39775 39797 39862 39921 40023 40096 40098 39962 39854 39786 39771 39840 39915 39964 40024 40051 40081 40143 40061 39909 39809 39809 39848 39896 39921 39977 40045 40099 40125 40115 39985 39841 39776 39803 39824 39887 40000 40100 40184 40243 40278 40275 40204 40089 40055 40052 40125 40164 40174 40160 40205 40245 40272 40216 40173 40164 40234 40333 40416 40465 40506 40524 40519 40546 40550 40434 40309 40278 40300 40359 40419 40459 40494 40535 40577 40651 40614 40457 40361 40337 40356 40412 40479 40538 40590 40605 40639 40628 40508 40382 40320 40322 40381 40422 40490 40538 40573 40598 40630 40709 40709 40645 40628 40633 40689 40760 40811 40873 40912 40944 40976 40957 40811 40692 40638 40664 40743 40816 40852 40887 40942 41009 41063 41050 40892 40786 40762 40783 40843 40894 40936 40996 41050 41085 41121 41133 41003 40861 40799 40816 40876 40935 41000 41018 41041 41100 41117 41162 41073 40924 40814 40817 40841 40872 40902 40914 40870 40845 40867 40927 40970 40924 40845 40824 40867 40892 40950 41008 41034 41081 41125 41162 41189 41136 40996 40936 40946 40981 41015 41068 41091 41140 41193 41240 41291 41308 41168 41038 41018 41084 41135 41177 41193 41169 41210 41250 41281 41289 41326 41306 41310 41312 41320 41378 41453 41505 41560 41627 41718 41759 41740 41638 41550 41548 41559 41578 41617 41658 41657 41717 41764 41807 41790 41604 41469 41445 41479 41545 41626 41667 41707 41756 41781 41843 41885 41793 41710 41643 41598 41627 41642 41761 41824 41813 41857 41907 41942 41905 41800 41692 41725 41704 41730 41757 41819 41843 41885 41907 41937 41835 41685 41585 41569 41624 41701 41750 41797 41829 41863 41929 41983 41965 41850 41744 41717 41721 41770 41817 41863 41894 41949 42004 42052 42030 41890 41796 41764 41767 41799 41855 41881 41901 41945 41976 42020 42030 41919 41853 41811 41827 41883 41922 41935 41973 41975 42005 42019 42071 42038 41983 41929 41916 41936 41952 42014 42043 42075 42141 42167 42219 42192 42103 42031 42027 42062 42085 42125 42163 42221 42262 42313 42354 42295 42201 42149 42123 42135 42159 42202 42244 42215 42125 42007 41837 41774 41768 41749 41781 41791 41874 41924 41989 42031 42060 42064 42063 42144 42258 42352 42482 42653 42813 42968 43074 43191 43230 43237 43270 43278 43256 43159 43054 42929 42826 42808 42752 42527 42502 42680 42889 43129 43267 43436 43548 43546 43543 43593 43603 43556 43578 43573 43631 43668 43713 43706 43633 43441 43244 43107 43042 43003 42965 42929 42941 42977 43019 43056 43094 43019 42870 42727 42644 42570 42586 42620 42622 42651 42679 42629 42586 42622 42717 42792 42770 42665 42606 42626 42632 42653 42711 42686 42719 42737 42756 42739 42656 42593 42588 42676 42872 43006 43092 43178 43199 43266 43289 43317 43299 43209 43135 43132 43083 43094 43118 43137 43164 43218 43261 43316 43328 43289 43225 43224 43252 43305 43364 43398 43494 43526 43566 43606 43645 43681 43648 43600 43572 43623 43654 43714 43782 43833 43877 43930 44005 44073 44085 43986 43933 43890 43873 43896 43898 43926 43948 43952 43982 44015 44065 44051 43990 43910 43891 43905 43950 43996 44016 44012 44051 44068 44077 44081 44023 43919 43871 43826 43866 43916 43968 43981 44017 44062 44113 44146 44167 44125 44016 43932 43904 43918 43943 43987 44022 44037 44070 44088 44110 44170 44152 44026 43972 43965 43956 44018 43994 43958 43946 43946 43937 43983 43966 43865 43770 43733 43649 43616 43624 43688 43846 44058 44313 44374 44683 44995 45227 45370 45417 45461 45505 45550 45637 45741 45871 45997 46106 46222 46308 46361 46317 46323 46332 46359 46426 46526 46612 46702 46818 46917 47029 47116 47116 47132 47116 47163 47205 47297 47495 47717 47919 48088 48199 48331 48441 48501 48478 48461 48484 48539 48566 48550 48550 48592 48634 48710 48759 48799 48805 48797 48838 48828 48873 48928 48996 49125 49242 49374 49460 49510 49569 49607 49612 49621 49670 49716 49777 49800 49858 49901 49932 49981 50033 50066 50071 50057 49978 49908 49865 49863 49809 49739 49711 49679 49622 49515 49403 49186 48973 48710 48476 48337 48207 48145 48075 48003 47927 47792 47652 47458 47323 47073 46766 46474 46246 46148 46091 46102 46216 46427 46446 46482 46596 46770 47026 47354 47724 47907 48126 48202 48307 48466 48700 48816 48844 48818 48818 48712 48363 48042 47785 47620 47468 47341 47209 47065 46972 46859 46731 46537 46262 45971 45693 45458 45261 45093 44927 44751 44600 44487 44420 44419 44467 44613 44794 44830 44949 45125 45466 45906 46234 46451 46563 46698 46821 46910 46992 47064 47151 47234 47346 47459 47579 47662 47729 47799 47862 47933 48001 48093 48117 48116 48134 48154 48228 48309 48366 48433 48498 48559 48635 48687 48734 48737 48683 48652 48625 48637 48633 48685 48694 48667 48675 48705 48730 48782 48786 48818 48782 48395 48098 47905 47737 47605 47546 47489 47391 47332 47261 47260 47222 47146 46987 46804 46641 46616 46551 46482 46424 46342 46298 46251 46240 46256 46342 46415 46402 46392 46385 46419 46483 46520 46531 46506 46543 46548 46554 46569 46542 46474 46413 46329 46388 46525 46759 46984 47212 47391 47530 47648 47739 47791 47776 47648 47479 47422 47408 47471 47509 47508 47282 46943 46741 46604 46555 46566 46548 46476 46300 46193 46087 46038 45975 45878 45813 45798 45796 45778 45755 45692 45611 45410 45169 44953 44816 44732 44658 44574 44491 44441 44417 44390 44389 44441 44499 44513 44663 44939 45150 45242 45335 45531 45706 45860 46074 46293 46535 46758 46933 46964 46963 46951 46886 46843 46800 46800 46750 46729 46714 46712 46719 46730 46780 46757 46672 46615 46607 46600 46611 46613 46633 46660 46706 46740 46796 46843 46888 46873 46771 46705 46711 46690 46678 46669 46684 46696 46699 46745 46794 46851 46897 46878 46810 46746 46726 46732 46729 46749 46748 46783 46795 46784 46795 46789 46780 46777 46676 46562 46525 46568 46621 46646 46654 46698 46751 46808 46845 46901 46923 46953 46952 46901 46788 46713 46658 46690 46754 46809 46867 46914 46956 46998 47014 47061 47088 47125 47074 46962 46896 46862 46863 46870 46834 46824 46821 46835 46835 46854 46858 46874 46827 46682 46522 46425 46362 46332 46293 46281 46286 46305 46332 46369 46398 46395 46391 46386 46324 46276 46277 46404 46519 46643 46747 46840 46909 46921 46935 46912 46952 47079 47195 47139 47012 46864 46720 46656 46664 46723 46856 46985 47131 47290 47431 47518 47578 47579 47461 47305 47182 47097 47022 46977 46930 46893 46870 46909 46897 46917 46943 46861 46789 46821 46933 47028 47117 47176 47203 47208 47221 47261 47309 47369 47415 47401 47271 47058 46891 46786 46710 46607 46552 46476 46449 46443 46469 46510 46582 46629 46572 46487 46438 46442 46452 46421 46358 46274 46228 46211 46206 46215 46202 46247 46297 46268 46265 46323 46381 46460 46530 46600 46679 46744 46822 46890 46966 47032 47090 47069 47006 46945 46920 46906 46898 46868 46837 46833 46830 46841 46861 46876 46919 46909 46818 46699 46604 46578 46550 46556 46552 46557 46555 46592 46627 46667 46692 46724 46754 46703 46591 46558 46547 46569 46606 46627 46658 46705 46710 46750 46806 46860 46913 46962 46950 46871 46818 46829 46840 46868 46893 46901 46929 46955 46991 47014 47048 47089 47110 47072 47024 47030 47096 47170 47247 47316 47382 47452 47515 47575 47635 47706 47831 47920 47922 47905 47954 48027 48124 48208 48278 48341 48404 48477 48581 48653 48716 48810 48827 48788 48743 48730 48754 48836 48893 48960 49024 49082 49156 49232 49285 49367 49416 49457 49398 49330 49336 49322 49334 49347 49362 49417 49496 49576 49634 49700 49748 49800 49763 49695 49617 49599 49594 49590 49593 49578 49602 49637 49644 49690 49707 49700 49618 49478 49361 49322 49317 49326 49289 49264 49265 49264 49287 49311 49330 49331 49315 49201 49054 48965 48901 48865 48832 48794 48781 48784 48802 48802 48791 48773 48761 48741 48663 48494 48387 48316 48283 48268 48270 48302 48395 48480 48563 48623 48693 48762 48771 48667 48556 48509 48494 48498 48517 48551 48576 48622 48665 48732 48774 48815 48882 48890 48804 48691 48648 48641 48639 48656 48662 48686 48732 48800 48874 48962 49039 49089 49151 49101 49018 48956 48959 48970 49025 49021 49038 49080 49264 49563 49828 49991 50086 50252 50440 50650 50808 50934 51054 51176 51248 51322 51374 51457 51548 51712 51886 52052 52172 52285 52342 52427 52503 52562 52590 52617 52619 52653 52692 52708 52619 52335 51965 51778 51549 51282 51425 51755 51930 52133 52292 52389 52467 52556 52631 52663 52735 52792 52825 52856 52891 52946 52974 53020 53062 53086 53133 53169 53214 53256 53298 53330 53375 53356 53318 53280 53187 53076 52913 52887 52878 52871 52939 53007 53112 53249 53311 53396 53414 53457 53518 53493 53519 53520 53534 53601 53628 53715 53796 53807 53759 53737 53700 53813 53984 54119 54139 54160 54127 54140 54027 53832 53605 53371 53134 52835 52402 51911 51464 51119 50813 50523 50258 50042 49879 49704 49568 49482 49407 49361 49090 48763 48516 48382 48317 48269 48235 48222 48244 48275 48294 48335 48370 48401 48321 48245 48148 48046 47985 47936 47893 47886 47880 47897 46183 44442 44450 44482 44544 44529 44410 44266 44187 44196 44226 44199 44227 44414 44760 45072 45157 45154 45082 44936 44725 44562 44479 44434 44387 44398 44416 44482 44509 44525 44525 44547 44628 44704 44710 44703 44772 44835 44850 44811 44757 44743 44747 44788 44769 44780 44826 44864 44795 44759 44785 44789 44817 44836 44841 44884 44913 44917 44954 44969 44974 45052 45084 45033 44971 44937 44899 44803 44736 44651 44570 44547 44582 44572 44653 44747 44716 44642 44625 44723 44808 44843 44866 44883 44878 45357 46133 46718 47213 47746 48215 48441 48299 47842 47460 47212 46925 46671 46441 46233 46153 46059 45976 45873 45742 45589 45392 45126 44889 44713 44608 44611 44565 44475 44391 44385 44450 44611 44708 44819 44849 44961 45124 45308 46053 46655 46883 47092 47262 47324 47458 47597 47711 47732 47816 48197 48577 48652 48710 48758 48746 48735 48922 49048 49090 49077 49032 49005 48959 48846 48746 48602 48553 48522 48555 48646 48784 48855 48966 49061 49158 49202 49208 49204 49158 49157 49157 49141 49166 49235 49293 49389 49488 49696 49883 49821 49612 49224 48856 48542 48297 48062 47798 47539 47309 47097 46926 46820 46758 46709 46631 46496 46266 46095 45966 45846 45654 45438 45296 45221 45189 45176 45217 45224 45253 45134 44912 44715 44561 44460 44407 44407 44444 44486 44527 44542 44565 44660 44883 45343 45809 46329 46801 47269 47704 47966 48153 48231 48330 48461 48552 48662 48750 48815 48843 48871 48900 48920 48977 49054 49143 49240 49363 49473 49589 49678 49774 49844 49910 49970 50041 50083 50144 50192 50255 50292 50346 50373 50427 50465 50511 50536 50577 50627 50670 50684 50738 50770 50814 50888 50950 51011 51078 51125 51167 51199 51216 51257 51315 51354 51394 51427 51474 51502 51532 51540 51563 51582 51592 51582 51617 51614 51624 51636 51636 51642 51648 51661 51688 51684 51722 51718 51739 51742 51779 51807 51814 51831 51874 51897 51904 51916 51934 51954 51990 52028 52038 52057 52042 51987 51954 51945 51950 51955 51944 51947 51906 51896 51891 51905 51914 51933 51960 51963 51960 51956 51884 51856 51842 51832 51835 51827 51848 51842 51867 51885 51876 51891 51914 51924 51965 51979 52010 52036 52072 52131 52168 52271 52348 52383 52339 52327 52251 52196 52176 52166 52142 52111 52114 52118 52108 52008 51912 51786 51685 51680 51675 51700 51719 51732 51740 51750 51753 51760 51762 51768 51696 51636 51611 51613 51629 51563 51524 51453 51417 51418 51450 51462 51493 51505 51539 51524 51477 51477 51503 51517 51528 51510 51502 51475 51421 51401 51444 51533 51611 51669 51714 51739 51767 51821 51876 51893 51909 51914 51936 51934 51901 51868 51866 51863 51862 51875 51822 51785 51786 51795 51836 51837 51820 51836 51839 51838 51809 51777 51677 51640 51633 51612 51595 51568 51593 51569 51583 51590 51599 51595 51606 51617 51641 51623 51648 51668 51691 51703 51681 51671 51652 51653 51662 51644 51647 51653 51675 51670 51698 51746 51754 51749 51759 51722 51676 51667 51685 51701 51741 51751 51759 51784 51815 51837 51832 51818 51807 51791 51766 51746 51717 51711 51708 51709 51750 51729 51736 51737 51746 51735 51752 51787 51786 51798 51753 51670 51670 51645 51645 51640 51639 51638 51630 51650 51657 51665 51667 51672 51690 51723 51677 51654 51667 51700 51744 51761 51776 51795 51790 51790 51799 51793 51811 51803 51784 51759 51756 51757 51780 51783 51800 51835 51829 51867 51900 51891 51899 51934 51960 51966 51958 51910 51885 51875 51869 51861 51877 51857 51898 51896 51889 51891 51918 51908 51908 51877 51878 51890 51929 51985 51995 52043 52037 51997 51997 51992 51984 51985 51989 51967 51954 51942 51943 51946 51949 51955 51960 51962 51964 51955 51970 51969 51883 51725 51609 51436 51334 51302 51288 51327 51515 51680 51735 51753 51763 51781 51793 51803 51748 51616 51467 51369 51309 51221 51167 51066 50983 50830 50768 50771 50815 50912 50919 50824 50688 50643 50686 50867 51075 51187 51118 50984 50849 50676 50520 50311 50135 49840 49476 49155 48887 48639 48397 48197 48049 47857 47665 47489 47322 47158 46997 46833 46535 46177 45863 45635 45432 45256 45080 44936 44817 44710 44616 44526 44434 44350 44217 43969 43728 43622 43581 43742 44017 44460 44822 45141 45388 45602 45769 45888 46017 46133 46253 46365 46471 46584 46673 46762 46849 46915 46961 47050 47116 47184 47262 47298 47333 47383 47410 47460 47506 47547 47600 47647 47682 47728 47767 47796 47835 47871 47879 47879 47899 47934 47987 48019 48045 48066 48087 48155 48168 48193 48227 48251 48239 48227 48236 48246 48268 48284 48305 48315 48337 48365 48401 48418 48458 48451 48408 48380 48396 48438 48444 48456 48493 48499 48520 48532 48541 48518 48456 48291 47931 47494 47088 46772 46489 46228 46001 45794 45617 45488 45366 45247 45161 45026 44816 44779 44914 45192 45478 45681 45849 45989 46132 46271 46377 46482 46594 46666 46736 46806 46867 46956 47032 47110 47193 47243 47319 47371 47430 47479 47546 47571 47609 47619 47665 47717 47756 47792 47836 47872 47906 47946 47979 48017 48047 48056 48047 48033 48042 48067 48116 48127 48159 48211 48220 48241 48285 48324 48325 48357 48338 48309 48322 48340 48368 48410 48431 48437 48473 48501 48531 48570 48589 48598 48584 48560 48579 48608 48614 48650 48685 48723 48762 48770 48793 48817 48837 48871 48867 48851 48840 48852 48855 48856 48848 48813 48833 48860 48911 48938 48965 48985 49001 49000 49001 48971 48957 48994 48995 49020 49047 49060 49081 49099 49103 49124 49126 49139 49134 49127 49116 49103 49060 48957 48827 48717 48532 48337 48123 47926 47733 