24043 24041 24058 24054 24058 24051 24055 24055 24075 24070 24075 24078 24069 24034 24040 24024 24015 24015 24000 23988 23276 23426 23469 23481 23502 23506 23500 23511 23529 23522 23522 23528 23517 23518 23524 23526 23525 23529 23531 23542 23525 23498 23498 23494 23489 23482 23485 23476 23481 23467 23472 23470 23452 23464 23455 23431 23421 23400 23394 23403 23400 23410 23401 23407 23418 23425 23451 23446 23456 23453 23442 23416 23408 23415 23416 23418 23422 23419 23416 23430 23430 23449 23461 23454 23448 23421 23428 23433 23436 23438 23445 23438 23453 23460 23480 23484 23494 23504 23501 23483 23479 23475 23471 23497 23495 23496 23479 23494 23517 23508 23534 23533 23540 23551 23515 23506 23503 23519 23512 23515 23528 23529 23535 23537 23551 23564 23568 23581 23575 23546 23533 23534 23542 23546 23553 23543 23565 23544 23556 23571 23578 23592 23569 23570 23570 23555 23564 23560 23552 23578 23565 23566 23577 23587 23596 23604 23619 23644 23620 23604 23590 23599 23599 23599 23601 23593 23589 23599 23593 23588 23577 23587 23582 23583 23575 23559 23553 23545 23545 23558 23553 23547 23551 23552 23581 23590 23595 23613 23587 23554 23522 23498 23495 23509 23501 23491 23506 23501 23511 23513 23518 23536 23522 23531 23518 23507 23495 23483 23499 23516 23496 23499 23502 23504 23504 23522 23506 23528 23530 23533 23522 23509 23505 23501 23501 23494 23496 23503 23515 23507 23530 23515 23537 23552 23541 23536 23533 23511 23509 23512 23528 23539 23533 23534 23555 23552 23547 23571 23579 23593 23581 23572 23570 23579 23577 23579 23599 23593 23599 23601 23627 23629 23636 23641 23650 23635 23625 23623 23620 23630 23629 23633 23630 23635 23646 23646 23642 23660 23657 23661 23641 23652 23639 23608 23623 23627 23612 23609 23613 23630 23607 23618 23640 23623 23633 23613 23602 23541 23496 23443 23430 23405 23368 23324 23298 23287 23295 23326 23345 23362 23339 23300 23283 23289 23287 23287 23289 23278 23279 23278 23290 23307 23324 23339 23324 23276 23242 23243 23240 23256 23240 23272 23270 23299 23333 23366 23356 23353 23330 23316 23322 23322 23336 23338 23324 23347 23369 23380 23404 23401 23428 23439 23434 23442 23439 23418 23403 23411 23418 23424 23443 23458 23449 23475 23479 23487 23480 23467 23465 23462 23459 23469 23469 23480 23465 23484 23484 23487 23485 23508 23488 23467 23455 23446 23450 23430 23439 23440 23450 23444 23446 23443 23451 23447 23464 23453 23443 23469 23512 23529 23557 23577 23609 23622 23638 23641 23666 23664 23687 23677 23626 23542 23519 23510 23554 23561 23590 23620 23618 23615 23606 23595 23576 23575 23570 23514 23443 23395 23366 23345 23296 23284 23273 23278 23307 23354 23445 23516 23573 23596 23604 23621 23639 23673 23675 23687 23706 23696 23703 23719 23706 23705 23698 23696 23648 23554 23502 23462 23444 23415 23366 23320 23295 23265 23228 23209 23220 23201 23175 23108 23026 22921 22880 22845 22814 22786 22745 22730 22714 22703 22704 22706 22705 22699 22685 22609 22528 22469 22456 22441 22407 22375 22355 22346 22329 22330 22323 22317 22320 22289 22198 22117 22068 22061 22041 22021 21994 21982 21986 21984 21977 22002 21993 22009 21955 21886 21806 21796 21764 21760 21744 21732 21720 21700 21702 21715 21694 21700 21670 21548 21447 21361 21333 21312 21288 21277 21238 21229 21226 21228 21214 21218 21219 21134 21017 20934 20898 20880 20865 20862 20840 20821 20815 20810 20814 20816 20835 20768 20645 20546 20482 20432 20423 20406 20406 20385 20374 20375 20372 20389 20395 20387 20267 20124 20055 20002 19976 19955 19919 19896 20017 20350 20577 20679 20786 20846 20889 20934 20988 21060 21139 21203 21237 21275 21288 21280 21307 21320 21292 21265 21214 21129 20994 20826 20735 20678 20617 20521 20404 20234 20068 19934 19793 19680 19594 19471 19251 18979 18725 18539 18420 18304 18154 18028 17909 17796 17700 17594 17537 17472 17363 17160 16952 16822 16780 16770 16795 16788 16742 16704 16716 16726 16775 16839 16924 16959 16902 16831 16786 16810 16832 16857 16827 16786 16729 16703 16651 16649 16619 16628 16599 16475 16334 16265 16224 16221 16213 16188 16153 16161 16151 16172 16203 16218 16250 16186 16048 15969 15945 15944 15953 15963 15952 15937 15944 15973 15984 16006 16041 16020 15914 15812 15767 15792 15827 15855 15849 15863 15861 15902 15933 15965 15982 16006 15941 15840 15791 15785 15819 15847 15867 15876 15888 15901 15934 15970 16000 16040 15996 15899 15830 15804 15848 15881 15903 15910 15922 15926 15957 16003 16028 16045 16062 15990 15910 15865 15855 15892 15916 15939 15926 15930 15933 15978 15985 16017 16035 16033 15938 15840 15813 15824 15862 15866 15880 15866 15879 15891 15921 15947 15965 16002 15987 15875 15804 15759 15796 15824 15839 15840 15843 15855 15879 15892 15932 15947 15972 15960 15862 15786 15765 15768 15793 15813 15825 15820 15852 15867 15903 15922 15949 15976 16017 16009 15933 15844 15823 15850 15887 15959 16191 16437 16673 16869 17044 17225 17389 17573 17826 17989 18114 18247 18352 18464 18609 18800 18991 19181 19400 19630 19849 20032 20183 20362 20526 20640 20738 20786 20863 20988 21086 21127 21170 21223 21232 21251 21280 21269 21260 21276 21280 21271 21275 21261 21280 21280 21271 21280 21280 21270 21273 21133 21088 21087 21081 21092 21103 21099 21085 21091 21124 21118 21142 21145 21161 21164 21168 21188 21170 21135 21112 21090 21109 21113 21113 21121 21114 21128 21119 21135 21145 21145 21161 21172 21192 21191 21149 21096 21068 21053 21035 21013 21015 21033 21042 21066 21046 21039 21041 21044 21069 21098 21107 21188 21239 21273 21313 21318 21335 21329 21336 21339 21338 21359 21385 21381 21403 21412 21421 21435 21452 21451 21417 21339 21318 21296 21289 21297 21285 21269 21250 21237 21220 21207 21217 21206 21201 21187 21183 21174 21080 20938 20842 20772 20731 20711 20652 20611 20543 20518 20494 20475 20454 20435 20408 20406 20393 20299 20155 20033 19975 19924 19892 19847 19788 19730 19707 19678 19667 19661 19655 19615 19628 19591 19473 19318 19212 19135 19087 19055 19010 18945 18910 18862 18843 18829 18816 18806 18814 18817 18754 18613 18465 18384 18332 18300 18265 18207 18157 18117 18114 18098 18101 18091 18077 18072 18077 18046 17892 17773 17725 17692 17669 17652 17621 17589 17582 17560 17569 17582 17587 17593 17604 17615 17602 17481 17399 17348 17348 17352 17343 17337 17316 17314 17324 17352 17355 17380 17424 17419 17447 17430 17331 17275 17261 17253 17276 17272 17263 17259 17270 17319 17324 17345 17382 17402 17432 17459 17465 17391 17349 17338 17347 17352 17358 17382 17376 17397 17420 17455 17482 17505 17515 17565 17582 17604 17580 17547 17526 17539 17560 17571 17580 17598 17609 17654 17699 17728 17765 17802 17814 17855 17907 17906 17892 17894 17948 17986 18044 18063 18111 18142 18193 18226 18259 18303 18332 18371 18407 18437 18434 18412 18409 18414 18442 18452 18455 18466 18478 18485 18499 18520 18545 18561 18584 18594 18600 18583 18563 18554 18557 18567 18566 18570 18561 18578 18586 18599 18598 18612 18635 18637 18649 18617 18563 18554 18542 18549 18556 18548 18542 18533 18537 18545 18562 18544 18544 18560 18546 18549 18719 19117 19477 19730 19890 20023 20138 20295 20433 20518 20608 20687 20789 20940 21041 21201 21360 21496 21622 21724 21808 21874 21922 21973 22018 22066 22089 22125 22160 22178 22193 22213 22231 22218 22251 22294 22352 22362 22393 22408 22410 22424 22428 22436 22454 22457 22475 22473 22484 22485 22506 22524 22551 22573 22576 22586 22585 22600 22554 22533 22510 22562 22615 22635 22629 22637 22618 22548 22514 22454 22443 22409 22388 22368 22350 22343 22353 22340 22336 22347 22341 22323 22240 22156 22135 22113 22101 22097 22096 22158 22258 22359 22415 22494 22550 22610 22633 22641 22647 22645 22648 22669 22671 22697 22710 22728 22736 22751 22774 22797 22808 22823 22819 22831 22844 22851 22868 22886 22934 22950 22993 23023 23058 23076 23100 23083 23069 23047 23042 23017 23009 22979 22923 22704 22589 22518 22442 22372 22292 22209 22140 22081 22039 22098 22216 22272 22299 22303 22239 22160 22084 22041 22009 21979 21919 21877 21846 21814 21772 21749 21706 21677 21624 21591 21509 21334 21136 20973 20875 20773 20679 20573 20485 20397 20345 20284 20233 20191 20151 20121 20092 19999 19837 19664 19541 19456 19386 19321 19258 19191 19138 19092 19079 19045 19018 19001 18982 18959 18865 18719 18597 18539 18493 18476 18423 18369 18339 18310 18317 18308 18311 18312 18321 18332 18283 18154 18053 18035 18102 18221 18303 18368 18389 18422 18472 18503 18551 18589 18623 18689 18718 18675 18622 18589 18606 18621 18651 18689 18717 18741 18800 18841 18906 18949 18999 19065 19120 19111 19097 19092 19128 19167 19191 19233 19268 19321 19374 19428 19471 19530 19568 19594 19662 19661 19663 19663 19680 19725 19762 19789 19806 19831 19853 19876 19901 19943 19988 19995 20017 20008 19985 19998 19999 20044 20055 20059 20080 20096 20119 20168 20179 20213 20238 20266 20261 20226 20223 20236 20261 20269 20262 20272 20300 20310 20320 20332 20356 20363 20383 20388 20365 20329 20303 20313 20318 20324 20327 20331 20340 20354 20379 20389 20416 20431 20465 20456 20432 20406 20411 20426 20449 20455 20474 20480 20509 20528 20542 20566 20597 20614 20637 20623 20584 20573 20562 20566 20583 20584 20604 20583 20594 20601 20621 20640 20665 20673 20660 20588 20525 20499 20470 20474 20471 20451 20450 20454 20470 20503 20524 20460 20466 20478 20497 20519 20542 20596 20666 20781 20896 21026 21138 21227 21312 21381 21448 21492 21520 21561 21556 21583 21594 21630 21647 21672 21700 21723 21742 21769 21795 21819 21849 21894 21933 21972 21999 22031 22049 22090 22139 22169 22207 22246 22263 22276 22288 22305 22341 22351 22359 22375 22396 22382 22368 22390 22410 22441 22472 22479 22494 22515 22523 22532 22551 22553 22575 22593 22592 22545 22484 22480 22510 22556 22587 22603 22627 22634 22669 22676 22696 22713 22738 22738 22740 22726 22710 22614 22620 22654 22661 22686 22711 22733 22745 22750 22763 22763 22774 22774 22780 22783 22793 22794 22753 22687 22696 22732 22762 22776 22788 22796 22821 22818 22831 22844 22854 22853 22858 22875 22867 22873 22826 22784 22814 22843 22865 22904 22906 22930 22936 22946 22965 22957 22968 22976 22971 22984 22976 22926 22845 22838 22858 22910 22908 22945 22954 22982 22991 23010 23034 23036 23045 23042 23029 23045 23001 22886 22855 22876 22897 22931 22954 22964 22993 23013 23036 23046 23050 23023 22989 22998 23004 22986 22979 22949 22969 22962 22981 22992 23002 23006 23027 23025 23043 23052 23080 23095 23083 23091 23077 23079 23044 23052 23061 23076 23088 23088 23106 23117 23140 23144 23148 23157 23173 23190 23180 23159 23163 23158 23172 23176 23187 23199 23200 23208 23233 23241 23240 23265 23275 23270 23275 23248 23246 23250 23239 23258 23251 23229 23221 23213 23198 23161 23116 23072 23053 23043 22987 22846 22825 22819 22831 22852 22826 22851 22851 22887 22920 22973 23001 23010 22989 22940 22834 22764 22708 22688 22687 22654 22604 22578 22552 22540 22510 22500 22499 22470 22384 22270 22171 22103 22086 22043 22030 21973 21943 21912 21880 21886 21890 21894 21873 21770 21665 21588 21539 21516 21496 21483 21444 21435 21437 21438 21442 21482 21481 21464 21380 21308 21251 21218 21204 21190 21203 21218 21250 21276 21302 21339 21375 21428 21412 21319 21226 21142 21086 21051 21008 20941 20877 20837 20765 20746 20692 20627 20565 20415 20178 19941 19741 19599 19478 19384 19254 19158 19089 19044 19030 19022 18991 18980 18897 18710 18583 18484 18416 18358 18327 18280 18236 18214 18196 18201 18190 18206 18197 18214 18105 17951 17840 17772 17716 17679 17654 17642 17622 17633 17651 17662 17708 17734 17770 17802 17840 17813 17699 17618 17589 17590 17591 17607 17606 17630 17655 17680 17727 17751 17809 17851 17890 17940 17980 18017 17916 17815 17747 17709 17691 17684 17690 17701 17701 17755 17798 17841 17886 17957 18006 18062 18123 18184 18220 18192 18122 18090 18106 18102 18128 18145 18138 18098 18087 18054 18035 18025 18011 17978 17910 17851 17774 17666 17511 17367 17261 17189 17111 17034 16984 16922 16869 16843 16800 16790 16765 16745 16727 16714 16703 16708 16670 16593 16538 16505 16479 16463 16466 16441 16448 16456 16451 16468 16491 16510 16546 16554 16581 16608 16636 16661 16618 16566 16558 16567 16569 16590 16589 16593 16609 16631 16650 16655 16689 16714 16743 16757 16763 16780 16767 16719 16721 16715 16721 16734 16740 16767 16781 16805 16825 16834 16860 16896 16919 16965 16996 17023 17036 17007 16996 16992 17009 17036 17065 17091 17112 17147 17207 17324 17457 17580 17714 17849 17834 17818 17872 17907 17921 17986 18050 18117 18191 18269 18329 18384 18443 18477 18542 18610 18692 18790 18892 18974 19007 18988 18946 18921 18920 18934 19002 19151 19361 19608 19828 19993 20167 20322 20475 20619 20766 20902 21039 21128 21189 21198 21216 21302 21382 21483 21559 21631 21670 21705 21701 21693 21678 21650 21553 21434 21370 21352 21343 21320 21268 21181 21104 21004 20901 20838 20773 20721 20665 20574 20441 20290 20156 20045 19964 19880 19792 19701 19627 19541 19474 19397 19373 19322 19300 19236 19139 19036 18960 18902 18849 18786 18745 18707 18666 18640 18617 18591 18566 18526 18462 18312 18179 18089 18034 18002 17985 17940 17907 17871 17850 17822 17802 17783 17774 17724 17654 17580 17515 17481 17445 17412 17374 17347 17345 17343 17331 17342 17345 17353 17316 17212 17121 17086 17072 17079 17096 17098 17112 17130 17157 17171 17193 17286 17463 17580 17654 17628 17634 17663 17621 17585 17534 17509 17521 17555 17609 17641 17656 17708 17671 17620 17568 17562 17547 17554 17552 17577 17558 17565 17569 17593 17593 17584 17583 17527 17471 17418 17407 17420 17401 17373 17337 17359 17397 17409 17402 17392 17402 17425 17389 17313 17256 17227 17197 17152 17128 17092 17112 17118 17100 17054 17046 17052 17072 17051 17030 17005 16951 16884 16878 16909 16916 16878 16853 16874 16909 16914 16913 16936 16916 16879 16827 16802 16815 16848 16851 16833 16795 16794 16825 16852 16891 16928 16934 16856 16761 16776 16795 16824 16792 16786 16830 16844 16860 16859 16897 16905 16914 16923 16894 16879 16864 16831 16810 16791 16802 16835 16862 16884 16911 16899 16861 16843 16885 16902 16851 16809 16818 16854 16872 16887 16886 16894 16901 16909 16930 16989 17053 17072 17013 16916 16860 16851 16852 16854 16858 16866 16859 16817 16799 16811 16893 16920 16862 16815 16794 16799 16780 16797 16803 16807 16819 16798 16798 16847 16863 16860 16847 16823 16795 16757 16735 16749 16767 16748 16712 16681 16686 16712 16714 16707 16729 16752 16765 16787 16742 16694 16661 16636 16619 16629 16681 16689 16687 16654 16625 16641 16642 16638 16680 16670 16609 16526 16467 16433 16522 16574 16533 16487 16470 16515 16520 16540 16550 16577 16588 16582 16503 16468 16466 16464 16453 16419 16404 16414 16436 16467 16500 16512 16490 16443 16432 16470 16451 16390 16324 16329 16352 16373 16371 16368 16374 16361 16348 16359 16375 16385 16393 16329 16239 16212 16183 16203 16218 16234 16225 16181 16131 16136 16256 16320 16301 16239 16239 16236 16201 16169 16158 16159 16145 16129 16101 16093 16128 16143 16128 16090 16071 16080 16047 16022 16017 15999 15948 15899 15883 15949 15967 15935 15884 15896 15943 15970 15974 15977 15939 15880 15850 15829 15927 16122 16226 16256 16239 16234 16210 16196 16217 16270 16280 16180 16065 16027 16070 16026 15946 15891 15866 15886 15899 15908 15899 15898 15902 15889 15846 15814 15782 15737 15686 15649 15645 15680 15730 15780 15818 15812 15777 15750 15802 15847 15799 15726 15685 15689 15743 15795 15819 15791 15777 15740 15728 15721 15726 15725 15700 15630 15554 15531 15537 15590 15680 15733 15727 15676 15615 15627 15705 15728 15688 15651 15637 15622 15623 15621 15616 15615 15578 15566 15558 15543 15531 15545 15535 15492 15471 15430 15436 15504 15561 15545 15519 15461 15447 15584 15669 15662 15617 15681 15781 15817 15784 15744 15707 15702 15701 15668 15698 15693 15696 15666 15612 15582 15567 15574 15602 15613 15568 15544 15488 15470 15584 15623 15578 15524 15520 15594 15635 15643 15645 15646 15597 15555 15536 15526 15543 15539 15526 15480 15434 15440 15494 15568 15648 15679 15667 15616 15523 15508 15632 15677 15641 15596 15592 15589 15611 15634 15630 15644 15613 15631 15623 15591 15547 15521 15488 15459 15417 15428 15462 15529 15589 15623 15614 15575 15541 15625 15690 15663 15596 15566 15597 15652 15685 15697 15696 15681 15670 15653 15619 15640 15666 15615 15539 15477 15444 15480 15530 15607 15644 15664 15647 15599 15575 15676 15753 15740 15694 15682 15717 15721 15733 15778 15775 15758 15734 15711 15819 15944 15976 15923 15875 15805 15723 15691 15727 15789 15807 15784 15724 15668 15746 15783 15742 15710 15695 15745 15775 15794 15902 15950 15957 15948 15912 15893 15885 15863 15812 15752 15719 15711 15715 15721 15676 15619 15556 15497 15472 15520 15545 15503 15457 15471 15548 15590 15604 15605 15590 15558 15509 15433 15400 15401 15375 15330 15277 15233 15234 15257 15318 15348 15350 15317 15226 15128 15104 15184 15190 15128 15093 15124 15163 15168 15182 15132 15107 15098 15082 15068 15160 15336 15393 15355 15308 15245 15185 15167 15204 15217 15194 15143 15091 15075 15115 15098 15080 15090 15165 15196 15225 15255 15270 15247 15217 15220 15200 15248 15250 15195 15105 15065 15052 15123 15206 15290 15326 15314 15277 15210 15216 15288 15314 15267 15206 15221 15245 15276 15318 15333 15322 15300 15291 15273 15346 15378 15364 15325 15269 15217 15245 15311 15424 15452 15441 15401 15343 15327 15358 15379 15379 15463 15547 15578 15539 15492 15461 15441 15434 15427 15413 15431 15426 15404 15378 15341 15331 15380 15438 15479 15477 15448 15376 15301 15361 15462 15456 15403 15368 15392 15456 15593 15770 15888 15894 15848 15773 15723 15712 15696 15628 15547 15479 15448 15507 15583 15653 15673 15619 15526 15410 15421 15534 15530 15474 15419 15480 15553 15625 15661 15656 15646 15630 15588 15514 15483 15432 15368 15298 15255 15256 15273 15342 15441 15481 15473 15423 15345 15415 15507 15480 15388 15320 15321 15384 15432 15431 15401 15379 15349 15307 15310 15315 15277 15226 15138 15101 15060 15099 15176 15265 15347 15366 15333 15259 15224 15336 15409 15350 15248 15228 15268 15307 15335 15352 15342 15323 15293 15301 15301 15323 15317 15232 15133 15077 15129 15222 15334 15392 15383 15330 15268 15247 15346 15391 15372 15293 15255 15255 15308 15308 15318 15313 15303 15278 15276 15260 15288 15307 15297 15254 15162 15103 15118 15176 15272 15353 15367 15318 15255 15246 15382 15439 15433 15406 15456 15487 15487 15465 15448 15457 15449 15436 15418 15403 15429 15431 15412 15367 15336 15280 15225 15225 15293 15304 15318 15263 15211 15273 15364 15365 15307 15280 15314 15340 15306 15287 15272 15257 15267 15277 15278 15281 15274 15278 15255 15187 15179 15206 15224 15246 15282 15300 15285 15255 15213 15345 15467 15441 15374 15343 15371 15395 15447 15463 15435 15402 15372 15361 15366 15387 15395 15380 15318 15286 15265 15301 15311 15345 15342 15286 15194 15143 15183 15299 15306 15256 15227 15286 15330 15363 15389 15410 15409 15399 15331 15268 15266 15278 15261 15215 15153 15142 15160 15198 15266 15310 15315 15299 15228 15154 15205 15220 15195 15142 15144 15221 15271 15280 15263 15268 15266 15241 15228 15206 15186 15142 15100 15041 15025 15038 15070 15125 15195 15229 15221 15175 15123 15176 15292 15253 15179 15108 15129 15200 15258 15261 15231 15213 15217 15204 15175 15193 15263 15204 15124 15064 15030 15030 15071 15145 15194 15185 15148 15101 15099 15216 15253 15218 15132 15117 15161 15225 15269 15287 15277 15269 15245 15221 15223 15233 15217 15182 15159 15122 15075 15088 15176 15213 15200 15149 15054 15189 15366 15403 15346 15303 15351 15430 15461 15409 15373 15360 15372 15375 15346 15351 15354 15338 15277 15238 15219 15211 15243 15315 15354 15363 15324 15261 15217 15317 15344 15333 15282 15267 15252 15250 15276 15310 15301 15256 15219 15219 15235 15250 15220 15196 15149 15148 15146 15208 15277 15370 15383 15356 15245 15171 15261 15319 15307 15251 15239 15272 15318 15298 15283 15233 15218 15192 15160 15108 15078 15081 15051 15014 14993 14987 15030 15104 15204 15220 15202 15145 15145 15284 15279 15215 15132 15147 15218 15267 15315 15310 15303 15262 15251 15232 15219 15248 15269 15215 15132 15087 15093 15122 15232 15324 15340 15332 15255 15200 15192 15241 15229 15198 15200 15203 15228 15240 15300 15322 15285 15274 15253 15210 15210 15233 15225 15186 15123 15079 15091 15164 15263 15305 15303 15242 15193 15239 15326 15336 15289 15263 15339 15377 15363 15321 15299 15304 15289 15262 15249 15241 15247 15237 15203 15181 15175 15194 15202 15221 15230 15210 15177 15137 15118 15172 15173 15147 15142 15228 15306 15338 15338 15290 15216 15185 15168 15167 15179 15187 15168 15122 15083 15056 15095 15180 15259 15257 15205 15124 15089 15175 15312 15320 15264 15217 15267 15321 15328 15321 15318 15321 15277 15238 15198 15211 15222 15218 15174 15118 15088 15101 15161 15268 15333 15338 15286 15194 15116 15181 15248 15240 15186 15167 15196 15246 15291 15313 15329 15329 15330 15321 15301 15301 15311 15289 15219 15175 15168 15199 15253 15337 15386 15404 15377 15305 15231 15286 15316 15293 15246 15233 15277 15326 15325 15342 15345 15338 15323 15312 15374 15408 15415 15425 15399 15379 15372 15392 15414 15475 15520 15508 15508 15472 15463 15512 15515 15477 15425 15396 15414 15415 15403 15386 15394 15386 15396 15385 15407 15401 15394 15374 15345 15266 15234 15219 15226 15241 15251 15280 15300 15320 15302 15276 15340 15486 15465 15402 15291 15297 15335 15334 15345 15363 15361 15358 15421 15529 15562 15591 15555 15499 15401 15316 15272 15250 15250 15293 15310 15287 15250 15191 15199 15234 15246 15228 15263 15359 15392 15340 15277 15260 15265 15293 15280 15279 15258 15235 15207 15209 15190 15152 15124 15175 15221 15162 15149 15227 15308 15306 15270 15189 15212 15301 15299 15200 15171 15151 15167 15151 15124 15111 15094 15067 15046 15016 14994 15012 15034 15003 14971 14939 14934 14970 14991 15040 15084 15044 14971 14899 14921 14944 14931 14908 15004 15085 15095 15083 15100 15117 15124 15105 15116 15092 15040 15013 15018 14982 14950 14945 14961 14984 15005 15044 15083 15080 15067 15140 15189 15154 15092 15049 15011 15049 15100 15141 15231 15245 15235 15220 15160 15146 15163 15194 15286 15547 15931 16500 17063 17806 18569 19214 19797 20437 20868 21235 21530 21666 21650 21591 21580 21436 21347 21296 21274 21259 21227 21122 21035 20956 20881 20833 20796 20735 20700 20645 20563 20428 20287 20166 20056 19955 19848 19729 19623 19537 19432 19322 19247 19193 19118 19041 18929 18786 18675 18569 18479 18415 18360 18320 18219 18106 18015 17973 17948 17956 17991 17937 17845 17715 17543 17526 17559 17528 17447 17413 17395 17335 17293 17289 17287 17276 17270 17160 17051 16973 16903 16855 16865 16884 16893 16907 16932 16974 16974 16951 16958 16914 16807 16741 16699 16707 16733 16842 16905 16910 16918 16888 16878 16882 16889 16890 16887 16904 16902 16890 16870 16821 16786 16797 16853 16974 17137 17330 17490 17665 17843 17942 17923 17881 17853 17876 17907 17941 18033 18014 17949 17887 17920 18009 18151 18286 18370 18444 18584 18606 18575 18533 18521 18546 18559 18625 18599 18538 18523 18587 18682 18738 18763 18780 18850 18899 18897 18914 18932 18918 18943 18973 18960 18858 18798 18810 18856 18891 18925 18955 19001 19122 19155 19170 19185 19211 19248 19267 19313 19414 19331 19288 19298 19299 19340 19320 19303 19357 19429 19450 19450 19475 19528 19555 19562 19650 19662 19576 19525 19475 19486 19508 19483 19508 19546 19509 19471 19470 19463 19468 19450 19504 19425 19287 19209 19202 19218 19235 19239 19228 19267 19250 19216 19203 19221 19226 19242 19241 19203 19119 19062 19088 19142 19209 19260 19275 19288 19269 19267 19257 19283 19292 19256 19236 19223 19158 19104 19059 19061 19091 19111 19127 19171 19216 19241 19224 19185 19094 19060 19033 19051 19059 19000 18942 18923 18948 18975 19007 19044 19079 19075 18985 18915 18872 18848 18843 18854 18891 18852 18807 18780 18815 18856 18890 18905 18888 18881 18811 18767 18755 18788 18810 18839 18894 18900 18847 18837 18864 18909 18935 18910 18866 18886 18871 18880 18922 18959 18979 19008 19071 19070 19017 19005 19003 18997 19005 18973 18961 19027 19047 19047 19081 19107 19160 19195 19237 19286 19201 19105 19077 19076 19093 19110 19127 19191 19193 19189 19204 19223 19245 19261 19258 19270 19180 19108 19084 19134 19151 19196 19180 19201 19231 19203 19216 19232 19205 19187 19174 19179 19132 19093 19109 19139 19187 19228 19232 19265 19321 19273 19201 19151 19124 19139 19149 19209 19240 19216 19199 19216 19258 19313 19324 19318 19279 19240 19177 19181 19159 19179 19202 19244 19281 19240 19214 19223 19267 19275 19253 19183 19153 19115 19072 19091 19112 19135 19161 19186 19252 19219 19161 19105 19099 19101 19142 19134 19118 19149 19150 19178 19177 19202 19248 19252 19290 19239 19143 19089 19083 19116 19157 19163 19169 19199 19209 19199 19198 19161 19113 19081 19063 19094 19019 18976 18983 19028 19097 19081 19107 19165 19161 19093 19026 18998 19001 19024 19054 19098 19083 19040 19023 19027 19058 19097 19099 19053 19028 19026 19016 19016 19048 19084 19119 19156 19253 19264 19200 19151 19128 19120 19112 19079 19094 19136 19144 19131 19124 19169 19236 19240 19259 19211 19104 19041 19058 19089 19115 19131 19141 19166 19204 19200 19153 19126 19077 19074 19076 19117 19133 19113 19104 19116 19168 19219 19289 19316 19285 19247 19154 19120 19130 19137 19181 19210 19242 19200 19149 19163 19143 19115 19099 19043 19031 19022 19007 19003 19034 19053 19060 19107 19157 19099 18979 18878 18855 18873 18892 18923 18946 18998 19084 19096 19096 19116 19063 19017 19017 19085 19086 19060 19032 19048 19079 19104 19110 19151 19167 19100 19038 19040 19039 19065 19062 19107 19111 19045 18999 18998 19032 19034 18996 18949 18929 18973 18977 18992 19043 19082 19129 19192 19278 19246 19141 19084 19081 19086 19100 19109 19099 19167 19195 19169 19211 19227 19198 19140 19146 19146 19127 19119 19128 19161 19198 19249 19291 19365 19313 19195 19112 19100 19095 19101 19164 19185 19094 19059 19070 19090 19116 19096 19047 19025 19026 18997 18959 18980 19009 19033 19087 19165 19146 19053 18986 18967 18977 19005 19017 19044 19047 19029 19019 19030 19051 19009 18915 18890 18866 18809 18793 18832 18873 18933 18957 19030 19087 19017 18922 18846 18824 18829 18846 18898 18918 18865 18815 18806 18859 18887 18854 18769 18785 18786 18733 18740 18773 18808 18829 18859 18899 18890 18782 18718 18696 18702 18736 18761 18863 18938 18923 18890 18896 18922 18930 18891 18910 18947 18916 18898 18902 18930 18952 19022 19023 19054 19041 18929 18876 18931 19032 19107 19167 19278 19315 19281 19249 19266 19290 19290 19284 19261 19261 19260 19232 19238 19274 19316 19348 19351 19335 19236 19129 19084 19091 19099 19107 19128 19130 19155 19152 19080 18995 18927 18909 18928 19007 19118 19141 19122 19116 19134 19166 19198 19160 19107 19102 19075 19049 19071 19080 19121 19168 19217 19290 19202 19078 19037 19059 19077 19121 19123 19182 19225 19186 19168 19167 19134 19106 19059 19115 19082 19049 19025 19049 19079 19112 19150 19133 19070 19014 18930 18858 18831 18854 18887 18928 18955 18925 18877 18830 18800 18780 18789 18786 18788 18831 18827 18829 18869 18906 18931 18884 18843 18778 18700 18642 18645 18675 18720 18773 18804 18844 18856 18777 18693 18639 18617 18635 18651 18693 18668 18616 18595 18627 18656 18652 18627 18581 18560 18569 18584 18626 18668 18717 18772 18795 18724 18615 18473 18410 18428 18487 18553 18606 18614 18663 18714 18698 18648 18627 18618 18637 18677 18736 18687 18623 18614 18650 18699 18712 18708 18692 18700 18673 18672 18695 18762 18815 18874 18926 19000 18895 18786 18727 18737 18789 18816 18843 18884 18958 18970 18994 18983 18960 18932 18929 18992 19049 19016 18972 18990 19022 19080 19106 19071 19029 19017 18968 18965 19009 19052 19108 19138 19206 19236 19133 19027 18969 18945 18954 18996 19039 19108 19115 19091 19105 19131 19138 19133 19106 19104 19076 19038 19049 19064 19122 19162 19193 19171 19113 18997 18917 18916 18931 18974 19012 19071 19117 19095 19065 19005 18975 18955 18977 18988 19002 19044 19054 19062 19107 19145 19156 19107 19056 18983 18891 18871 18881 18942 19007 19051 19089 19112 19021 18924 18847 18841 18852 18879 18906 18951 18916 18847 18835 18857 18841 18823 18796 18779 18817 18785 18793 18822 18864 18897 18932 18899 18787 18661 18600 18592 18632 18681 18718 18753 18810 18821 18782 18705 18663 18662 18687 18717 18778 18736 18670 18651 18678 18738 18742 18702 18644 18658 18662 18683 18729 18780 18810 18859 18888 18863 18758 18661 18636 18651 18701 18743 18730 18763 18813 18858 18874 18886 18884 18896 18894 18917 18896 18840 18798 18827 18894 18974 18996 18922 18903 18842 18820 18871 18915 18972 19006 19067 19065 19015 18919 18899 18910 18927 18935 18935 18968 18982 19004 19015 19063 19066 19020 18994 18956 18891 18857 18861 18895 18973 19029 19025 19065 19027 19001 18990 18984 19009 19039 19067 19088 19053 19023 19025 19036 19047 19046 19011 18993 19060 19058 19061 19091 19117 19158 19191 19165 19110 19001 18956 18940 18969 19001 19035 19075 19143 19179 19152 19102 19077 19091 19096 19124 19174 19127 19082 19070 19091 19133 19167 19152 19154 19175 19130 19110 19168 19218 19253 19276 19326 19294 19177 19076 19024 19021 19027 19046 19084 19140 19130 19136 19154 19162 19128 19091 19084 19084 19057 19044 19053 19044 19099 19136 19113 19072 19019 18930 18894 18895 18930 18952 18978 19017 18975 18919 18899 18854 18833 18817 18829 18821 18889 18877 18877 18908 18947 19004 18978 18910 18865 18780 18702 18683 18742 18787 18832 18865 18914 18947 18850 18772 18739 18744 18756 18801 18840 18851 18820 18783 18775 18789 18778 18747 18746 18739 18793 18788 18807 18838 18885 18934 18970 18945 18821 18690 18613 18614 18642 18704 18768 18750 18844 18856 18767 18679 18627 18597 18607 18640 18659 18627 18565 18549 18596 18684 18708 18667 18638 18655 18597 18588 18625 18679 18737 18755 18821 18789 18655 18544 18492 18518 18591 18635 18659 18768 18782 18763 18757 18725 18684 18642 18608 18673 18667 18618 18590 18613 18670 18737 18787 18790 18807 18767 18751 18768 18805 18853 18892 18918 18968 18946 18901 18872 18856 18870 18889 18899 18929 18981 18973 18965 18999 19036 19034 19006 18987 18956 18923 18908 18913 18964 19010 19045 19082 19097 19073 19004 18975 18997 19004 19033 19060 19101 19084 19030 19027 19037 19016 19033 19036 19058 19116 19132 19144 19172 19240 19298 19314 19283 19215 19122 19063 19050 19082 19126 19163 19205 19253 19302 19253 19184 19137 19139 19171 19183 19220 19242 19223 19195 19203 19215 19208 19203 19190 19188 19205 19200 19200 19203 19239 19282 19299 19242 19159 19055 18976 18954 18965 19025 19060 19093 19172 19230 19162 19050 18977 18972 18999 19022 19090 19183 19228 19212 19234 19244 19233 19189 19158 19185 19250 19252 19261 19280 19315 19332 19334 19276 19185 19056 18949 18928 18930 18977 19028 19052 19100 19169 19128 19050 18953 18960 19014 19047 19076 19119 19088 19052 19044 19043 19018 18982 18960 18955 18990 18965 18951 18981 19022 19062 19059 19016 18986 18886 18821 18807 18829 18885 18940 18995 19042 19060 18989 18890 18820 18801 18833 18848 18875 18833 18823 18793 18798 18816 18808 18835 18819 18849 18862 18836 18834 18881 18941 18997 18990 18951 18878 18803 18732 18724 18765 18837 18907 18953 19032 19049 18945 18897 18881 18917 18966 18984 19033 19025 18955 18914 18910 18902 18919 18927 18944 19009 19059 19034 19037 19098 19173 19197 19150 19132 19079 19015 18976 18983 19024 19063 19141 19213 19283 19224 19174 19160 19226 19289 19351 19412 19511 19521 19519 19512 19531 19524 19512 19458 19419 19452 19433 19419 19461 19509 19544 19518 19493 19444 19367 19297 19279 19292 19330 19362 19385 19434 19488 19472 19406 19387 19393 19446 19469 19495 19534 19526 19481 19446 19442 19392 19377 19343 19329 19341 19377 19356 19349 19376 19405 19428 19365 19349 19314 19255 19230 19219 19254 19302 19350 19401 19441 19412 19315 19228 19201 19197 19227 19240 19314 19391 19337 19288 19249 19249 19235 19244 19243 19268 19274 19197 19163 19141 19148 19127 19065 18993 18937 18896 18859 18851 18860 18915 18984 19051 19145 19100 18989 18892 18860 18886 18921 18941 18976 18962 18963 19000 19059 19090 19108 19236 19345 19543 19656 19915 20094 20222 20417 20562 20670 20744 20825 20930 21077 21207 21356 21511 21655 21796 21969 22095 22212 22286 22360 22433 22500 22572 22636 22680 22728 22753 22775 22769 22747 22718 22711 22695 22703 22695 22683 22634 22534 22467 22397 22317 22259 22196 22163 22126 22120 22129 22147 22169 22177 22143 22036 21899 21747 21640 21594 21543 21525 21502 21476 21452 21382 21231 21116 21049 21011 20997 20987 20958 20940 20934 20849 20726 20538 20362 20198 20089 20016 19994 19928 19877 19823 19809 19803 19784 19698 19615 19538 19512 19497 19463 19422 19418 19479 19541 19544 19409 19288 19219 19194 19177 19183 19194 19242 19269 19322 19356 19344 19284 19242 19200 19183 19207 19245 19282 19285 19335 19376 19347 19311 19284 19300 19303 19332 19352 19383 19418 19464 19523 19572 19529 19485 19469 19467 19496 19500 19522 19536 19530 19575 19556 19498 19452 19432 19410 19407 19414 19415 19450 19468 19513 19553 19560 19492 19390 19293 19283 19309 19318 19316 19322 19307 19335 19348 19343 19327 19315 19323 19364 19438 19455 19491 19515 19543 19611 19631 19615 19603 19595 19565 19577 19616 19652 19652 19626 19632 19602 19544 19500 19493 19541 19549 19570 19613 19676 19719 19827 19920 19968 19971 19967 19975 19985 20060 20181 20311 20438 20596 20779 20941 21056 21176 21269 21373 21485 21567 21657 21745 21822 21887 21950 22025 22066 22085 22099 22090 22112 22131 22151 22173 22163 22159 22141 22123 22051 22001 21998 21961 21950 21950 21947 21975 21980 21969 21971 21943 21895 21856 21821 21814 21806 21801 21785 21770 21760 21750 21733 21705 21637 21622 21659 21698 21732 21776 21799 21846 21884 21939 21978 21957 21926 21875 21869 21902 21874 21858 21863 21846 21829 21804 21786 21718 21667 21688 21737 21781 21832 21888 21995 22058 22149 22206 22250 22290 22329 22361 22408 22443 22513 22555 22605 22653 22696 22715 22760 22820 22860 22898 22925 22945 22971 22975 22981 23000 23027 23045 23046 23063 23063 23067 23066 23068 23073 23090 23095 23063 23014 22893 22790 22692 22630 22605 22600 22578 22562 22512 22507 22507 22489 22397 22288 22200 22143 22105 22072 22038 22001 21960 21932 21903 21825 21695 21571 21496 21464 21458 21437 21392 21342 21287 21230 21213 21107 20955 20828 20760 20741 20737 20758 20771 20777 20798 20830 20866 20842 20754 20705 20702 20737 20776 20794 20820 20838 20847 20840 20839 20763 20632 20544 20493 20493 20462 20435 20387 20343 20299 20264 20184 20003 19872 19758 19711 19698 19658 19582 19516 19470 19445 19413 19293 19115 18983 18910 18852 18825 18794 18747 18697 18665 18633 18594 18478 18331 18247 18210 18209 18196 18184 18154 18156 18145 18134 18100 17965 17884 17844 17833 17849 17847 17830 17811 17826 17841 17877 17826 17754 17717 17708 17728 17762 17781 17802 17814 17830 17845 17871 17849 17784 17752 17754 17782 17805 17838 17849 17868 17861 17860 17881 17839 17803 17845 17870 17925 17966 18007 18043 18105 18173 18244 18279 18224 18205 18193 18216 18249 18280 18313 18358 18407 18474 18521 18561 18582 18614 18641 18685 18763 18823 18829 18836 18850 18876 18899 18909 18891 18902 18938 19028 19116 19202 19289 19366 19461 19539 19594 19622 19652 19676 19712 19760 19804 19849 19902 19947 19962 20004 20026 20027 20011 20011 20009 20044 20085 20099 20104 20137 20138 20147 20144 20097 20056 20046 20069 20097 20139 20166 20196 20218 20251 20282 20305 20284 20261 20278 20294 20330 20354 20382 20392 20409 20449 20462 20472 20424 20389 20379 20397 20425 20434 20451 20448 20463 20485 20499 20466 20404 20351 20334 20338 20348 20374 20374 20374 20389 20400 20408 20335 20252 20207 20194 20205 20219 20220 20211 20200 20219 20213 20231 20136 20068 20021 20031 20050 20062 20066 20074 20087 20099 20120 20138 20067 19988 19969 19960 19987 19994 19999 20014 20038 20057 20071 20076 20017 19975 19960 20020 20081 20186 20277 20395 20531 20662 20800 20889 20856 20809 20811 20787 20770 20746 20691 20605 20520 20407 20279 20104 19888 19701 19564 19459 19347 19226 19124 19020 18894 18804 18726 18559 18371 18236 18151 18076 18021 17935 17885 17825 17782 17762 17715 17586 17483 17420 17410 17388 17375 17321 17282 17259 17241 17221 17165 17049 16966 16951 16948 16970 16958 16927 16889 16875 16844 16843 16788 16697 16642 16620 16630 16631 16627 16603 16604 16602 16592 16584 16567 16476 16430 16426 16442 16452 16453 16467 16454 16454 16474 16470 16437 16376 16368 16373 16403 16428 16429 16433 16427 16449 16446 16482 16455 16462 16477 16510 16541 16545 16553 16580 16623 16670 16713 16726 16708 16695 16680 16706 16726 16732 16757 16759 16780 16805 16818 16819 16788 16800 16793 16819 16830 16845 16848 16860 16865 16860 16883 16878 16844 16827 16840 16849 16856 16863 16878 16871 16889 16905 16925 16907 16901 16904 16929 16956 16970 17008 17035 17062 17087 17113 17123 17110 17116 17129 17126 17155 17170 17185 17205 17220 17224 17258 17250 17237 17245 17248 17254 17276 17284 17306 17305 17320 17336 17336 17332 17298 17306 17289 17295 17296 17294 17282 17285 17273 17289 17276 17237 17208 17188 17183 17185 17174 17157 17159 17163 17150 17166 17149 17113 17086 17077 17081 17120 17115 17118 17106 17117 17135 17128 17110 17038 17004 17003 17010 17012 17014 17015 17007 17017 17038 17050 16988 16921 16901 16902 16921 16939 16932 16943 16937 16941 16944 16946 16904 16850 16811 16823 16817 16822 16813 16795 16797 16801 16796 16790 16724 16690 16656 16655 16678 16688 16695 16698 16723 16731 16764 16776 16724 16684 16685 16707 16734 16754 16759 16769 16786 16799 16827 16805 16757 16751 16744 16771 16793 16798 16812 16833 16849 16873 16887 16891 16855 16826 16833 16855 16853 16888 16880 16890 16899 16903 16917 16915 16885 16852 16824 16830 16842 16855 16862 16862 16880 16893 16906 16938 16929 16909 16902 16920 16932 16955 16980 17010 17019 17030 17062 17086 17097 17070 17052 17051 17075 17105 17123 17130 17149 17173 17175 17208 17216 17192 17183 17171 17175 17181 17210 17213 17218 17219 17236 17231 17243 17241 17207 17201 17155 17157 17159 17153 17150 17148 17143 17141 17154 17150 17126 17105 17085 17100 17111 17134 17132 17155 17172 17193 17219 17250 17252 17229 17215 17218 17241 17242 17256 17262 17271 17289 17298 17320 17316 17288 17260 17261 17266 17276 17288 17288 17288 17300 17304 17312 17311 17306 17263 17238 17232 17237 17248 17229 17227 17235 17227 17228 17223 17218 17157 17128 17104 17096 17110 17111 17094 17083 17084 17088 17129 17137 17236 17622 18103 18504 18752 18981 19192 19346 19454 19548 19586 19603 19569 19491 19439 19426 19444 19469 19511 19556 19559 19612 19643 19674 19699 19678 19642 19600 19607 19597 19594 19609 19652 19742 19898 19986 20069 20167 20265 20383 20523 20697 20849 20999 21099 21171 21191 21236 21274 21305 21359 21356 21306 21287 21322 21337 21343 21314 21293 21283 21264 21275 21277 21230 21117 21075 21054 21055 21040 21030 21021 21001 20991 20990 20976 20964 20903 20855 20819 20804 20799 20788 20768 20739 20739 20743 20747 20743 20740 20690 20710 20778 20966 21146 21226 21262 21284 21307 21312 21283 21188 21064 20874 20734 20632 20545 20472 20392 20329 20262 20207 20156 20105 20047 19936 19815 19708 19620 19548 19489 19420 19361 19304 19244 19217 19186 19132 19037 18934 18862 18852 18832 18799 18761 18730 18703 18692 18714 18728 18714 18664 18629 18599 18590 18591 18518 18504 18500 18483 18462 18457 18444 18376 18271 18160 18106 18062 18040 18007 17966 17916 17899 17904 17884 17889 17850 17716 17618 17553 17541 17533 17521 17513 17530 17539 17567 17600 17628 17685 17661 17610 17579 17557 17542 17565 17615 17626 17628 17653 17668 17688 17705 17726 17655 17559 17518 17495 17456 17397 17362 17327 17306 17304 17331 17335 17346 17322 17230 17118 17051 17002 16987 16983 16980 16956 16933 16932 16913 16929 16916 16914 16919 16890 16814 16757 16728 16722 16765 16803 16869 16823 16773 16735 16719 16710 16699 16678 16679 16696 16761 16774 16792 16750 16713 16676 16651 16607 16615 16627 16678 16746 16793 16828 16764 16736 16702 16710 16752 16879 17015 17157 17289 17404 17489 17489 17478 17470 17477 17481 17528 17591 17647 17678 17681 17632 17595 17599 17691 17862 18041 18196 18298 18420 18465 18471 18442 18419 18423 18426 18414 18457 18332 18218 18173 18186 18270 18390 18505 18568 18691 18684 18628 18572 18560 18552 18553 18579 18561 18469 18425 18456 18537 18610 18679 18731 18814 18849 18809 18741 18712 18683 18671 18675 18651 18477 18393 18399 18486 18609 18663 18613 18612 18591 18544 18515 18520 18554 18584 18654 18592 18505 18476 18502 18564 18640 18607 18576 18570 18531 18510 18507 18510 18484 18436 18372 18164 18081 18110 18178 18254 18241 18204 18239 18209 18208 18192 18164 18118 18068 18074 17932 17877 17886 17915 18000 18078 18062 18079 18067 18034 17999 17971 17965 17939 17993 17915 17849 17874 17938 18069 18183 18194 18317 18354 18321 18278 18285 18259 18247 18319 18272 18220 18275 18383 18523 18617 18653 18769 18779 18751 18736 18738 18740 18738 18810 18758 18715 18720 18786 18882 18931 18923 18983 19020 19001 19013 19028 19009 19005 19040 18994 18936 18913 18961 19019 19077 19086 19080 19136 19123 19110 19109 19094 19080 19125 19044 18964 18967 18999 19056 19120 19124 19165 19193 19185 19191 19209 19204 19221 19261 19215 19132 19100 19130 19216 19242 19205 19253 19218 19173 19136 19126 19146 19137 19165 19104 19004 18935 18936 18975 19017 18972 18996 18985 18959 18937 18961 19017 18995 19016 18970 18897 18845 18858 18904 18913 18858 18836 18833 18804 18830 18846 18879 18902 18897 18898 18812 18761 18770 18816 18850 18811 18802 18753 18695 18700 18728 18725 18724 18737 18695 18623 18577 18590 18600 18613 18607 18563 18586 18585 18570 18587 18566 18581 18583 18637 18590 18514 18487 18496 18505 18505 18485 18522 18558 18567 18577 18602 18597 18596 18661 18687 18617 18540 18479 18503 18542 18566 18638 18686 18645 18646 18665 18725 18730 18822 18890 18846 18756 18740 18775 18809 18809 18844 18852 18831 18836 18845 18838 18839 18870 18820 18671 18604 18592 18647 18711 18721 18780 18840 18838 18841 18840 18865 18841 18849 18811 18727 18686 18694 18751 18800 18818 18902 18960 18962 18963 18930 18899 18877 18898 18949 18900 18866 18858 18911 18954 19003 19095 19165 19145 19087 19010 18985 18991 18985 19079 19036 18973 18951 18978 19040 19059 19105 19230 19235 19232 19192 19157 19159 19160 19229 19220 19160 19114 19092 19127 19172 19132 19155 19167 19086 19038 19020 19040 19055 19123 19159 19107 19043 19067 19099 19079 19026 19081 19060 19027 19000 18993 18999 19015 19087 19085 19049 18998 18966 18957 18940 18925 18997 19010 18965 18986 19007 19060 19059 19147 19133 19016 18913 18884 18884 18916 18921 18989 19014 19000 18997 19017 19053 19067 19030 18976 18862 18791 18777 18813 18877 18927 18963 19026 19031 19042 19022 18987 18950 18898 18935 18902 18833 18795 18798 18857 18905 18932 19050 19024 18905 18815 18794 18780 18765 18828 18853 18773 18728 18735 18768 18808 18824 18844 18808 18711 18677 18682 18700 18722 18801 18869 18812 18758 18761 18783 18779 18742 18770 18752 18720 18685 18678 18684 18709 18763 18806 18757 18653 18584 18578 18609 18604 18668 18724 18700 18671 18680 18718 18753 18787 18762 18651 18581 18579 18621 18675 18718 18847 18891 18866 18854 18872 18849 18797 18793 18832 18828 18773 18767 18801 18859 18879 18970 19085 19054 18934 18879 18854 18853 18871 18925 18901 18849 18851 18888 18945 18962 18982 18997 18914 18864 18840 18846 18855 18874 19003 19030 19022 18980 18982 18980 18973 19005 19094 19081 19041 18992 19026 19033 19057 19142 19020 18901 18825 18824 18840 18865 18910 19019 19023 18965 18925 18905 18856 18786 18832 18817 18734 18698 18686 18736 18782 18810 18940 18960 18870 18743 18678 18665 18660 18749 18800 18772 18743 18755 18815 18898 18939 19102 19156 19154 19165 19153 19142 19157 19178 19197 19147 19087 19050 19013 19002 19005 19032 19095 19046 19003 19000 18995 19036 19086 19106 19047 18919 18836 18833 18862 18887 18927 18996 18954 18866 18765 18665 18593 18561 18604 18647 18622 18600 18669 18812 18946 19045 19158 19106 18976 18859 18828 18836 18881 18918 18997 18960 18904 18891 18946 18993 18965 18937 18891 18797 18739 18689 18705 18714 18719 18806 18728 18558 18462 18440 18457 18506 18514 18613 18655 18650 18606 18627 18631 18553 18529 18413 18279 18212 18220 18279 18365 18410 18487 18536 18443 18322 18214 18166 18134 18102 18109 18066 17987 17986 18068 18149 18183 18142 18146 18142 18120 18100 18081 18093 18111 18128 18181 18038 17938 17929 17982 18048 18104 18148 18240 18250 18271 18311 18397 18434 18431 18444 18370 18307 18258 18294 18392 18503 18571 18786 18912 18911 18915 18935 19008 19109 19117 19074 18927 18833 18791 18852 18959 19029 19047 19164 19169 19198 19275 19332 19355 19343 19373 19296 19138 19003 18927 18900 18905 18935 19076 19178 19224 19317 19421 19485 19467 19385 19294 19240 19208 19184 19217 19280 19345 19445 19455 19342 19213 19123 19100 19167 19223 19346 19343 19323 19298 19292 19280 19235 19250 19265 19195 19114 19046 19065 19073 19054 19108 19103 18962 18866 18828 18848 18904 19000 19256 19408 19449 19458 19360 19227 19105 19085 19193 19290 19344 19392 19409 19425 19469 19537 19533 19427 19197 19007 18911 18876 18879 18933 19052 19038 18964 18892 18831 18820 18834 18915 19033 18955 18847 18799 18792 18791 18773 18792 18751 18639 18572 18559 18615 18683 18746 18903 18947 18815 18653 18537 18488 18475 18519 18740 18788 18714 18679 18697 18739 18721 18748 18775 18712 18664 18684 18682 18692 18725 18808 18750 18625 18537 18513 18529 18557 18626 18709 18655 18580 18542 18537 18468 18394 18408 18409 18363 18365 18394 18440 18513 18551 18662 18618 18466 18361 18317 18322 18351 18417 18526 18497 18487 18461 18438 18447 18423 18464 18576 18536 18472 18450 18473 18518 18519 18537 18498 18384 18335 18353 18408 18491 18458 18532 18629 18520 18419 18361 18353 18357 18416 18452 18410 18390 18402 18444 18482 18454 18449 18457 18432 18399 18404 18434 18503 18557 18597 18637 18488 18383 18341 18386 18445 18500 18591 18688 18687 18687 18659 18663 18646 18608 18705 18671 18623 18590 18622 18679 18764 18738 18772 18740 18689 18687 18739 18816 18840 18888 18887 18852 18848 18922 19124 19277 19327 19374 19518 19618 19701 19815 19815 19756 19694 19741 19736 19729 19779 19918 20061 20146 20153 20091 20104 20049 19990 19928 19849 19809 19817 19852 19793 19717 19620 19563 19532 19512 19530 19556 19495 19408 19343 19320 19290 19221 19223 19130 19040 18994 19035 19079 19132 19203 19320 19301 19140 19006 18899 18875 18835 18874 18978 18884 18817 18828 18835 18798 18798 18774 18854 18813 18737 18683 18697 18715 18715 18673 18550 18416 18352 18362 18440 18488 18537 18595 18760 18796 18814 18797 18831 18922 19063 19240 19448 19524 19594 19688 19751 19734 19655 19629 19574 19483 19400 19330 19291 19268 19292 19323 19233 19145 19129 19113 19139 19161 19180 19300 19316 19238 19076 18945 18874 18868 18947 18956 18949 18911 18899 18926 18961 18923 18985 19040 18959 18877 18865 18888 18901 18939 19049 18963 18856 18775 18779 18822 18861 18930 18962 18972 18917 18814 18729 18665 18643 18710 18740 18710 18655 18657 18688 18709 18702 18754 18768 18684 18641 18630 18627 18639 18699 18783 18758 18627 18526 18493 18499 18542 18631 18743 18708 18639 18611 18598 18566 18566 18566 18566 18520 18495 18488 18514 18567 18636 18623 18660 18592 18547 18567 18582 18629 18676 18775 18837 18751 18613 18556 18570 18647 18659 18793 18847 18805 18753 18732 18691 18666 18641 18718 18682 18600 18597 18633 18718 18791 18806 18913 18842 18771 18748 18780 18813 18819 18930 18962 18912 18816 18759 18744 18766 18778 18871 18920 18884 18876 18869 18871 18851 18824 18883 18860 18832 18821 18817 18846 18883 18918 18993 18922 18821 18763 18728 18759 18809 18874 19007 18986 18932 18834 18814 18834 18860 18958 19150 19198 19207 19194 19161 19119 19054 19053 19071 19024 18963 18919 18946 18981 19009 19006 19023 18950 18889 18919 18966 19018 19060 19144 19169 19134 19042 18971 18936 18947 18942 19005 19038 18955 18892 18874 18821 18750 18731 18734 18653 18587 18586 18609 18672 18701 18714 18644 18504 18403 18340 18349 18366 18408 18471 18471 18399 18312 18267 18276 18292 18321 18425 18439 18400 18371 18382 18376 18328 18284 18268 18217 18170 18172 18222 18294 18350 18383 18393 18288 18184 18136 18100 18126 18165 18250 18307 18243 18155 18106 18137 18173 18223 18317 18426 18403 18409 18414 18425 18390 18357 18364 18349 18294 18296 18314 18383 18444 18502 18557 18532 18468 18425 18430 18492 18548 18624 18699 18753 18676 18599 18553 18561 18596 18634 18684 18812 18812 18787 18759 18707 18695 18678 18719 18739 18695 18664 18695 18726 18793 18788 18769 18808 18800 18796 18803 18831 18859 18903 19009 18997 18904 18808 18789 18823 18879 18937 19011 19136 19141 19094 19053 19036 19042 19048 19093 19057 19011 18992 19021 19069 19063 19043 19096 19067 19045 19062 19080 19107 19171 19184 19149 19044 18924 18888 18890 18918 18982 19002 19105 19137 19065 18963 18922 18883 18891 18959 19031 18989 18936 18905 18910 18877 18881 18844 18877 18891 18877 18866 18886 18921 18934 18879 18782 18645 18578 18550 18614 18684 18761 18807 18869 18739 18570 18484 18444 18462 18486 18599 18610 18546 18500 18482 18463 18436 18415 18444 18431 18382 18338 18339 18351 18359 18305 18287 18237 18202 18207 18255 18335 18391 18457 18498 18416 18289 18201 18186 18223 18296 18357 18423 18385 18299 18238 18226 18238 18303 18350 18500 18548 18570 18576 18578 18552 18528 18574 18641 18655 18653 18659 18720 18801 18835 18837 18849 18763 18695 18699 18726 18767 18816 18932 18966 18879 18756 18702 18724 18786 18861 18971 19076 19057 19034 18960 18909 18884 18879 18938 18988 18969 18931 18935 18958 18974 18924 18971 18969 18947 18931 18929 18955 18973 19022 19052 18985 18892 18848 18854 18881 18937 18986 19093 19170 19146 19094 19053 19056 19099 19110 19189 19215 19211 19184 19210 19213 19201 19203 19250 19296 19291 19278 19307 19336 19347 19291 19281 19239 19166 19134 19144 19180 19233 19262 19483 19668 19719 19718 19754 19794 19836 19884 19892 19876 19843 19814 19817 19975 20225 20509 20774 21003 21241 21504 21702 21851 21958 22053 22165 22231 22243 22208 22168 22172 22194 22205 22072 21960 21882 21812 21769 21739 21730 21675 21637 21547 21448 21359 21330 21307 21292 21272 21237 21189 21127 21063 20955 20889 20800 20733 20658 20611 20556 20502 20496 20487 20392 20233 20135 20015 19935 19855 19823 19796 19768 19748 19610 19422 19304 19253 19252 19262 19256 19271 19253 19111 18863 18627 18464 18383 18357 18368 18411 18402 18356 18353 18310 18251 18212 18183 18282 18333 18278 18226 18182 18164 18126 18028 17964 17935 17935 17975 18055 18127 18208 18274 18356 18456 18446 18394 18335 18319 18327 18328 18343 18462 18566 18495 18429 18388 18417 18438 18487 18548 18676 18805 18784 18660 18509 18417 18369 18375 18438 18577 18708 18766 18803 18812 18802 18827 18837 18857 18996 19091 19121 19135 19159 19146 19084 19005 18972 19017 19049 19027 18985 18999 19040 19062 19042 19036 19119 19282 19419 19465 19511 19580 19621 19622 19564 19508 19493 19512 19511 19516 19537 19576 19616 19667 19646 19651 19685 19683 19666 19658 19672 19685 19690 19693 19680 19657 19654 19666 19716 19730 19759 19794 19830 19833 19855 19835 19851 19862 19834 19794 19785 19788 19786 19783 19797 19823 19827 19807 19816 19817 19817 19834 19875 19902 19915 19884 19851 19858 19848 19796 19765 19739 19736 19734 19743 19730 19687 19621 19611 19598 19639 19680 19700 19722 19747 19773 19736 19684 19665 19712 19719 19671 19674 19662 19647 19626 19598 19502 19427 19386 19399 19542 19683 19881 20053 20173 20301 20425 20511 20585 20682 20774 20868 20920 20943 20976 20997 21015 20989 20908 20841 20785 20740 20705 20681 20668 20630 20607 20561 20475 20386 20327 20284 20267 20264 20235 20256 20232 20248 20187 20090 20047 20035 20032 20039 20053 20091 20107 20160 20178 20179 20153 20153 20146 20177 20201 20252 20294 20352 20433 20534 20632 20715 20806 20908 21058 21230 21371 21525 21657 21764 21846 21911 21965 22014 22067 22098 22134 22181 22266 22304 22369 22398 22380 22376 22408 22449 22452 22482 22513 22534 22562 22600 22591 22582 22569 22537 22498 22461 22398 22369 22367 22370 22351 22276 22155 22087 22036 21996 21937 21900 21882 21848 21829 21723 21595 21474 21444 21416 21408 21386 21362 21323 21316 21261 21096 20969 20875 20839 20823 20806 20769 20721 20700 20678 20596 20451 20343 20290 20281 20294 20332 20351 20400 20472 20561 20601 20657 20732 20816 20866 20906 20910 20900 20898 20917 20925 20839 20699 20596 20515 20465 20404 20307 20221 20100 19998 19791 19524 19316 19182 19066 18972 18862 18730 18634 18550 18443 18245 18047 17930 17838 17788 17733 17671 17594 17552 17512 17431 17272 17162 17098 17089 17067 17064 17252 17555 17859 18164 18337 18337 18343 18391 18433 18503 18576 18598 18639 18693 18739 18747 18750 18780 18848 18938 19055 19179 19293 19421 19541 19614 19626 19690 19793 19908 20003 20057 20099 20094 20101 20117 20135 20149 20176 20227 20308 20363 20405 20469 20481 20487 20435 20370 20318 20287 20315 20362 20415 20478 20537 20628 20646 20651 20669 20736 20806 20891 20991 21057 21132 21165 21163 21137 21093 21082 21105 21134 21189 21286 21353 21417 21459 21506 21523 21518 21558 21577 21583 21609 21633 21630 21611 21629 21597 21564 21535 21511 21493 21485 21447 21432 21392 21373 21328 21258 21178 21080 21001 20946 20891 20838 20763 20698 20643 20569 20447 20314 20206 20128 20057 19978 19916 19859 19788 19736 19660 19523 19402 19330 19260 19219 19179 19147 19105 19061 19023 18916 18789 18695 18640 18593 18568 18526 18497 18472 18429 18372 18256 18165 18096 18072 18079 18074 18042 18037 18019 18012 17959 17848 17784 17763 17772 17795 17822 17851 17869 17895 17932 17873 17806 17778 17784 17816 17862 17868 17891 17914 17919 17909 17800 17730 17721 17716 17752 17771 17775 17775 17785 17787 17718 17598 17542 17500 17512 17533 17529 17521 17509 17494 17479 17381 17300 17264 17265 17283 17315 17335 17357 17374 17408 17372 17310 17270 17255 17288 17309 17327 17328 17331 17359 17397 17346 17319 17315 17357 17405 17441 17462 17490 17527 17552 17560 17516 17491 17512 17544 17568 17606 17627 17659 17682 17716 17692 17671 17660 17675 17705 17731 17767 17789 17807 17852 17863 17848 17842 17858 17893 17938 17976 18003 18030 18067 18077 18068 18052 18049 18055 18082 18109 18109 18142 18134 18162 18149 18109 18073 18067 18066 18075 18086 18102 18107 18117 18132 18116 18087 18062 18051 18058 18059 18061 18050 18036 18027 18027 17980 17932 17907 17907 17920 17942 17973 17992 18023 18064 18074 18041 18027 18024 18035 18056 18073 18084 18092 18098 18131 18090 18048 18021 18026 18028 18055 18062 18061 18074 18078 18081 18029 17992 17967 17960 17968 18001 17992 17993 17986 17979 17966 17876 17827 17797 17800 17804 17796 17773 17763 17766 17775 17726 17645 17619 17618 17646 17681 17703 17712 17734 17760 17777 17718 17660 17629 17635 17662 17661 17645 17640 17653 17779 17989 18165 18381 18616 18874 19113 19322 19501 19655 19826 19991 20167 20385 20585 20783 20966 21119 21239 21316 21377 21442 21522 21579 21627 21668 21779 21854 21956 22024 22089 22145 22212 22252 22312 22254 22231 22316 22379 22445 22460 22491 22510 22528 22540 22553 22450 22432 22466 22553 22609 22630 22646 22658 22678 22689 22689 22676 22635 22672 22740 22804 22858 22888 22910 22955 22998 23011 23026 22991 23007 23033 23069 23104 23106 23130 23132 23152 23154 23119 23071 23048 23089 23097 23131 23139 23135 23155 23159 23163 23167 23072 23032 23070 23100 23116 23108 23117 23115 23130 23123 23109 23025 23005 22998 23046 23087 23087 23099 23107 23130 23138 23171 23177 23148 23169 23178 23202 23217 23225 23236 23229 23233 23226 23211 23098 23054 23075 23101 23141 23139 23157 23173 23173 23203 23217 23102 23066 23070 23076 23110 23099 23081 23053 23063 23073 23099 23044 22993 22962 22976 23007 23023 23037 23046 23064 23117 23142 23179 23080 23029 23016 23053 23047 23062 23051 23039 23023 23024 23026 22983 22919 22871 22836 22846 22849 22841 22834 22844 22840 22827 22820 22742 22660 22624 22600 22612 22590 22574 22565 22550 22563 22570 22532 22433 22345 22316 22320 22317 22315 22286 22281 22240 22213 22192 22075 21930 21834 21791 21785 21765 21750 21739 21722 21713 21737 21738 21644 21584 21548 21589 21653 21680 21720 21735 21764 21786 21832 21815 21786 21755 21771 21820 21849 21868 21875 21886 21909 21929 21919 21872 21805 21780 21794 21796 21812 21804 21795 21796 21800 21824 21768 21652 21585 21545 21557 21573 21584 21571 21581 21601 21614 21627 21556 21463 21413 21408 21410 21400 21407 21381 21360 21353 21359 21338 21257 21161 21145 21149 21156 21189 21177 21186 21223 21243 21278 21268 21211
33 33 34 33 33 34 34 34 34 34 33 33 33 33 33 33 33 33 34 33 34 33 33 33 34 34 34 33 34 33 33 33 33 33 33 33 33 33 33 33 33 33 32 33 34 34 35 35 35 35 33 34 33 32 31 33 32 31 32 32 33 33 33 32 32 32 32 33 33 33 33 33 33 33 33 32 32 32 32 32 33 32 32 33 33 33 33 32 32 32 32 33 32 32 32 32 32 34 33 33 34 34 34 34 33 33 33 34 34 33 33 33 33 33 33 33 33 33 34 34 33 34 34 34 33 33 32 32 32 33 32 32 32 32 32 33 34 33 33 32 32 33 33 33 33 32 32 32 33 33 33 33 33 34 34 32 34 34 33 33 33 33 33 33 32 31 31 30 31 32 34 35 36 36 35 34 33 33 32 33 32 33 33 33 33 33 33 33 33 33 33 33 33 33 33 33 33 33 33 33 33 33 33 33 34 34 34 33 33 33 33 33 33 33 33 33 33 33 33 33 33 33 33 33 33 33 33 33 33 33 33 33 33 33 33 33 33 33 33 33 33 33 33 33 33 33 33 33 33 33 33 33 33 33 33 33 33 33 33 33 33 33 33 33 33 33 33 33 33 33 33 33 33 33 33 33 33 33 33 33 35 33 33 33 33 33 34 33 34 34 35 37 37 35 34 32 31 31 31 30 30 31 32 34 36 34 33 32 33 33 33 32 33 34 34 34 33 32 32 32 33 33 32 33 33 33 32 32 33 33 33 32 30 31 34 33 33 30 29 32 33 33 34 36 36 36 36 35 34 33 33 32 33 33 33 34 34 34 34 33 33 33 33 33 33 33 33 33 33 33 33 33 33 33 33 33 33 32 32 32 32 33 34 34 34 33 34 34 35 36 31 28 28 31 33 33 36 37 35 36 34 34 34 34 33 32 33 35 34 33 32 32 32 34 33 33 33 33 35 34 33 34 34 34 33 33 32 32 32 32 33 34 34 34 34 34 33 33 33 33 33 32 32 32 33 34 34 32 32 32 33 33 33 33 33 33 33 32 32 32 33 34 34 35 33 32 33 33 33 34 34 33 32 32 33 33 33 33 33 33 33 33 33 34 33 34 33 33 33 33 33 33 33 33 33 34 33 33 32 34 34 32 33 32 32 32 33 33 33 32 32 33 33 33 34 34 33 33 33 33 33 33 33 33 33 33 32 32 33 33 33 33 33 33 32 32 32 32 33 34 33 33 33 33 33 33 33 33 33 33 33 33 33 33 33 33 33 34 33 33 33 33 33 33 33 33 33 33 33 33 33 33 33 33 33 33 33 33 36 39 35 29 30 31 31 30 31 33 34 34 34 32 32 32 31 29 31 35 36 35 33 32 35 34 34 33 32 32 33 33 34 34 33 33 33 32 32 32 33 33 33 33 33 33 33 33 33 33 33 33 33 33 33 33 33 32 33 34 33 33 33 33 33 33 34 34 33 33 33 33 32 32 32 32 32 33 33 34 34 33 33 32 32 33 33 33 32 33 33 32 33 32 32 33 33 32 33 33 33 33 33 33 33 33 33 33 33 33 33 33 33 33 33 33 33 32 33 33 32 32 33 33 33 33 33 33 33 33 32 33 33 33 32 33 33 32 32 33 33 33 32 33 33 32 33 33 33 33 33 33 33 33 33 33 32 33 33 33 32 32 32 32 32 32 32 32 32 32 32 33 32 32 32 32 32 32 32 32 32 32 32 32 32 33 33 32 32 32 32 32 32 32 32 32 32 32 32 32 32 32 32 32 32 32 33 32 32 32 32 32 32 32 33 33 33 33 33 33 33 35 35 33 32 32 33 32 32 34 37 42 40 41 38 32 29 28 27 28 31 33 33 37 34 31 33 34 35 35 31 28 31 35 34 34 34 34 33 34 33 33 33 33 33 33 33 33 33 33 33 33 33 33 33 33 33 33 33 33 33 33 33 33 33 33 33 33 33 33 33 33 33 33 33 33 33 33 33 33 33 33 33 33 33 33 33 33 33 33 33 33 33 33 33 33 32 32 33 33 33 33 33 32 33 32 33 34 33 33 33 33 33 33 33 33 33 33 33 33 33 33 33 33 33 33 33 33 33 33 33 33 33 33 33 33 33 33 33 33 33 33 32 33 33 33 33 33 33 33 33 33 32 33 33 33 33 33 33 34 33 34 33 33 33 33 33 33 33 33 33 32 33 34 33 33 33 33 33 33 33 33 34 33 33 34 34 33 34 34 33 34 33 34 32 33 34 34 33 34 32 33 33 33 33 32 33 34 34 33 34 34 34 33 33 33 32 33 33 34 33 34 33 34 33 34 33 33 33 33 33 32 33 33 34 32 33 32 32 33 33 34 33 33 32 34 34 33 34 34 32 32 33 32 33 32 34 34 32 34 33 33 33 33 34 33 34 34 33 34 33 34 33 33 33 33 34 34 33 34 33 33 34 34 34 34 34 33 34 33 33 32 32 32 33 33 33 34 33 33 34 33 33 34 34 34 33 34 33 33 34 34 33 33 33 34 34 34 34 33 33 34 33 33 34 34 34 34 33 33 33 33 33 33 33 33 33 33 33 33 34 33 33 33 34 33 33 33 33 33 33 34 33 33 33 33 33 34 34 34 34 34 36 35 34 34 34 33 33 33 31 32 32 33 33 33 33 33 31 32 34 33 31 32 33 34 34 34 33 33 33 34 34 32 34 32 32 32 33 34 33 33 33 34 33 33 33 34 34 34 33 31 32 33 33 34 34 34 35 33 33 33 32 33 33 33 33 33 33 33 33 33 33 33 33 33 33 33 33 34 33 33 33 33 33 33 33 33 33 33 34 34 34 36 33 32 33 32 34 36 41 35 34 33 32 31 32 33 33 33 33 33 34 34 32 33 34 35 33 32 30 31 33 33 33 34 33 32 34 33 33 33 33 33 33 34 33 33 34 34 33 33 32 33 31 34 34 34 33 33 33 33 33 33 33 33 33 33 33 33 33 33 33 33 33 33 33 33 33 33 33 33 33 33 33 33 33 33 33 32 33 33 33 33 33 32 33 34 33 33 33 33 33 33 33 33 32 33 33 33 33 33 32 33 33 33 33 33 33 32 34 33 33 33 33 33 33 33 33 32 32 32 32 32 33 33 34 33 33 34 32 33 32 33 32 34 34 34 33 34 34 33 32 34 33 33 33 33 33 33 33 33 33 33 33 33 33 33 33 33 33 33 33 33 33 33 33 33 33 33 33 33 33 33 33 33 33 33 33 33 33 33 33 33 33 33 33 34 33 33 33 33 33 33 33 34 33 33 33 33 33 33 33 33 33 33 33 33 33 34 33 33 33 33 33 33 33 33 33 33 34 34 34 33 33 33 33 33 33 33 33 33 33 33 33 32 33 33 33 33 33 33 33 33 33 33 33 33 33 33 33 33 33 33 33 33 33 33 33 33 33 33 33 33 33 33 34 34 35 38 33 30 32 31 30 29 31 32 34 35 35 34 33 33 33 33 33 33 32 32 33 32 34 35 33 32 32 34 33 33 33 33 33 33 33 33 33 33 33 33 34 33 33 32 33 33 33 33 33 33 33 33 33 33 33 33 33 33 33 33 33 33 33 33 33 33 33 33 33 33 33 32 33 33 33 33 33 33 33 33 33 32 32 33 33 33 33 33 33 33 33 33 33 33 33 33 33 33 33 33 33 33 33 33 33 33 33 33 33 33 33 33 33 33 33 33 33 32 32 32 33 33 33 33 33 33 33 33 33 33 33 33 33 33 33 33 33 33 33 33 33 33 33 33 33 33 33 33 33 33 33 33 33 33 33 33 33 33 33 33 34 34 35 36 37 37 32 32 33 33 32 30 31 31 32 32 33 33 32 32 32 31 32 32 31 30 31 33 31 31 33 34 34 33 34 34 33 34 33 34 33 33 33 33 33 34 34 34 33 33 33 33 33 33 33 33 33 33 33 33 33 33 34 33 33 33 32 31 32 34 38 38 35 36 37 37 36 34 30 29 27 28 30 31 31 35 34 33 33 33 32 33 33 33 34 34 33 32 33 33 33 33 33 34 33 32 32 33 33 32 33 33 33 33 34 34 34 32 32 33 33 33 33 33 33 33 33 33 32 33 33 33 33 33 33 33 32 32 33 33 32 31 30 27 27 28 28 32 34 37 38 40 42 38 35 32 33 33 34 33 34 34 33 31 32 33 33 33 34 33 33 33 33 33 33 33 33 33 32 33 33 33 33 33 33 33 33 33 33 33 33 33 33 33 33 33 33 33 33 32 33 33 33 33 33 33 33 33 33 33 33 33 33 33 33 33 33 33 33 32 33 33 33 33 33 33 33 32 33 32 33 33 32 33 33 32 33 32 32 33 33 33 33 33 33 33 33 33 33 33 33 32 33 33 33 32 33 32 33 32 33 33 33 33 33 33 33 33 34 33 33 33 33 33 33 33 33 33 33 33 33 33 33 33 33 33 33 33 33 33 33 33 33 33 33 33 33 33 33 33 33 33 33 33 33 33 33 33 33 33 33 33 33 33 33 33 33 33 33 33 33 33 33 33 33 33 33 33 33 33 33 33 33 33 33 33 33 33 33 33 33 33 33 33 33 33 33 33 33 33 33 33 33 33 33 33 33 33 34 34 35 33 33 34 32 33 32 32 32 33 31 31 32 32 31 30 32 33 34 36 36 37 38 38 38 38 36 35 33 28 25 26 29 33 34 32 33 33 34 35 31 28 26 29 33 34 35 35 34 33 32 31 32 34 35 35 35 33 32 31 32 32 33 33 34 33 33 34 33 34 33 33 33 33 33 32 32 33 33 33 33 33 34 33 34 34 34 33 33 33 32 32 32 32 32 33 33 34 34 33 32 33 33 33 34 33 33 34 34 33 33 33 33 33 34 34 33 33 32 32 31 32 33 35 34 32 32 33 33 33 33 32 32 33 32 34 35 32 31 33 34 36 36 36 36 35 32 28 31 31 28 23 23 27 29 34 36 45 44 40 35 34 33 31 35 36 39 44 40 32 31 38 45 42 36 31 30 29 28 28 30 32 36 36 31 28 33 39 41 37 33 32 32 35 41 45 38 30 32 39 42 40 34 30 29 29 29 32 34 36 33 30 31 37 41 39 34 32 33 32 30 34 42 33 29 36 43 43 38 33 31 29 28 28 31 36 35 31 31 36 39 39 34 33 33 32 32 34 37 39 42 38 35 40 42 38 33 30 28 28 29 31 34 34 31 28 31 38 41 38 33 32 31 32 32 35 39 44 42 33 29 34 39 32 30 29 28 30 31 33 34 32 30 33 39 40 36 31 31 31 31 31 35 37 43 41 33 31 37 41 40 35 32 29 33 35 35 32 30 33 36 37 35 32 31 32 32 32 34 38 42 41 34 32 36 41 42 38 34 32 30 28 28 37 35 29 29 35 41 40 35 33 32 31 30 32 36 43 43 35 32 37 44 45 39 33 31 28 26 27 29 33 34 28 32 39 40 37 35 33 33 32 32 36 38 39 37 33 33 38 43 41 36 33 30 29 29 31 34 37 34 28 25 30 35 33 33 33 33 33 37 40 43 39 31 31 38 42 41 36 34 32 30 30 32 33 32 30 28 30 35 39 40 36 30 30 33 38 44 41 33 34 39 40 35 32 31 30 30 30 33 38 38 33 28 32 37 37 33 30 30 31 29 31 40 45 41 33 32 38 41 39 36 33 32 29 28 29 30 34 32 29 31 38 40 37 33 32 33 32 31 35 38 40 41 35 41 43 41 35 32 31 29 27 29 32 33 33 30 32 37 40 38 34 33 33 34 33 35 37 38 40 37 32 34 42 37 32 30 29 28 30 33 35 33 29 29 35 41 40 36 34 35 33 32 34 37 41 40 35 32 37 44 46 42 34 31 30 30 30 32 32 29 30 37 42 41 36 33 34 35 35 37 38 39 41 37 32 33 41 46 43 36 32 30 29 31 35 36 31 29 34 38 40 36 34 33 33 33 33 37 38 43 42 35 33 37 42 43 39 34 31 30 28 28 29 33 31 34 38 40 37 34 33 32 33 32 33 37 44 45 37 30 32 40 45 41 35 31 29 26 26 29 32 37 37 36 39 38 33 30 30 30 29 30 34 39 46 40 29 30 39 45 44 39 35 31 28 26 28 31 37 40 33 31 35 38 31 33 34 33 34 37 41 43 35 31 36 42 45 40 35 31 31 30 30 31 34 35 31 29 32 39 42 38 35 33 32 34 36 43 45 38 33 37 42 44 40 35 31 28 28 27 27 30 35 35 31 30 37 43 42 37 34 33 33 32 36 42 44 37 30 34 41 43 40 36 33 31 30 30 32 36 37 34 31 33 38 41 38 35 35 34 32 33 36 39 44 37 44 46 40 35 31 30 27 27 29 33 37 35 33 35 39 41 39 35 34 34 31 32 36 39 47 42 33 31 38 39 32 29 29 28 30 32 34 34 30 33 40 43 38 33 33 34 33 32 34 37 40 43 39 35 36 42 43 40 34 29 28 29 33 36 38 34 29 30 37 42 40 36 36 35 33 33 36 39 43 41 34 34 42 48 47 41 33 29 26 25 35 36 33 30 34 42 44 41 37 35 33 31 32 37 41 44 39 33 35 41 45 43 38 33 30 27 28 30 31 35 30 37 42 40 37 35 35 33 33 36 37 40 39 35 33 38 43 46 42 37 34 31 29 26 28 32 36 34 30 32 44 42 37 36 35 32 33 36 40 44 41 34 34 42 49 46 38 33 29 28 26 28 31 35 36 34 31 35 42 47 42 33 32 33 36 37 43 43 37 32 38 45 48 42 35 31 29 27 26 30 33 37 34 29 31 36 41 40 37 36 35 37 39 43 44 38 31 34 41 44 41 36 32 30 29 28 29 33 36 33 28 28 37 45 44 38 35 36 34 33 32 37 43 42 37 33 38 44 44 37 33 30 28 26 27 31 37 37 33 29 31 38 44 41 36 34 34 33 33 36 38 42 38 45 47 42 36 33 31 30 30 31 34 36 32 28 30 37 43 42 37 35 36 34 33 36 38 42 42 36 32 37 42 36 32 29 28 27 30 32 35 35 33 33 36 40 40 35 34 35 35 32 34 38 41 43 38 34 38 44 47 42 33 30 27 26 29 33 38 36 32 30 35 42 42 38 35 34 35 34 35 36 40 46 39 30 32 39 45 44 39 33 30 30 32 36 36 31 31 35 41 42 38 36 35 35 32 35 38 44 41 34 34 40 46 45 39 34 31 29 28 31 34 25 26 36 45 44 40 37 35 32 33 37 38 43 44 36 33 39 45 45 41 36 31 28 25 24 28 34 39 37 31 38 43 42 40 39 36 33 33 36 37 40 40 37 37 41 44 43 38 32 29 28 27 29 34 38 37 34 31 32 38 41 35 35 31 33 36 38 42 40 34 33 39 44 45 40 35 31 28 27 29 35 39 33 28 28 36 44 42 35 34 34 36 39 42 43 39 31 35 42 46 43 36 31 28 26 26 28 34 40 38 32 33 38 41 41 38 36 34 32 31 35 43 46 42 34 36 42 45 41 34 29 27 24 26 30 35 38 35 31 34 41 44 41 35 33 32 31 30 35 38 43 43 42 46 43 37 32 30 28 26 30 33 34 34 32 35 38 40 39 35 35 34 34 34 37 39 43 41 36 34 40 47 35 32 30 29 30 32 34 33 30 27 31 39 43 39 37 36 36 35 35 38 39 42 41 34 32 39 48 48 42 35 27 28 30 34 36 35 31 33 37 41 39 37 35 34 33 32 35 38 43 43 37 33 38 47 47 42 35 31 28 27 29 30 35 36 32 32 35 40 39 36 35 34 34 32 33 37 38 42 42 35 32 38 46 48 43 37 33 30 28 28 29 31 30 31 36 40 39 35 35 36 36 35 34 35 36 37 42 40 35 33 39 46 47 40 36 33 31 30 29 29 28 29 30 37 42 42 37 36 37 36 32 35 36 39 41 39 33 36 45 49 45 38 35 33 30 29 30 31 34 33 30 35 39 38 36 35 37 39 37 35 33 33 32 34 39 42 40 39 43 47 46 41 36 34 31 27 25 27 31 36 38 34 43 42 36 34 33 34 32 31 33 37 44 43 37 31 37 44 44 39 34 31 31 30 30 31 35 34 32 32 36 38 32 33 35 34 34 35 36 41 43 37 33 36 43 45 41 36 34 32 31 31 30 31 31 29 30 36 41 40 40 36 32 31 31 34 39 45 47 45 45 48 45 38 30 27 21 22 21 25 28 32 34 40 37 36 34 33 27 25 27 33 34 29 39 52 57 48 40 41 42 39 36 36 35 33 29 28 31 35 39 33 32 35 39 36 34 32 33 33 32 31 33 38 31 36 44 45 41 37 32 29 27 25 27 30 37 35 31 33 39 40 38 35 35 35 32 28 29 32 40 44 40 45 44 40 36 33 30 27 27 29 32 31 35 43 43 41 39 36 32 30 30 32 39 47 53 56 55 46 35 26 21 23 53 65 60 45 36 31 29 25 28 48 73 71 52 34 22 22 26 28 39 74 86 62 42 31 25 23 22 42 90 97 27 26 28 25 43 90 85 55 35 29 25 26 34 65 96 78 45 23 25 29 27 28 72 104 73 41 27 26 29 27 95 82 50 28 23 25 24 23 59 95 78 48 31 24 22 20 32 74 101 73 38 23 24 28 26 36 82 90 57 34 28 22 60 96 84 50 29 22 27 30 31 72 88 62 37 27 24 24 22 44 102 104 61 28 18 26 28 29 66 87 67 23 21 21 41 76 89 63 37 20 22 30 30 54 84 75 50 34 26 20 17 24 57 90 84 51 28 25 27 28 30 91 67 41 32 25 20 19 39 82 103 63 35 24 30 30 26 58 91 72 43 28 21 20 19 29 77 106 71 38 22 26 52 84 77 51 33 24 20 19 26 72 111 82 43 24 30 35 31 50 94 84 53 32 23 18 16 21 63 107 85 48 29 27 24 73 104 67 38 28 23 20 19 58 110 87 49 25 26 30 29 28 65 95 69 42 30 23 21 23 61 104 36 22 29 29 24 61 96 72 44 27 20 18 18 32 75 100 73 43 22 21 25 25 28 73 92 60 37 27 20 18 19 91 53 26 22 28 30 30 66 85 67 43 29 20 17 17 35 86 90 62 35 22 26 28 26 48 93 84 55 34 23 19 68 103 82 45 22 27 30 30 37 82 89 60 36 26 19 17 17 49 104 96 57 28 26 30 28 25 66 92 71 28 21 19 26 47 80 92 63 34 19 22 22 22 43 78 78 53 34 26 22 21 20 52 107 94 54 28 26 27 25 20 78 47 28 21 19 22 45 98 101 56 26 16 17 23 24 37 83 88 62 36 24 20 21 24 43 77 84 58 34 18 26 49 82 75 54 36 26 20 17 15 30 106 90 52 26 16 20 22 21 51 106 76 41 27 23 22 22 42 87 92 24 27 26 22 42 85 84 57 37 28 22 22 27 54 83 61 36 23 28 32 30 46 85 79 55 41 31 25 21 25 97 78 49 28 21 28 28 26 81 103 68 40 29 25 23 24 43 80 89 63 37 26 29 30 28 59 86 72 49 37 28 31 74 92 67 39 22 22 30 29 41 87 81 54 40 32 25 22 25 51 86 79 50 28 22 30 31 30 62 89 80 23 21 21 42 83 88 56 30 20 25 28 30 64 84 68 46 34 27 24 22 34 83 91 68 42 27 31 33 28 47 77 51 38 29 23 21 28 76 97 72 42 23 26 29 25 38 74 84 61 41 28 19 19 19 45 93 90 56 29 18 25 58 92 71 47 37 29 25 22 37 87 94 62 36 23 24 27 25 46 91 83 55 36 29 23 21 23 60 101 89 52 30 27 40 71 81 67 48 38 24 17 16 30 84 100 68 38 21 26 28 27 45 84 86 59 35 24 20 20 22 41 95 61 30 22 29 30 27 58 90 74 48 32 21 17 16 18 44 91 94 57 29 22 28 29 26 69 93 66 42 32 23 31 77 96 71 41 24 30 30 29 54 87 76 51 34 25 20 18 18 39 87 107 71 41 29 35 34 28 59 87 71 28 22 20 23 68 101 82 50 27 27 28 26 33 77 86 63 39 30 25 22 22 36 84 102 70 37 24 27 26 25 76 71 52 36 26 21 19 21 52 92 82 52 30 24 25 24 21 42 84 82 55 34 24 19 17 19 45 93 90 54 26 26 27 73 86 66 44 33 26 23 23 25 57 90 77 46 26 19 24 25 25 70 86 66 45 32 22 19 19 26 77 27 17 22 24 25 63 83 66 46 35 25 21 20 24 61 96 82 47 25 22 28 27 27 68 93 71 47 35 28 28 34 71 81 60 41 21 16 24 28 43 88 84 54 36 29 23 20 18 44 91 88 59 32 22 27 26 25 59 79 66 45 20 19 23 62 93 79 48 25 23 30 30 30 69 86 63 41 31 23 19 18 39 92 91 58 31 20 27 25 22 50 48 32 25 20 19 26 71 94 70 42 21 20 20 22 30 70 88 62 38 30 25 23 24 43 89 94 64 38 28 33 29 44 86 85 56 40 31 24 20 24 56 92 82 51 28 21 24 25 30 60 75 60 44 32 22 17 16 31 72 91 71 26 33 30 33 80 89 63 45 34 23 17 16 52 95 76 47 28 23 28 24 27 69 83 60 38 26 19 17 21 51 47 29 22 24 24 31 71 81 58 38 27 20 19 18 77 104 74 38 27 34 33 29 46 90 83 53 36 27 22 20 52 90 83 54 30 24 27 26 25 64 90 68 42 30 25 24 23 36 74 85 60 38 24 23 23 20 38 82 79 52 34 23 23 62 93 71 47 26 19 26 26 38 70 77 55 39 32 27 27 29 60 79 67 46 27 18 21 20 35 60 70 31 24 23 21 36 80 86 55 31 22 23 25 24 60 80 68 47 34 24 20 18 24 64 88 68 44 27 21 25 26 69 80 63 44 32 25 20 20 30 63 84 67 39 22 23 26 30 44 61 68 56 43 35 26 21 18 24 66 89 66 41 25 23 42 73 73 54 37 27 21 21 19 51 99 91 56 33 26 27 24 29 65 78 62 44 35 24 19 16 25 77 36 19 23 28 26 50 85 80 54 35 28 21 20 20 36 96 96 62 34 20 26 28 27 60 85 71 47 34 25 19 39 94 91 60 34 19 28 32 30 44 81 83 59 40 29 21 18 18 47 95 88 55 31 26 34 33 39 68 80 64 44 20 19 32 79 94 67 38 26 29 31 29 50 76 73 54 37 28 22 20 20 44 83 82 56 36 22 24 27 27 53 49 34 27 21 20 25 55 81 73 51 31 23 23 24 28 59 79 69 47 33 25 20 19 23 53 80 77 53 33 22 21 28 57 72 58 40 35 28 23 21 28 63 80 66 44 28 18 20 22 29 57 72 61 41 31 26 21 21 27 57 82 32 25 23 24 27 53 74 67 50 34 26 20 18 19 48 89 73 43 30 21 17 18 22 46 67 66 48 36 28 24 50 76 73 52 33 19 18 21 26 50 70 65 49 36 28 23 20 26 53 71 70 51 31 25 27 28 33 56 72 61 33 25 19 17 28 71 85 64 42 24 21 26 26 36 70 66 48 38 30 22 20 20 54 88 77 52 32 23 28 29 30 67 46 35 26 22 20 23 56 89 72 47 30 22 26 25 33 64 74 61 46 36 27 25 21 37 71 77 60 43 25 23 43 73 72 52 36 26 20 18 19 45 79 78 58 39 24 20 22 22 42 74 72 52 38 30 23 22 22 29 65 68 41 26 19 23 21 30 61 78 63 45 33 25 20 20 23 50 86 78 49 33 23 25 24 34 66 74 58 42 33 27 23 54 73 64 50 35 21 20 23 24 55 81 64 46 34 26 24 23 25 55 78 72 56 39 25 19 19 21 45 67 33 27 23 20 25 58 80 69 48 28 18 21 27 36 50 64 63 50 37 28 22 20 22 55 71 71 48 32 24 21 30 50 61 57 45 39 32 28 23 28 43 52 52 43 36 30 29 24 21 42 50 59 47 36 31 33 34 34 37 52 68 35 21 20 23 27 50 68 68 53 39 30 23 19 19 41 65 74 58 39 22 12 10 15 30 53 67 63 49 36 29 23 33 58 78 65 44 30 20 17 19 27 42 56 61 55 43 34 29 24 20 20 35 56 68 60 46 33 23 18 18 47 60 59 46 34 27 24 22 22 23 34 54 61 55 48 38 26 19 17 21 28 34 42 50 51 42 31 25 22 21 24 28 43 53 52 49 42 34 27 22 20 22 26 32 39 45 48 47 41 34 29 28 26 24 28 34 44 53 44 35 36 29 25 26 26 29 33 36 39 38 35 35 36 34 32 31 30 29 29 31 37 43 40 36 37 39 38 34 32 28 27 31 35 35 34 37 38 38 37 35 34 34 36 39 41 42 40 38 35 31 27 25 27 27 29 34 38 35 33 33 32 34 33 33 33 34 31 29 30 34 37 32 27 30 30 39 36 36 36 33 33 33 31 32 31 34 35 34 33 32 34 33 34 33 32 33 33 34 33 32 34 33 34 34 34 33 33 31 29 29 34 35 34 33 34 33 33 33 33 33 33 33 34 33 33 34 33 33 32 32 33 34 35 34 33 33 34 34 36 35 35 35 33 32 31 30 30 30 32 30 32 34 34 34 35 33 33 33 33 32 31 33 35 33 33 35 35 36 36 32 32 30 30 32 31 32 32 31 31 32 35 33 32 33 33 32 32 32 31 31 32 32 34 33 33 34 33 33 33 32 32 32 32 32 33 32 32 31 31 29 29 28 30 35 37 37 36 34 36 36 34 32 32 32 33 34 34 34 33 33 33 33 33 33 33 33 33 33 33 33 33 33 33 33 33 33 33 33 33 33 33 33 33 33 33 33 33 33 33 33 33 33 33 33 33 33 33 33 33 33 33 33 33 33 33 33 33 33 33 33 33 33 33 33 33 33 33 33 33 33 33 33 33 33 33 33 33 33 33 33 33 33 33 33 33 33 33 33 34 33 33 34 31 32 32 33 33 33 33 33 37 32 33 33 34 33 32 33 33 33 33 33 33 33 33 34 33 34 34 34 35 36 36 37 35 34 35 32 32 30 31 31 32 31 32 31 32 30 33 33 32 33 32 33 33 32 32 33 33 33 33 33 33 32 32 33 33 33 33 32 31 30 33 34 34 34 33 33 34 33 33 33 33 33 33 33 33 33 33 33 33 33 33 33 33 33 33 33 33 33 33 33 33 33 33 33 33 33 33 34 33 33 33 34 33 33 33 33 33 33 34 34 33 33 33 33 33 33 33 33 33 33 33 34 34 33 33 33 34 33 33 34 33 33 34 33 32 33 33 33 32 32 33 31 30 32 32 31 31 32 33 32 32 32 33 33 35 35 35 34 34 34 33 33 32 33 33 35 34 34 33 33 33 33 33 33 33 33 33 33 33 33 33 33 33 33 33 33 33 32 32 33 32 32 33 33 33 33 33 32 33 33 32 32 33 33 33 33 33 33 33 33 33 33 33 33 33 33 33 33 32 32 32 32 33 32 32 33 32 32 32 33 32 32 32 33 32 32 32 32 32 32 33 33 33 33 33 32 32 32 32 32 33 32 32 32 32 33 32 33 33 32 32 32 32 33 32 32 32 32 33 33 32 32 32 32 32 32 32 32 32 32 32 32 32 32 33 32 32 33 32 32 33 33 33 33 33 33 33 33 33 33 32 33 32 32 32 32 32 32 33 33 32 32 32 32 32 32 32 32 32 32 32 32 33 33 32 32 33 32 32 32 32 32 32 32 32 32 32 32 32 32 32 32 33 32 33 33 33 33 33 32 33 32 32 32 32 33 32 32 32 32 32 32 32 32 32 32 32 32 33 32 32 32 32 32 32 32 32 33 32 32 32 32 32 32 32 32 32 32 33 33 32 32 32 32 32 32 32 32 32 32 32 32 32 32 32 33 33 32 32 32 32 33 33 32 32 32 32 32 32 32 32 32 33 33 32 32 32 32 32 32 32 32 32 32 32 32 32 32 32 32 32 32 32 32 32 32 32 32 32 32 32 32 32 32 33 33 33 32 32 32 32 32 32 32 32 32 32 33 32 32 33 32 33 32 33 33 33 33 33 33 32 32 32 32 32 32 33 32 32 32 32 32 32 32 32 32 32 32 32 32 32 32 32 32 33 32 33 33 32 32 33 32 32 32 32 32 32 32 32 32 32 32 32 32 33 32 33 33 32 32 32 33 33 32 32 32 32 32 33 32 33 33 33 32 32 32 32 32 32 32 33 33 32 32 32 32 32 32 32 32 32 32 32 32 32 32 32 32 32 32 32 32 33 33 35 36 35 33 32 34 33 34 34 35 37 37 40 42 41 40 37 32 30 26 26 25 26 27 29 30 30 29 29 28 29 30 29 28 27 24 21 25 33 36 36 38 39 37 42 35 36 37 34 34 33 33 32 31 32 33 35 36 36 35 33 32 33 33 33 34 33 33 34 33 33 33 33 33 33 33 33 32 33 33 32 34 34 32 32 34 32 34 33 34 32 31 32 32 32 33 34 32 33 34 33 32 33 33 34 34 33 33 33 34 34 33 32 31 32 32 33 33 32 33 33 33 34 34 33 32 32 33 34 33 34 33 33 33 33 35 33 32 32 33 36 38 34 33 32 29 29 29 27 26 28 30 30 34 36 35 35 35 36 36 38 38 36 34 34 34 37 38 36 32 32 31 32 32 31 32 32 34 34 33 32 31 33 35 35 33 31 32 32 31 32 32 33 34 41 40 34 40 42 39 35 33 28 24 24 25 27 34 38 39 41 42 38 35 33 33 31 28 29 33 39 37 38 42 46 44 39 25 25 29 36 41 47 47 44 38 33 29 27 25 28 34 43 46 48 48 46 43 39 34 29 27 27 31 29 37 46 35 29 25 27 33 45 60 59 54 48 38 29 23 23 26 34 41 54 58 52 42 35 32 27 31 49 68 71 56 37 21 25 27 38 77 81 59 41 33 29 23 21 44 83 84 56 34 25 25 28 32 45 67 70 56 39 32 29 29 38 75 38 27 27 29 26 58 85 71 48 35 27 22 23 46 76 75 52 35 29 30 30 48 73 71 52 39 32 29 27 35 62 35 22 25 30 31 72 93 64 37 30 27 25 33 73 89 67 40 26 27 28 30 70 85 63 40 29 24 28 32 98 82 47 27 29 32 28 62 91 73 46 31 29 29 28 68 99 72 40 23 29 32 30 72 94 72 45 35 29 28 33 57 27 17 29 36 50 83 82 55 37 34 30 27 39 80 88 60 33 24 29 29 37 80 86 59 41 34 26 23 32 62 32 27 35 34 43 83 88 59 32 29 29 27 38 101 100 53 26 32 39 32 66 100 76 47 35 28 25 23 58 65 38 25 30 29 33 72 85 60 35 32 31 28 35 94 102 64 37 29 35 31 38 81 83 56 33 27 25 25 28 78 35 20 27 29 29 78 87 58 39 32 26 24 31 92 96 59 29 22 27 29 40 72 76 56 41 36 30 28 31 68 34 21 24 24 28 65 87 69 48 36 29 30 32 67 99 81 38 27 29 26 27 62 79 65 45 39 34 31 29 58 45 28 27 34 26 68 95 66 46 41 31 25 23 45 83 84 56 36 31 33 28 56 84 72 47 32 26 24 24 66 74 38 24 27 31 33 71 83 64 43 32 29 26 27 74 97 72 44 28 30 30 28 65 87 70 47 37 29 29 26 60 54 31 26 31 29 45 96 83 52 34 28 26 26 52 95 84 51 26 21 28 25 44 86 78 54 38 31 28 27 28 49 27 22 25 23 61 89 63 41 34 28 25 29 76 94 62 36 24 27 26 36 84 82 52 34 28 26 27 33 90 60 35 25 29 30 37 81 86 56 37 31 29 26 30 83 97 67 38 24 31 30 31 70 85 64 40 29 24 23 22 58 46 26 26 29 30 62 84 66 43 35 30 28 27 57 97 77 49 26 23 31 30 46 90 81 53 39 31 29 27 39 56 29 24 32 32 45 91 84 55 40 32 29 26 39 89 86 57 34 30 31 29 57 88 72 45 35 30 27 28 57 76 41 26 29 37 32 69 95 72 45 35 28 25 23 62 97 79 48 24 30 39 33 63 91 71 43 36 31 28 25 66 48 28 39 45 37 69 100 76 46 35 29 28 25 63 101 80 48 29 34 39 33 69 89 65 43 36 29 27 25 65 47 28 31 36 30 76 93 66 41 30 26 25 25 64 107 84 50 30 32 35 30 68 91 69 44 34 30 29 26 56 88 55 28 29 36 32 54 91 78 51 37 31 29 25 54 88 78 48 24 23 29 29 58 84 71 51 39 29 27 26 35 43 25 31 31 27 66 87 69 42 33 27 26 27 43 85 89 61 37 28 32 30 38 90 81 49 38 32 28 24 46 58 34 24 33 33 35 96 98 57 33 30 29 27 39 90 98 67 40 30 36 34 34 85 92 64 41 30 30 30 28 113 78 42 27 30 32 29 74 99 74 47 35 26 29 27 48 89 91 58 33 23 28 28 33 77 90 62 37 29 27 25 104 81 40 27 31 36 31 72 101 74 44 29 27 28 27 50 91 82 54 28 26 31 31 59 96 77 46 36 32 29 80 92 65 42 28 25 25 28 80 89 55 30 28 29 29 24 65 111 81 45 27 27 30 28 59 98 75 44 33 30 24 28 93 100 58 34 23 26 24 33 88 81 48 29 29 26 24 33 100 92 58 33 27 33 35 39 94 93 55 31 29 33 84 97 64 35 23 28 32 31 60 99 75 47 33 29 25 23 48 86 80 55 28 24 31 33 47 82 80 51 35 24 48 95 86 59 36 25 32 30 34 79 89 60 39 35 30 28 26 78 107 76 48 28 37 36 31 65 89 71 44 31 29 26 50 101 86 57 32 27 36 31 40 88 79 52 37 33 30 27 43 84 80 57 36 29 34 31 44 90 80 50 23 22 32 80 94 66 37 20 32 32 32 72 83 59 37 30 25 23 20 59 105 79 46 24 25 30 30 50 82 70 24 22 22 35 93 95 63 32 21 26 27 31 84 86 57 37 33 28 25 26 70 114 87 47 29 41 38 28 77 95 34 28 26 23 25 45 83 95 64 31 19 32 38 37 84 104 69 44 36 30 28 27 76 115 81 47 29 42 42 33 71 47 33 27 25 22 49 104 86 50 28 31 36 34 51 93 82 55 35 27 24 25 33 88 100 68 39 27 35 36 38 61 41 29 20 21 22 50 107 89 52 29 32 39 35 51 90 82 54 33 26 26 25 29 93 106 68 34 27 38 37 77 53 33 32 28 26 34 77 96 73 46 24 26 28 27 60 105 75 43 27 26 28 24 31 91 102 69 35 23 32 49 91 80 54 34 24 22 24 22 65 114 78 39 22 29 36 34 41 104 90 54 37 31 27 24 54 98 78 49 29 32 48 92 84 55 30 24 24 26 28 77 99 70 46 33 36 37 37 71 88 66 42 34 28 26 23 38 102 100 59 29 32 51 88 77 51 33 29 27 26 39 87 85 57 34 24 30 31 34 76 87 60 33 26 27 29 30 66 96 80 52 34 34 33 66 91 67 43 34 29 27 25 47 98 88 60 35 25 30 31 30 70 94 69 39 29 27 27 24 38 94 93 29 35 33 40 82 80 55 38 34 28 26 26 93 104 70 40 25 36 37 36 79 97 67 38 33 28 25 22 66 109 29 33 37 29 59 88 74 48 32 26 27 24 33 93 93 61 34 26 34 32 33 75 83 58 36 27 25 28 26 65 78 51 29 28 35 33 50 93 77 50 34 29 26 25 33 91 99 70 42 27 33 36 32 61 97 74 46 34 28 26 25 100 64 36 27 34 32 33 72 79 61 40 33 28 25 22 58 103 81 49 29 35 38 35 69 82 63 39 31 27 27 101 86 53 28 33 36 31 55 79 70 48 35 27 24 24 34 85 89 63 38 21 27 30 29 61 79 67 42 30 24 23 65 99 75 49 26 27 29 28 54 96 78 45 29 25 24 24 36 96 94 61 33 24 31 30 28 71 89 69 38 26 23 52 94 85 57 31 26 29 27 30 75 88 64 37 26 22 26 25 45 105 96 62 33 30 36 31 37 73 80 64 19 22 21 48 93 88 58 33 27 31 32 46 80 80 55 38 31 24 24 23 72 109 77 45 24 32 38 38 66 87 48 36 28 27 25 35 85 88 65 38 28 35 32 29 72 90 70 39 26 20 23 25 46 103 92 56 29 29 39 34 41 56 37 29 25 25 22 59 113 94 52 30 41 44 37 56 97 88 53 33 29 25 23 26 88 102 69 34 20 30 31 88 64 39 27 20 19 20 45 89 87 56 31 26 30 28 39 80 78 49 29 26 20 22 26 64 90 75 45 22 23 29 46 82 79 53 31 23 20 22 27 82 91 61 35 21 24 26 25 57 81 70 47 34 27 22 21 35 81 81 56 33 26 32 66 79 62 42 36 27 22 19 45 82 77 56 28 22 33 35 41 69 80 62 40 33 25 26 24 61 92 72 30 30 45 74 79 60 41 33 28 28 22 40 85 81 55 32 20 23 26 36 72 77 55 37 30 24 26 23 60 90 26 24 25 26 43 78 77 52 38 31 27 25 25 66 72 59 53 42 24 19 22 39 54 59 47 40 36 34 30 33 50 55 39 26 29 30 33 52 58 54 33 26 34 41 43 51 60 63 49 31 22 26 31 35 55 71 62 46 34 22 20 72 66 48 31 18 21 24 36 60 72 57 41 32 23 21 21 56 82 70 46 26 24 31 31 46 76 76 53 39 31 26 55 75 70 49 31 23 20 21 30 57 73 55 35 28 23 19 17 30 68 80 64 41 23 16 17 21 40 65 70 36 32 27 25 23 36 68 79 63 40 24 14 16 19 35 59 70 62 45 35 27 23 19 25 63 77 65 52 33 19 17 49 73 71 50 35 26 17 14 17 32 69 81 64 44 28 18 17 21 26 38 63 82 69 42 27 25 23 22 22 38 60 42 28 17 13 16 23 40 60 67 54 36 26 22 18 17 23 37 59 66 58 43 28 18 14 18 32 42 47 53 46 36 29 26 23 21 21 32 56 73 61 44 32 20 12 13 22 34 40 51 59 51 39 31 27 24 21 23 27 40 58 34 24 18 16 19 29 36 40 42 42 41 40 39 36 33 30 27 26 26 32 45 45 41 41 38 34 29 27 25 27 36 35 34 36 36 39 37 32 29 27 27 34 35 34 34 32 31 30 32 35 32 37 39 36 34 32 32 33 34 34 32 32 33 33 32 32 32 32 34 33 33 32 32 33 33 33 31 33 33 34 34 33 33 32 32 32 33 33 33 34 34 36 33 32 32 33 36 37 34 32 32 32 30 31 32 31 30 30 32 38 31 33 34 35 33 34 34 33 34 34 32 36 36 35 33 35 37 35 30 29 30 31 32 33 34 32 33 33 33 33 33 32 32 32 32 33 33 33 33 33 33 32 33 33 33 34 34 34 33 33 33 33 33 32 33 33 33 32 32 32 32 33 32 29 30 30 30 32 34 36 37 36 34 32 33 33 34 36 34 33 32 32 33 34 35 34 33 34 32 32 34 34 33 33 33 32 33 33 33 33 33 33 32 32 33 32 33 33 33 32 32 32 33 33 33 34 35 37 40 46 43 42 37 33 29 27 24 23 27 27 29 30 32 33 34 32 34 33 31 35 32 32 33 33 35 34 30 33 34 36 33 33 30 32 32 32 30 30 32 30 31 33 32 34 35 34 33 35 33 35 36 35 37 36 35 33 34 34 33 32 34 34 32 30 28 28 30 30 31 34 34 32 36 34 33 31 32 34 34 34 34 33 35 35 34 33 32 33 33 33 33 32 33 33 33 33 33 32 33 32 32 33 33 33 33 33 33 33 32 33 33 33 33 33 33 33 33 33 33 32 33 33 33 33 33 33 33 33 33 33 33 33 33 33 33 33 33 33 33 33 33 33 33 33 33 33 33 33 33 33 33 33 33 33 33 33 33 33 33 33 33 33 32 32 33 33 33 33 33 33 33 33 33 33 33 33 33 34 33 33 33 33 33 33 33 32 32 32 32 33 32 33 33 33 33 33 33 33 33 33 33 33 33 33 33 33 33 33 33 33 33 33 33 33 33 33 33 33 33 33 33 33 33 33 33 33 33 33 33 33 33 33 33 33 33 33 33 33 33 33 33 33 33 33 34 33 33 34 33 33 33 33 34 33 34 33 33 33 33 34 33 33 33 33 33 33 33 33 33 33 33 33 33 33 33 33 33 33 33 33 33 33 33 33 33 33 33 33 33 33 33 33 33 33 33 33 33 33 33 33 33 33 33 33 33 33 33 33 33 33 33 33 33 33 33 33 33 33 33 33 33 33 33 33 33 33 33 33 33 33 32 33 33 33 33 33 32 32 32 33 33 32 33 33 33 33 33 33 33 33 33 32 32 32 33 32 34 34 35 34 34 35 34 35 35 37 37 35 35 34 33 31 31 27 29 31 31 32 36 35 32 32 33 34 34 34 33 33 33 33 33 32 32 32 32 34 33 33 33 34 34 33 33 33 34 34 34 34 34 34 36 35 34 33 34 34 32 31 32 31 29 30 34 33 33 33 34 32 33 32 32 34 33 32 33 33 33 33 33 33 33 33 33 33 34 34 33 32 32 33 34 33 33 33 33 32 32 32 32 32 32 34 34 33 32 32 33 34 34 33 34 33 32 33 33 33 33 34 33 33 33 32 32 32 33 33 33 33 33 33 32 32 31 33 33 33 34 33 32 31 32 32 31 32 32 32 33 33 31 32 33 32 33 33 32 33 33 33 32 30 34 33 32 32 32 32 33 34 33 32 32 31 31 32 32 34 34 33 33 33 33 33 33 32 31 31 32 33 34 34 33 33 33 33 33 33 32 32 33 33 33 32 32 33 32 32 32 32 32 32 32 32 32 33 33 33 33 33 32 32 33 33 32 32 33 33 33 33 33 33 33 32 33 33 33 32 33 33 33 33 33 32 33 33 33 33 33 33 33 33 33 33 33 33 33 33 33 33 33 33 33 33 33 33 33 33 33 33 33 33 33 33 33 33 33 33 32 33 33 33 33 32 33 33 33 33 33 33
