25016 25050 25100 25145 25202 25257 25307 25382 25481 25589 25685 25769 25855 25915 25874 25809 25760 25735 25744 25750 25757 25716 25681 25618 25590 25584 25575 25590 25617 25644 25683 25686 25700 25731 25771 25828 25908 25951 26030 26073 26116 26147 26186 26224 26281 26330 26354 26363 26368 26386 26443 26474 26521 26548 26586 26615 26633 26663 26703 26732 26771 26794 26813 26805 26771 26766 26778 26806 26845 26869 26885 26912 26936 26972 26999 27040 27078 27102 27091 27044 27010 26992 26997 27001 27026 27052 27080 27085 27116 27144 27168 27192 27230 27210 27145 27080 27035 27029 27050 27063 27093 27118 27146 27176 27195 27241 27262 27278 27331 27291 27227 27178 27176 27185 27195 27214 27235 27232 27248 27272 27314 27332 27369 27419 27404 27329 27289 27280 27288 27323 27339 27352 27379 27395 27420 27436 27466 27478 27486 27456 27334 27272 27234 27207 27222 27220 27231 27242 27278 27298 27331 27342 27368 27412 27399 27335 27236 27173 27170 27171 27170 27182 27177 27208 27225 27258 27274 27303 27331 27360 27374 27365 27341 27346 27388 27454 27499 27530 27553 27602 27640 27682 27728 27766 27829 27875 27866 27802 27767 27759 27801 27858 27900 27900 27940 27975 28012 28075 28111 28131 28192 28215 28156 28096 28079 28080 28102 28126 28168 28183 28216 28263 28314 28376 28417 28470 28508 28515 28519 28481 28485 28528 28573 28617 28670 28725 28789 28827 28850 28878 28884 28847 28823 28763 28656 28544 28484 28439 28441 28439 28425 28429 28429 28433 28462 28473 28493 28511 28533 28497 28402 28314 28308 28305 28296 28310 28324 28333 28352 28356 28378 28398 28416 28428 28432 28334 28220 28145 28109 28100 28103 28121 28093 28099 28096 28105 28137 28174 28196 28205 28185 28058 27894 27792 27686 27640 27570 27491 27389 27291 27210 27133 27077 27061 27022 26986 26903 26693 26455 26290 26143 26015 25917 25807 25654 25507 25347 25204 25076 24975 24902 24818 24657 24403 24191 24017 23876 23791 23697 23621 23546 23494 23469 23446 23436 23414 23408 23350 23216 23057 22909 22820 22782 22722 22690 22632 22589 22588 22619 22646 22681 22708 22701 22604 22463 22372 22322 22314 22317 22305 22293 22306 22312 22333 22342 22378 22411 22415 22367 22290 22227 22196 22222 22223 22239 22239 22239 22249 22262 22292 22327 22356 22375 22356 22296 22222 22195 22230 22233 22220 22227 22240 22253 22277 22305 22331 22355 22387 22416 22387 22322 22292 22310 22321 22353 22392 22430 22455 22494 22533 22566 22621 22664 22681 22647 22569 22535 22517 22528 22571 22593 22608 22628 22644 22689 22697 22752 22780 22813 22813 22757 22705 22690 22670 22698 22713 22732 22749 22764 22797 22823 22871 22882 22922 22938 22925 22859 22830 22832 22854 22877 22895 22911 22921 22950 22957 22991 23017 23051 23080 23067 23001 23003 22985 22992 23014 23015 23024 23030 23046 23068 23091 23111 23138 23155 23112 23061 23031 23027 23043 23070 23073 23088 23119 23135 23150 23183 23191 23233 23239 23189 23141 23106 23092 23111 23111 23105 23130 23160 23194 23214 23268 23308 23333 23374 23343 23313 23287 23285 23304 23341 23421 23547 23764 23973 24141 24296 24425 24554 24663 24761 24836 24903 24976 25047 25127 25168 25250 25295 25335 25395 25453 25496 25558 25579 25589 25606 25625 25676 25716 25751 25808 25825 25887 25907 25966 26016 26041 26091 26114 26119 26140 26228 26373 26512 26660 26797 26916 27022 27134 27233 27318 27388 27437 27466 27468 27450 27453 27474 27526 27562 27639 27697 27752 27788 27821 27829 27816 27808 27785 27756 27723 27694 27679 27655 27632 27604 27601 27576 27587 27588 27618 27627 27633 27636 27610 27540 27490 27444 27429 27390 27372 27370 27359 27353 27367 27367 27353 27346 27333 27290 27242 27216 27196 27190 27151 27150 27136 27132 27145 27140 27166 27175 27164 27156 27115 27062 27037 27079 27159 27260 27363 27441 27481 27479 27459 27440 27389 27316 27223 27062 26841 26614 26434 26315 26235 26126 26013 25893 25823 25745 25662 25606 25501 25431 25324 25140 24945 24783 24676 24583 24491 24410 24335 24268 24196 24157 24110 24088 24067 24028 23905 23758 23643 23557 23503 23484 23466 23420 23392 23378 23391 23392 23396 23400 23405 23396 23308 23191 23116 23078 23090 23081 23078 23085 23095 23098 23126 23143 23166 23194 23213 23190 23101 23020 22996 23001 23032 23040 23037 23055 23070 23100 23134 23146 23192 23217 23228 23158 23091 23059 23086 23094 23127 23143 23150 23171 23195 23230 23271 23296 23332 23328 23262 23222 23211 23202 23227 23253 23270 23264 23303 23327 23358 23385 23418 23445 23447 23400 23371 23365 23375 23410 23426 23434 23461 23489 23516 23573 23627 23647 23688 23718 23725 23751 23789 23862 23924 24030 24111 24223 24317 24403 24487 24573 24612 24657 24707 24720 24813 24889 24958 25021 25077 25111 25154 25230 25286 25322 25357 25416 25452 25472 25485 25496 25534 25555 25599 25619 25658 25676 25705 25741 25787 25832 25891 25923 25944 25949 25979 26012 26029 26023 26029 26033 26034 26047 26059 26046 26033 26015 25961 25891 25821 25782 25727 25687 25656 25618 25560 25520 25492 25465 25447 25401 25326 25228 25127 25033 24990 24947 24887 24854 24807 24777 24744 24735 24722 24702 24642 24542 24445 24359 24315 24274 24255 24224 24188 24159 24139 24114 24092 24075 24038 23964 23867 23764 23705 23673 23655 23638 23609 23587 23574 23568 23585 23603 23612 23589 23499 23396 23337 23325 23341 23344 23379 23393 23440 23479 23546 23603 23635 23706 23757 23745 23726 23791 23844 23938 24056 24121 24216 24303 24381 24471 24534 24617 24690 24726 24704 24703 24702 24730 24764 24791 24829 24864 24899 24933 24967 25005 25043 25064 25041 24998 24953 24952 24963 25015 25088 25177 25294 25422 25565 25679 25802 25946 26085 26206 26341 26495 26669 26887 27104 27284 27416 27482 27513 27571 27638 27767 27953 28141 28302 28444 28552 28624 28618 28596 28522 28471 28463 28415 28354 28355 28362 28348 28331 28319 28310 28242 28202 28169 28161 28141 28102 28021 27924 27788 27675 27602 27538 27453 27408 27346 27277 27168 27057 26936 26876 26980 27105 27341 27634 27946 28269 28552 28821 29048 29267 29460 29658 29793 29877 29909 29946 29972 29976 29983 30005 30007 29992 29983 29984 30001 30021 30032 30046 30071 30094 30107 30172 30219 30212 30170 30147 30153 30131 30122 30089 30068 30069 30050 30035 30038 30011 29999 29983 29947 29923 29913 29900 29868 29866 29836 29812 29770 29721 29716 29728 29748 29831 29892 29970 30030 30088 30123 30151 30177 30171 30195 30130 30116 30097 30031 29970 29872 29785 29682 29637 29516 29392 29184 28931 28626 28372 28155 27993 27878 27725 27581 27450 27337 27238 27140 27033 26949 26835 26655 26416 26205 26030 25868 25717 25581 25446 25311 25178 25067 24968 24881 24795 24684 24514 24299 24118 23983 23878 23796 23736 23648 23581 23535 23496 23474 23457 23456 23444 23352 23222 23101 23047 23011 23013 22994 22971 22946 22946 22941 22944 22934 22960 22938 22883 22766 22690 22648 22638 22655 22646 22643 22649 22661 22668 22702 22720 22733 22740 22694 22613 22559 22551 22560 22566 22578 22579 22587 22609 22630 22660 22689 22700 22666 22610 22544 22525 22531 22560 22582 22598 22607 22617 22629 22671 22689 22711 22746 22698 22628 22594 22588 22594 22613 22634 22657 22652 22661 22692 22722 22742 22759 22769 22712 22656 22634 22642 22661 22695 22705 22704 22716 22746 22776 22802 22818 22842 22842 22780 22740 22735 22755 22755 22788 22795 22806 22826 22853 22869 22893 22929 22958 22940 22885 22849 22834 22847 22866 22880 22898 22889 22911 22927 22940 22960 22980 22993 22978 22935 22889 22866 22866 22891 22900 22898 22915 22921 22950 22980 22981 23011 23026 23021 22968 22903 22879 22899 22903 22897 22927 22934 22964 22974 22996 23002 23028 23050 23073 23093 23041 22990 22946 22941 22951 22965 22984 22994 22997 23016 23038 23074 23085 23114 23123 23157 23159 23199 23150 23096 23046 23041 23041 23044 23053 23058 23053 23063 23064 23078 23087 23108 23121 23141 23173 23190 23219 23207 23158 23104 23087 23091 23105 23111 23122 23126 23138 23164 23173 23202 23213 23234 23245 23246 23283 23294 23313 23266 23209 23184 23172 23180 23192 23198 23196 23223 23224 23232 23247 23288 23293 23313 23339 23361 23366 23334 23257 23234 23209 23215 23238 23253 23251 23253 23273 23280 23305 23327 23336 23362 23394 23399 23407 23356 23292 23262 23245 23254 23260 23268 23269 23273 23294 23294 23317 23344 23361 23377 23398 23423 23435 23385 23336 23305 23272 23283 23305 23309 23314 23314 23326 23337 23361 23384 23382 23407 23436 23448 23470 23456 23419 23363 23331 23324 23339 23350 23358 23364 23364 23374 23391 23413 23426 23439 23459 23480 23481 23479 23436 23394 23361 23363 23378 23378 23383 23371 23393 23401 23412 23430 23442 23451 23467 23481 23506 23464 23425 23387 23387 23372 23391 23407 23402 23406 23413 23434 23447 23460 23478 23490 23514 23517 23473 23418 23374 23351 23370 23379 23385 23371 23380 23399 23407 23412 23413 23433 23452 23474 23475 23426 23381 23333 23319 23338 23336 23341 23340 23349 23360 23360 23386 23392 23405 23426 23434 23450 23407 23358 23330 23315 23329 23327 23351 23343 23349 23360 23376 23383 23395 23409 23419 23445 23458 23429 23384 23338 23324 23341 23358 23353 23353 23367 23378 23392 23403 23412 23428 23455 23460 23493 23459 23413 23373 23358 23356 23382 23406 23389 23399 23411 23418 23439 23452 23474 23495 23526 23539 23538 23492 23453 23430 23428 23431 23452 23465 23458 23470 23491 23507 23519 23526 23555 23576 23587 23600 23584 23548 23507 23505 23518 23522 23535 23527 23552 23553 23559 23586 23594 23616 23631 23645 23655 23668 23645 23607 23581 23575 23591 23600 23600 23610 23615 23627 23637 23654 23668 23677 23708 23720 23713 23708 23667 23632 23631 23640 23646 23653 23654 23657 23655 23675 23683 23691 23714 23721 23755 23742 23702 23643 23617 23616 23618 23610 23617 23608 23613 23607 23640 23644 23658 23661 23674 23683 23653 23586 23547 23531 23531 23532 23525 23529 23530 23532 23525 23539 23557 23566 23572 23583 23586 23528 23471 23420 23399 23416 23413 23405 23421 23412 23418 23418 23438 23428 23446 23453 23456 23465 23402 23330 23286 23288 23275 23285 23270 23283 23278 23280 23283 23295 23301 23332 23352 23364 23368 23300 23243 23221 23215 23231 23231 23243 23247 23246 23254 23270 23281 23287 23314 23332 23361 23289 23264 23215 23219 23222 23229 23244 23257 23255 23270 23295 23307 23315 23344 23359 23387 23363 23298 23263 23259 23273 23274 23288 23303 23306 23323 23341 23360 23376 23398 23432 23433 23454 23429 23368 23330 23348 23369 23375 23383 23383 23378 23376 23394 23395 23413 23419 23430 23442 23442 23409 23364 23351 23349 23369 23399 23412 23432 23448 23462 23476 23503 23538 23556 23569 23591 23600 23573 23552 23533 23534 23541 23564 23563 23572 23576 23582 23601 23607 23634 23640 23656 23687 23676 23646 23606 23596 23593 23607 23621 23614 23625 23641 23647 23671 23672 23698 23711 23731 23747 23724 23675 23645 23633 23620 23639 23639 23647 23644 23668 23668 23685 23705 23696 23722 23751 23754 23721 23663 23622 23615 23619 23613 23620 23608 23626 23622 23639 23661 23667 23671 23700 23703 23726 23679 23622 23589 23568 23559 23559 23559 23561 23568 23558 23576 23567 23592 23585 23599 23619 23610 23566 23530 23578 23668 23745 23824 23933 24102 24246 24369 24457 24544 24662 24820 25036 25276 25524 25765 25989 26184 26383 26562 26698 26816 26950 27058 27193 27332 27487 27683 27866 28085 28255 28380 28422 28444 28442 28446 28416 28371 28351 28326 28278 28245 28223 28175 28145 28104 28056 28015 27969 27953 27947 27934 27951 27964 27954 27956 27961 27982 27982 27971 27968 27981 27987 28001 27953 27924 27906 27893 27937 28132 28456 28638 28722 28722 28725 28711 28659 28626 28656 28767 28929 29139 29349 29552 29707 29847 29968 30098 30199 30297 30412 30523 30640 30693 30732 30784 30825 30874 30891 30949 30986 31034 31051 31054 31077 31102 31114 31122 31132 31152 31159 31163 31171 31173 31179 31185 31191 31216 31249 31247 31264 31286 31281 31280 31303 31311 31303 31312 31330 31328 31338 31368 31383 31403 31420 31445 31501 31515 31553 31571 31600 31620 31650 31647 31684 31690 31711 31718 31748 31766 31806 31806 31812 31833 31834 31851 31845 31849 31862 31866 31885 31865 31869 31854 31841 31833 31824 31835 31841 31844 31857 31871 31904 31919 31935 31963 31959 31955 31968 31962 31972 31972 31967 31979 31943 31915 31886 31874 31832 31817 31790 31750 31707 31692 31679 31671 31665 31676 31657 31651 31669 31661 31657 31653 31654 31645 31641 31654 31635 31650 31649 31649 31661 31649 31655 31705 31724 31762 31782 31795 31808 31816 31825 31827 31821 31817 31830 31825 31828 31845 31845 31839 31851 31855 31873 31883 31866 31872 31893 31894 31886 31885 31876 31873 31888 31884 31895 31892 31897 31914 31915 31913 31921 31919 31933 31928 31935 31943 31933 31943 31937 31944 31952 31943 31971 31949 31968 31967 31972 31973 31978 31986 31976 31987 31999 31999 31993 32009 32000 32017 31997 31998 32005 32018 32035 32015 32032 32053 32059 32049 32056 32049 32060 32060 32056 32045 32050 32066 32056 32055 32044 32033 32032 32039 32044 32033 32052 32038 32049 32060 32058 32072 32048 32055 32076 32072 32082 32096 32099 32091 32119 32129 32116 32121 32144 32130 32134 32142 32143 32146 32141 32154 32135 32145 32141 32150 32153 32154 32166 32170 32179 32186 32187 32144 32061 31916 31767 31547 31332 31182 31084 31012 30927 30849 30774 30669 30607 30535 30457 30394 30355 30286 30128 29947 29765 29621 29512 29390 29280 29165 29053 28931 28820 28730 28670 28585 28502 28411 28242 28014 27798 27629 27480 27343 27232 27109 27001 26879 26800 26718 26658 26601 26555 26501 26392 26278 26194 26156 26111 26110 26092 26084 26067 26064 26051 26073 26089 26108 26133 26146 26117 26102 26075 26096 26138 26185 26231 26282 26318 26342 26347 26418 26475 26541 26588 26616 26630 26598 26591 26608 26611 26634 26673 26704 26748 26779 26809 26801 26821 26823 26834 26800 26755 26720 26731 26731 26744 26757 26767 26797 26801 26833 26862 26897 26936 26926 26887 26842 26828 26811 26835 26827 26855 26853 26870 26888 26926 26945 26965 27008 27017 26988 26949 26935 26954 26983 27026 27071 27113 27140 27203 27231 27264 27309 27359 27384 27404 27364 27390 27403 27432 27438 27436 27396 27363 27330 27306 27291 27213 27131 27044 26876 26634 26391 26172 25950 25775 25562 25403 25234 25091 24969 24847 24754 24652 24585 24457 24301 24117 23976 23853 23780 23715 23641 23587 23561 23507 23482 23463 23436 23418 23398 23343 23231 23116 23015 22961 22921 22913 22905 22891 22899 22899 22918 22932 22936 22954 22969 22998 22991 22900 22802 22735 22699 22677 22669 22685 22702 22713 22722 22740 22761 22791 22814 22842 22862 22894 22920 22906 22832 22734 22691 22685 22694 22730 22770 22797 22851 22907 22952 22993 23064 23145 23224 23308 23416 23537 23646 23695 23759 23861 23987 24189 24442 24749 25051 25378 25677 25997 26319 26590 26823 27019 27189 27339 27487 27609 27751 27882 28000 28134 28255 28390 28517 28635 28759 28870 28977 29068 29175 29269 29353 29443 29473 29521 29549 29586 29612 29627 29660 29674 29716 29731 29772 29805 29843 29857 29919 29906 29908 29880 29873 29867 29885 29875 29903 29912 29914 29920 29949 29969 29993 30013 30044 30083 30102 30143 30167 30191 30225 30246 30276 30300 30313 30348 30362 30397 30430 30465 30492 30509 30538 30539 30551 30543 30557 30560 30562 30563 30549 30541 30523 30508 30500 30478 30448 30417 30424 30427 30434 30428 30417 30399 30356 30361 30401 30452 30488 30485 30439 30352 30206 29990 29758 29522 29304 29083 28858 28636 28443 28228 28064 27907 27759 27610 27481 27340 27193 27022 26815 26535 26232 25955 25743 25540 25365 25177 24998 24861 24732 24620 24510 24418 24326 24238 24184 24043 23856 23697 23578 23497 23434 23378 23327 23254 23203 23147 23123 23085 23056 23033 23000 22906 22769 22637 22567 22523 22507 22504 22480 22459 22462 22450 22461 22480 22478 22501 22511 22479 22394 22313 22265 22272 22318 22358 22415 22483 22536 22600 22667 22732 22793 22852 22892 22895 22830 22759 22738 22718 22736 22744 22756 22753 22745 22718 22701 22682 22642 22600 22590 22511 22435 22401 22409 22443 22465 22505 22518 22542 22564 22570 22584 22631 22674 22726 22714 22697 22681 22673 22686 22681 22672 22733 22880 23018 23099 23136 23236 23323 23376 23356 23357 23384 23469 23614 23780 23969 24130 24283 24378 24536 24701 24843 24919 24962 24973 24917 24869 24803 24778 24748 24714 24662 24617 24611 24586 24562 24529 24531 24518 24455 24376 24306 24259 24252 24231 24206 24203 24205 24231 24235 24252 24245 24237 24247 24230 24159 24102 24058 24021 23999 23981 23969 23957 23965 23954 23927 23928 23913 23929 23918 23856 23766 23693 23632 23564 23507 23474 23458 23438 23402 23368 23347 23326 23328 23309 23242 23126 23020 22936 22891 22866 22848 22813 22765 22739 22748 22828 22909 23000 23030 22952 22830 22706 22662 22711 22732 22680 22612 22596 22608 22637 22680 22732 22747 22723 22634 22559 22551 22510 22462 22428 22401 22429 22503 22601 22726 22792 22838 22834 22815 22739 22685 22628 22585 22542 22567 22609 22634 22670 22693 22676 22656 22620 22635 22727 22718 22613 22527 22518 22530 22616 22709 22765 22805 22805 22787 22742 22720 22801 22889 22871 22800 22729 22687 22687 22685 22724 22750 22757 22733 22703 22686 22744 22737 22709 22656 22598 22613 22723 22848 22930 22981 22972 22967 22930 22918 22999 23051 23059 23071 23117 23124 23074 23042 23006 23000 22958 22934 22924 22951 22951 22939 22917 22912 22910 22969 23015 23042 23024 22971 22952 22907 22887 22922 22991 23008 22987 23009 23044 23084 23095 23128 23161 23137 23073 23002 22985 23007 23032 23025 22986 22964 22968 23014 23112 23210 23268 23314 23318 23252 23201 23231 23280 23284 23261 23226 23180 23188 23184 23204 23207 23199 23169 23157 23178 23181 23128 23048 22979 22950 22952 23005 23056 23121 23131 23110 23080 23069 23101 23150 23172 23136 23065 23012 22951 22925 22928 22934 22920 22879 22860 22888 22979 23011 23007 22960 22875 22780 22722 22763 22842 22898 22906 22875 22810 22776 22807 22874 22900 22940 22958 22987 22958 22899 22850 22807 22770 22742 22732 22738 22729 22703 22678 22668 22683 22768 22873 22941 22922 22866 22801 22740 22712 22764 22845 22874 22877 22922 22944 22970 22982 23017 23064 23048 22980 22916 22915 22900 22891 22873 22841 22840 22833 22875 22939 23010 23007 22994 22939 22869 22845 22824 22806 22778 22764 22774 22806 22851 22917 22963 23003 22995 22995 23002 22986 22942 22866 22828 22804 22854 22933 23035 23099 23103 23111 23089 23081 23079 23118 23114 23045 22983 22945 22944 22945 22982 23022 23049 23035 23024 23026 23027 23037 23023 22994 22932 22890 22928 22994 23056 23124 23138 23146 23118 23105 23123 23149 23187 23172 23171 23174 23124 23084 23080 23085 23073 23052 23030 23019 23063 23078 23059 23027 23010 23033 23054 23067 23057 23039 22997 22957 22917 22931 22992 23010 23007 22990 23019 23028 23038 23085 23075 23027 22985 22941 22912 22941 22954 22915 22871 22845 22884 22968 23055 23134 23169 23118 23023 22933 22885 22901 22923 22909 22887 22894 22916 22961 22992 23018 23056 23068 23014 22915 22833 22806 22804 22773 22756 22739 22718 22753 22839 22926 23015 23054 23054 23048 22982 22919 22895 22863 22843 22834 22824 22849 22902 22943 22978 22995 22997 22978 22992 23004 22926 22851 22790 22777 22815 22896 22993 23073 23150 23191 23203 23196 23216 23250 23270 23227 23137 23105 23108 23125 23156 23207 23239 23273 23294 23294 23307 23318 23325 23348 23270 23198 23164 23160 23200 23272 23313 23310 23303 23278 23305 23334 23378 23403 23430 23427 23393 23352 23338 23395 23434 23485 23488 23483 23514 23548 23568 23554 23561 23568 23561 23511 23463 23422 23407 23395 23369 23360 23386 23416 23429 23434 23441 23450 23476 23478 23446 23400 23345 23310 23284 23307 23316 23310 23304 23277 23276 23371 23482 23590 23647 23681 23649 23586 23575 23578 23591 23609 23598 23608 23625 23633 23631 23644 23648 23663 23644 23557 23515 23462 23478 23479 23501 23479 23434 23429 23430 23464 23513 23547 23545 23502 23399 23305 23266 23224 23187 23168 23173 23179 23187 23230 23281 23295 23312 23324 23324 23265 23185 23107 23045 23018 23022 23031 23067 23121 23133 23118 23092 23081 23071 23101 23061 22973 22932 22919 22927 22943 22993 23036 23060 23064 23047 23065 23077 23103 23053 22926 22826 22786 22811 22892 22963 22996 22989 22962 22930 22945 23037 23125 23171 23188 23117 23054 23027 23012 23030 23055 23062 23053 23052 23053 23065 23054 23033 23009 23018 22985 22952 22927 22950 22985 22966 22957 22964 22993 23054 23092 23104 23112 23135 23165 23176 23136 23072 23031 23001 23008 23033 23054 23065 23035 23022 23003 23003 23056 23122 23129 23063 22993 22944 22935 22952 23021 23054 23022 23036 23063 23124 23174 23209 23212 23220 23154 23069 23000 23033 23030 23033 23011 22979 22973 23015 23091 23185 23260 23290 23310 23257 23192 23154 23131 23123 23100 23110 23129 23165 23206 23236 23237 23236 23239 23253 23247 23233 23206 23166 23148 23125 23138 23171 23229 23287 23330 23345 23352 23353 23362 23346 23297 23246 23230 23226 23241 23276 23308 23340 23344 23325 23349 23352 23373 23407 23346 23242 23175 23160 23181 23263 23333 23396 23397 23390 23380 23407 23445 23494 23508 23428 23364 23340 23339 23374 23393 23408 23400 23384 23377 23382 23403 23432 23397 23274 23184 23127 23113 23163 23233 23283 23320 23297 23279 23273 23312 23337 23355 23320 23232 23143 23111 23098 23082 23088 23083 23062 23046 23060 23088 23100 23085 23058 22992 22874 22837 22888 22948 23015 23027 23012 23011 23021 23073 23149 23179 23196 23176 23121 23039 22988 22991 22996 22989 22980 22953 22960 22986 22989 22983 22942 22942 22946 22914 22879 22895 22937 22964 22970 22968 22942 22952 23015 23050 23066 23080 23103 23119 23054 22973 22929 22895 22883 22842 22868 22953 23004 23020 23013 22999 22989 23005 23055 23063 23024 22973 22944 22924 22908 22955 22977 23003 22987 23008 23043 23053 23076 23119 23096 23027 22954 22918 22965 23024 23024 23023 22983 22967 22979 23031 23140 23221 23265 23231 23150 23088 23056 23097 23124 23127 23120 23143 23148 23170 23220 23242 23252 23265 23243 23172 23107 23075 23065 23045 23022 23021 23046 23091 23138 23206 23205 23212 23208 23188 23145 23113 23069 23056 23037 23067 23099 23154 23196 23243 23262 23276 23256 23247 23257 23198 23122 23048 23033 23018 23080 23157 23203 23247 23261 23248 23239 23222 23265 23295 23235 23143 23092 23072 23078 23094 23130 23165 23147 23127 23119 23093 23089 23092 23045 22924 22841 22797 22848 22949 23055 23110 23108 23076 23089 23118 23154 23183 23207 23198 23174 23093 23046 23018 23014 22987 22964 22943 23027 23130 23190 23207 23212 23194 23191 23107 23015 22968 22950 22923 22897 22862 22831 22865 22917 22923 22934 22966 22997 23031 23047 23004 22969 22951 22915 22902 22922 22959 22956 22932 22902 22903 22915 22972 23069 23129 23067 23000 22949 22919 22917 22949 22997 23010 23002 23006 23048 23068 23094 23122 23137 23107 23025 23001 23019 23041 23055 23034 23005 22996 23025 23102 23189 23250 23273 23277 23228 23157 23122 23097 23098 23084 23100 23133 23160 23187 23184 23201 23184 23177 23191 23229 23169 23119 23071 23043 23018 23047 23099 23151 23211 23250 23255 23247 23271 23292 23321 23280 23204 23162 23145 23164 23178 23205 23203 23185 23172 23137 23197 23261 23306 23310 23212 23124 23063 23057 23137 23202 23268 23282 23274 23276 23275 23315 23380 23420 23416 23367 23269 23231 23241 23232 23239 23236 23199 23206 23232 23267 23277 23265 23237 23219 23151 23084 23090 23111 23132 23127 23114 23099 23094 23138 23156 23162 23167 23195 23205 23162 23111 23058 23002 23002 22989 23008 23008 22994 22971 22938 22919 22948 22998 23077 23057 22985 22938 22908 22891 22874 22933 22930 22890 22890 22930 22994 23060 23127 23117 23031 22939 22896 22890 22941 22965 22982 22943 22904 22878 22892 22920 23015 23074 23043 22940 22868 22806 22793 22847 22863 22858 22867 22900 22942 22995 23012 23036 23026 22973 22883 22806 22820 22837 22821 22779 22778 22754 22782 22879 22982 23049 23102 23074 22986 22880 22863 22864 22851 22853 22850 22851 22880 22910 22939 22981 22979 22968 22933 22827 22786 22748 22732 22695 22664 22671 22725 22821 22906 22988 23045 23068 23084 23075 23012 22992 22976 22944 22983 22984 23006 23038 23057 23071 23071 23067 23057 23060 23078 23035 22966 22891 22855 22854 22886 22977 23066 23120 23162 23179 23182 23189 23173 23186 23197 23158 23127 23122 23130 23113 23142 23157 23166 23151 23163 23146 23120 23106 23113 23207 23188 23151 23102 23082 23073 23110 23140 23154 23155 23145 23132 23116 23093 23161 23242 23300 23280 23212 23144 23114 23105 23120 23147 23152 23133 23099 23078 23085 23078 23042 23039 23058 23063 23006 22953 22942 22991 23031 23037 23045 23015 23000 22994 23037 23104 23147 23169 23201 23196 23153 23081 23019 23001 22995 22991 22957 22945 22956 23013 23029 23019 23004 23017 23087 23146 23138 23077 23015 22984 22958 22936 22919 23006 23103 23157 23161 23200 23205 23246 23288 23317 23320 23277 23160 23048 23003 22995 22970 22954 22956 22967 22977 23038 23072 23136 23145 23134 23124 23022 22931 22908 22884 22867 22855 22868 22874 22859 22852 22881 22909 22917 22905 22889 22885 22817 22682 22587 22561 22599 22698 22789 22871 22926 22939 22929 22915 22909 22946 22984 22977 22934 22862 22775 22760 22788 22854 22946 23002 23044 23062 23065 23070 23068 23056 23066 23064 23050 22999 22934 22909 22920 22938 22950 22928 22895 22849 22889 22943 22954 22940 22942 22923 22874 22819 22833 22896 22960 22984 23001 22979 22977 22978 22979 22942 22936 22938 22980 23039 23041 23012 22998 22987 22987 22997 23028 23040 23018 23009 23058 23120 23172 23244 23322 23347 23282 23227 23173 23156 23193 23202 23188 23169 23151 23139 23170 23207 23265 23305 23310 23207 23118 23052 22985 22951 22937 22933 22948 22987 23031 23024 23001 22972 22964 22946 22834 22692 22611 22622 22720 22819 22934 23005 23038 23055 23055 23044 23021 23049 23115 23212 23276 23359 23402 23421 23450 23462 23474 23520 23558 23625 23688 23736 23783 23755 23742 23719 23669 23679 23732 23811 23870 23858 23851 23803 23806 23822 23865 23942 23985 24011 23909 23785 23674 23677 23737 23829 23926 24001 24005 23970 23938 23936 23945 23956 23992 24028 23935 23822 23748 23741 23765 23852 23970 24059 24105 24093 24029 23994 23986 24006 24028 23977 23919 23897 23814 23769 23791 23857 23921 24003 24066 24136 24134 24095 24071 24052 23977 23909 23871 23872 23899 23864 23840 23852 23914 24010 24096 24201 24242 24223 24195 24129 24028 23949 23906 23923 23926 23933 23884 23862 23892 23948 24017 24100 24165 24178 24082 23971 23884 23847 23840 23855 23892 23894 23853 23834 23853 23910 23996 24077 24175 24213 24129 24048 23975 23956 23969 24012 24053 24101 24125 24109 24106 24135 24181 24244 24288 24290 24257 24188 24147 24140 24144 24178 24217 24259 24305 24289 24275 24287 24266 24235 24253 24283 24312 24295 24262 24239 24230 24241 24282 24323 24380 24402 24385 24305 24246 24225 24248 24280 24331 24353 24322 24294 24278 24261 24267 24311 24343 24340 24242 24143 24105 24095 24138 24214 24277 24381 24381 24367 24338 24328 24311 24307 24273 24218 24171 24128 24091 24122 24147 24229 24316 24378 24445 24433 24419 24401 24310 24214 24164 24136 24163 24160 24152 24180 24209 24256 24338 24409 24482 24473 24395 24273 24173 24105 24077 24091 24105 24110 24077 24096 24137 24188 24274 24339 24408 24337 24240 24179 24137 24135 24134 24167 24177 24206 24175 24178 24200 24256 24317 24359 24364 24323 24283 24267 24250 24235 24231 24241 24263 24298 24306 24292 24276 24217 24197 24216 24260 24289 24302 24313 24282 24275 24254 24260 24291 24315 24299 24205 24125 24096 24113 24154 24235 24308 24357 24349 24346 24338 24339 24334 24293 24244 24227 24175 24127 24129 24163 24227 24300 24376 24439 24462 24464 24443 24351 24245 24177 24145 24159 24177 24168 24138 24138 24174 24214 24279 24373 24374 24298 24199 24121 24067 24045 24071 24104 24140 24140 24125 24122 24125 24158 24176 24174 24186 24169 24124 24107 24076 24083 24077 24102 24136 24174 24151 24078 24008 23973 23995 24050 24119 24176 24169 24149 24115 24092 24099 24108 24092 24034 23964 23867 23846 23850 23900 23993 24073 24158 24224 24210 24205 24124 24008 23919 23893 23905 23931 23939 23901 23879 23909 23942 24041 24106 24172 24163 24042 23914 23835 23821 23828 23850 23878 23914 23950 23936 23951 23960 23916 23897 23891 23886 23923 23923 23901 23880 23864 23898 23926 23978 24019 23949 23851 23782 23776 23832 23918 24003 24053 24108 24089 24060 24031 24027 23987 23946 23930 23941 23911 23903 23913 23973 24043 24126 24229 24317 24341 24203 24056 23932 23876 23879 23917 23972 24009 24017 23998 23992 23980 24000 24009 24003 24016 24018 24017 24042 24077 24119 24174 24236 24283 24326 24274 24186 24125 24123 24161 24226 24295 24357 24350 24309 24274 24270 24261 24224 24180 24145 24125 24103 24108 24141 24187 24253 24330 24395 24463 24426 24337 24231 24154 24144 24159 24192 24220 24204 24179 24168 24202 24265 24310 24308 24305 24249 24205 24198 24188 24211 24228 24262 24299 24297 24257 24138 24070 24070 24123 24189 24270 24301 24300 24264 24255 24251 24261 24262 24206 24161 24083 24044 24058 24113 24193 24257 24339 24391 24410 24383 24256 24149 24063 24052 24068 24103 24101 24062 24077 24107 24173 24250 24312 24292 24258 24201 24191 24182 24189 24234 24263 24296 24326 24295 24250 24214 24200 24240 24284 24350 24408 24393 24375 24336 24333 24332 24345 24299 24249 24170 24113 24092 24104 24170 24262 24346 24428 24489 24476 24399 24285 24200 24154 24143 24170 24190 24179 24148 24152 24181 24245 24320 24331 24322 24255 24213 24161 24162 24173 24198 24229 24273 24284 24223 24108 24045 24039 24075 24137 24221 24304 24329 24303 24268 24256 24252 24190 24153 24136 24129 24088 24079 24088 24120 24178 24263 24342 24425 24424 24295 24207 24175 24181 24204 24251 24305 24355 24357 24358 24341 24272 24231 24239 24272 24352 24369 24392 24398 24375 24379 24400 24418 24352 24290 24203 24137 24124 24150 24232 24334 24418 24499 24511 24495 24377 24254 24170 24167 24183 24215 24241 24250 24216 24205 24215 24271 24273 24261 24249 24226 24219 24186 24159 24150 24167 24216 24249 24204 24045 23921 23859 23888 23956 24058 24144 24204 24201 24156 24083 24004 23893 23832 23836 23859 23861 23827 23811 23843 23906 23994 24086 24128 24058 23977 23895 23847 23854 23887 23918 23959 24015 24006 23988 23896 23851 23848 23890 23976 24055 24106 24080 24047 24032 24032 24036 23994 23940 23909 23815 23839 23872 23949 24039 24171 24244 24261 24116 23998 23918 23915 23923 23970 24043 24075 24081 24073 24065 24033 24019 24049 24127 24166 24210 24216 24189 24167 24166 24184 24213 24157 24084 24009 23943 23922 23945 23995 24094 24182 24254 24321 24294 24196 24089 24027 24008 24034 24093 24130 24163 24154 24155 24173 24224 24256 24283 24313 24323 24324 24326 24296 24286 24304 24343 24383 24330 24196 24107 24071 24104 24186 24280 24391 24473 24518 24528 24512 24408 24305 24268 24297 24329 24357 24356 24357 24352 24370 24427 24492 24527 24539 24502 24493 24473 24487 24494 24513 24561 24604 24637 24544 24404 24314 24293 24352 24417 24513 24619 24637 24641 24628 24587 24491 24417 24383 24397 24418 24390 24374 24367 24388 24441 24541 24614 24616 24541 24491 24467 24455 24462 24494 24509 24538 24576 24521 24419 24341 24286 24310 24397 24501 24547 24546 24535 24527 24507 24432 24336 24283 24264 24249 24210 24223 24238 24279 24372 24478 24575 24555 24451 24353 24283 24261 24263 24328 24385 24434 24419 24391 24351 24282 24238 24272 24326 24402 24441 24433 24396 24354 24346 24360 24320 24246 24193 24118 24096 24093 24128 24222 24296 24372 24452 24510 24402 24274 24178 24155 24144 24178 24223 24271 24249 24237 24239 24248 24237 24258 24275 24299 24313 24326 24312 24286 24285 24372 24422 24384 24271 24173 24119 24134 24196 24275 24353 24447 24498 24540 24563 24468 24392 24362 24353 24364 24398 24399 24367 24360 24395 24424 24471 24469 24407 24368 24341 24338 24346 24362 24405 24433 24468 24471 24381 24278 24243 24256 24335 24422 24509 24566 24590 24580 24566 24551 24501 24466 24439 24449 24450 24410 24410 24446 24485 24549 24627 24666 24579 24488 24410 24360 24315 24337 24350 24384 24380 24357 24337 24311 24289 24287 24318 24349 24381 24381 24352 24328 24310 24327 24378 24336 24214 24095 24019 24003 24045 24119 24206 24295 24373 24415 24374 24218 24061 23982 23952 23986 24029 24041 24003 23971 23998 24044 24126 24148 24164 24152 24076 24062 24037 24045 24061 24098 24119 24148 24082 23938 23848 23829 23891 23963 24073 24166 24207 24193 24162 24122 24010 23911 23886 23903 23927 23916 23919 23916 23956 24033 24129 24220 24221 24131 24041 23983 23958 23974 24002 24051 24096 24118 24106 24065 23975 23913 23936 24011 24085 24172 24180 24174 24147 24147 24138 24103 24046 24025 24020 24003 23979 23995 24037 24125 24224 24324 24403 24349 24234 24140 24097 24090 24096 24138 24187 24208 24230 24195 24195 24156 24128 24167 24200 24232 24277 24301 24325 24289 24264 24269 24288 24233 24127 24037 24003 24013 24077 24152 24233 24302 24358 24380 24326 24226 24174 24133 24155 24191 24254 24300 24325 24323 24320 24354 24350 24291 24242 24236 24226 24225 24244 24273 24291 24337 24376 24414 24336 24202 24136 24115 24143 24195 24267 24353 24391 24409 24388 24328 24240 24173 24153 24156 24168 24171 24138 24134 24147 24198 24275 24329 24323 24240 24171 24109 24084 24101 24119 24165 24200 24236 24197 24058 23929 23877 23899 23964 24057 24145 24169 24140 24097 24063 24031 23972 23929 23931 23936 23912 23900 23909 23933 24000 24091 24170 24188 24055 23939 23871 23861 23874 23916 23959 24005 24039 24043 23994 23923 23877 23907 23964 24047 24124 24154 24125 24087 24097 24119 24086 24036 23990 23972 23937 23921 23970 24032 24100 24194 24295 24378 24309 24240 24151 24142 24154 24185 24238 24286 24313 24297 24280 24232 24168 24159 24210 24275 24338 24385 24376 24358 24398 24416 24449 24423 24376 24338 24291 24257 24246 24255 24296 24380 24447 24531 24552 24450 24340 24276 24280 24303 24331 24384 24412 24405 24394 24318 24249 24209 24212 24263 24340 24427 24463 24434 24394 24390 24400 24383 24339 24320 24315 24283 24272 24288 24310 24348 24430 24500 24522 24426 24282 24181 24139 24141 24187 24239 24284 24342 24331 24293 24180 24117 24110 24143 24226 24289 24330 24308 24259 24226 24244 24208 24178 24137 24113 24073 24022 24022 24041 24087 24195 24280 24302 24183 24028 23926 23890 23915 23959 24026 24075 24093 24081 24015 23919 23865 23867 23936 24025 24100 24142 24123 24092 24074 24066 24054 24000 23984 24003 23971 23936 23946 23978 24053 24142 24234 24265 24159 24049 23978 23952 23978 24013 24064 24128 24154 24165 24093 24018 23972 23985 24041 24119 24208 24261 24252 24236 24221 24215 24194 24154 24118 24127 24086 24078 24081 24116 24167 24216 24305 24345 24276 24156 24096 24068 24081 24137 24165 24247 24291 24282 24245 24139 24060 24047 24093 24160 24247 24310 24310 24271 24246 24242 24240 24209 24195 24198 24219 24204 24168 24163 24186 24219 24288 24370 24370 24300 24213 24152 24130 24149 24194 24255 24304 24329 24315 24222 24111 24043 24044 24111 24309 24354 24348 24318 24297 24287 24254 24212 24195 24201 24189 24151 24149 24140 24178 24272 24358 24424 24372 24258 24172 24117 24103 24130 24188 24238 24271 24288 24258 24114 24013 23975 23996 24070 24177 24250 24287 24292 24275 24287 24301 24243 24216 24218 24223 24185 24147 24134 24163 24222 24296 24389 24398 24336 24255 24210 24174 24196 24237 24275 24312 24349 24376 24271 24110 24031 24038 24069 24141 24246 24323 24379 24352 24328 24298 24220 24180 24163 24166 24199 24212 24174 24118 24119 24140 24172 24220 24202 24205 24179 24142 24111 24110 24127 24165 24199 24227 24257 24144 24005 23898 23899 23946 24017 24081 24180 24252 24268 24271 24168 24062 24015 24015 24032 24087 24127 24130 24104 24067 24066 24084 24061 24015 24020 24053 24096 24106 24098 24069 24068 24093 24137 24117 24054 24042 23998 23953 23933 23956 23992 24023 24091 24150 24210 24188 24100 24020 23973 23970 24006 24041 24118 24164 24211 24256 24204 24077 23968 23933 23945 23992 24021 24082 24137 24188 24234 24238 24138 24040 23979 23977 24009 24045 24108 24165 24198 24224 24194 24073 23944 23923 23918 23940 23989 24046 24105 24153 24195 24219 24166 24085 23993 23964 23967 24002 24061 24115 24157 24179 24211 24207 24082 23989 23956 23954 23982 24009 24054 24098 24115 24162 24198 24214 24146 24055 24037 24037 24076 24114 24129 24158 24184 24216 24266 24192 24087 24009 23999 24048 24076 24114 24141 24180 24212 24239 24266 24202 24152 24103 24084 24092 24138 24154 24182 24218 24249 24288 24287 24201 24122 24140 24195 24253 24314 24363 24393 24433 24494 24547 24564 24577 24593 24627 24665 24683 24737 24762 24820 24865 24935 25004 25066 25115 25128 25179 25220 25294 25387 25451 25491 25555 25569 25573 25521 25476 25459 25472 25498 25534 25549 25569 25589 25601 25626 25613 25555 25475 25416 25400 25396 25405 25414 25442 25433 25451 25450 25440 25373 25310 25260 25266 25275 25284 25305 25327 25330 25342 25352 25349 25277 25199 25157 25139 25158 25193 25202 25209 25217 25236 25250 25218 25119 25040 25007 25002 25038 25068 25080 25091 25090 25097 25188 25290 25321 25308 25303 25291 25325 25373 25437 25495 25511 25549 25586 25628 25604 25610 25608 25639 25645 25676 25687 25713 25736 25750 25784 25796 25835 25901 26001 26112 26220 26273 26367 26438 26512 26581 26669 26732 26758 26828 26893 26974 27059 27132 27183 27250 27311 27356 27392 27431 27441 27471 27512 27558 27615 27659 27689 27716 27756 27791 27833 27821 27797 27808 27838 27868 27915 27952 27996 28017 28055 28068 28091 28073 28059 28065 28076 28118 28176 28179 28219 28247 28263 28304 28305 28258 28231 28228 28260 28295 28334 28361 28387 28383 28420 28424 28395 28297 28251 28255 28266 28311 28336 28343 28339 28326 28340 28349 28301 28231 28178 28193 28244 28292 28323 28368 28430 28508 28578 28651 28685 28683 28706 28757 28813 28885 28935 28976 29036 29058 29104 29154 29118 29071 29034 29067 29111 29157 29198 29222 29251 29303 29321 29346 29260 29179 29152 29171 29228 29260 29269 29292 29299 29327 29338 29358 29249 29170 29150 29162 29210 29246 29256 29258 29282 29336 29393 29453 29444 29437 29509 29612 29715 29812 29879 29940 29983 30002 30034 30015 29871 29733 29624 29582 29558 29565 29563 29609 29653 29687 29693 29615 29437 29264 29154 29098 29047 29000 28880 28763 28659 28592 28548 28490 28414 28417 28488 28567 28663 28713 28789 28840 28903 28938 28994 29024 28989 28966 28977 29026 29082 29145 29184 29234 29290 29335 29358 29385 29358 29324 29365 29416 29456 29485 29524 29535 29577 29616 29637 29644 29600 29578 29574 29607 29661 29712 29734 29768 29791 29824 29856 29834 29776 29746 29766 29794 29838 29881 29910 29922 29940 29986 30013 29994 29937 29903 29917 29961 30006 30064 30077 30105 30131 30155 30200 30175 30128 30063 30073 30118 30160 30199 30218 30239 30272 30291 30325 30302 30223 30169 30182 30229 30258 30291 30310 30334 30353 30378 30407 30343 30263 30220 30230 30279 30317 30350 30383 30393 30400 30440 30473 30389 30309 30265 30282 30325 30370 30390 30434 30436 30477 30497 30544 30499 30403 30372 30392 30451 30496 30540 30568 30595 30620 30643 30679 30605 30492 30449 30456 30532 30590 30647 30699 30771 30868 30998 31085 31058 30960 30872 30843 30802 30722 30608 30445 30251 30094 29920 29727 29357 28918 28492 28160 27928 27720 27497 27253 27018 26808 26625 26440 26135 25804 25550 25356 25239 25150 25035 24949 24849 24821 24787 24762 24595 24417 24277 24216 24172 24142 24082 24059 24050 24065 24112 24102 23905 23723 23647 23612 23618 23657 23659 23673 23685 23689 23703 23649 23472 23318 23236 23181 23164 23123 23073 23011 22987 22957 22942 22908 22774 22669 22597 22572 22563 22576 22563 22555 22555 22555 22552 22541 22421 22348 22340 22369 22403 22448 22462 22483 22512 22537 22566 22519 22442 22401 22416 22440 22474 22484 22515 22503 22516 22513 22547 22516 22435 22402 22422 22457 22496 22515 22521 22543 22569 22594 22599 22579 22516 22487 22508 22537 22560 22575 22588 22590 22592 22585 22611 22564 22507 22477 22483 22499 22533 22549 22553 22558 22548 22561 22574 22514 22479 22465 22476 22510 22540 22549 22571 22592 22599 22599 22626 22562 22534 22539 22537 22574 22611 22622 22628 22655 22657 22691 22688 22645 22617 22617 22652 22693 22702 22718 22742 22747 22759 22785 22772 22731 22704 22714 22721 22745 22753 22755 22760 22760 22762 22759 22765 22722 22681 22666 22685 22701 22726 22723 22745 22739 22750 22792 22762 22700 22677 22695 22728 22734 22769 22780 22813 22816 22840 22844 22820 22754 22746 22762 22782 22808 22824 22838 22839 22855 22865 22893 22855 22791 22786 22798 22834 22850 22883 22888 22898 22921 22945 22963 22933 22875 22852 22855 22889 22893 22909 22904 22912 22941 22931 22940 22908 22850 22819 22826 22842 22862 22871 22885 22900 22912 22933 22953 22940 22885 22866 22882 22907 22933 22960 22942 22959 22979 23009 23025 22997 22943 22931 22954 22973 23002 23019 23032 23045 23061 23086 23102 23101 23041 23000 23007 23031 23047 23057 23072 23057 23090 23091 23119 23113 23052 23016 22994 22988 23017 23021 23045 23043 23052 23065 23075 23090 23064 23031 23013 23011 23041 23076 23088 23099 23090 23118 23150 23162 23161 23111 23077 23062 23084 23101 23140 23147 23148 23158 23171 23194 23210 23193 23150 23129 23141 23163 23200 23198 23216 23214 23241 23257 23265 23261 23233 23198 23184 23186 23189 23212 23213 23224 23231 23234 23239 23275 23262 23197 23179 23178 23194 23203 23227 23235 23243 23256 23271 23287 23284 23271 23231 23214 23218 23251 23269 23269 23300 23304 23324 23332 23354 23349 23294 23275 23256 23260 23290 23306 23318 23318 23334 23350 23356 23380 23355 23302 23283 23278 23298 23306 23314 23300 23309 23303 23306 23301 23299 23248 23180 23119 23092 23079 23084 23091 23084 23073 23059 23063 23039 23001 22949 22904 22868 22879 22868 22882 22864 22866 22859 22856 22877 22897 22881 22832 22808 22786 22798 22799 22800 22780 22768 22756 22769 22764 22762 22702 22652 22614 22620 22633 22652 22665 22680 22672 22670 22695 22705 22717 22662 22620 22611 22624 22632 22625 22630 22645 22643 22656 22668 22690 22677 22618 22595 22614 22617 22632 22658 22658 22645 22666 22680 22676 22685 22650 22591 22580 22580 22581 22598 22600 22592 22608 22610 22629 22646 22649 22629 22615 22600 22605 22628 22667 22677 22699 22722 22743 22755 22785 22803 22771 22750 22728 22745 22767 22781 22793 22796 22824 22873 22916 22967 23026 23050 23100 23143 23230 23304 23350 23384 23421 23464 23500 23515 23523 23546 23531 23531 23647 23793 23891 23968 24030 24068 24125 24164 24193 24227 24229 24205 24157 24139 24111 24107 24099 24083 24076 24066 24047 24033 24042 24067 24105 24140 24189 24172 24257 24353 24479 24550 24673 24789 24899 25084 25198 25254 25365 25485 25548 25621 25639 25686 25673 25644 25633 25621 25597 25555 25459 25328 25193 25102 25051 25007 24956 24899 24866 24839 24818 24793 24772 24759 24688 24598 24515 24476 24469 24466 24453 24447 24413 24424 24400 24397 24367 24333 24206 24070 23987 23948 23902 23862 23814 23782 23745 23715 23709 23708 23701 23678 23586 23434 23323 23251 23210 23183 23184 23205 23232 23264 23266 23225 23172 23157 23132 23119 22993 22911 22856 22873 22901 23000 23042 23026 22979 22933 22884 22841 22833 22823 22844 22893 22905 22918 22893 22833 22792 22746 22733 22710 22687 22684 22793 22976 23136 23272 23349 23333 23311 23347 23406 23433 23486 23520 23560 23589 23600 23626 23603 23600 23613 23689 23758 23824 23884 23924 23968 24019 24067 24112 24158 24196 24241 24291 24336 24377 24387 24397 24411 24399 24419 24430 24476 24500 24517 24518 24536 24554 24586 24627 24645 24699 24727 24683 24632 24593 24598 24653 24729 24790 24822 24816 24801 24794 24830 24832 24874 24910 24944 24909 24833 24778 24759 24759 24798 24862 24912 24896 24855 24857 24860 24867 24898 24927 24910 24843 24762 24705 24687 24699 24777 24833 24879 24842 24829 24824 24843 24838 24848 24837 24776 24732 24691 24689 24744 24767 24844 24898 24950 24900 24875 24856 24843 24862 24846 24790 24696 24607 24549 24553 24592 24628 24711 24782 24764 24698 24665 24638 24630 24656 24662 24612 24488 24377 24303 24320 24348 24441 24487 24500 24438 24359 24331 24323 24328 24363 24385 24404 24322 24229 24170 24199 24249 24296 24347 24301 24257 24204 24183 24184 24197 24229 24236 24157 24066 24042 24061 24126 24208 24255 24197 24118 24077 24095 24110 24167 24226 24198 24087 24017 24001 24022 24074 24152 24241 24220 24198 24127 24095 24085 24114 24161 24156 24118 24083 24109 24144 24186 24241 24322 24336 24327 24322 24328 24365 24410 24450 24421 24333 24276 24275 24280 24326 24403 24461 24498 24465 24452 24451 24467 24515 24541 24498 24405 24346 24317 24331 24403 24465 24539 24593 24578 24551 24527 24521 24547 24563 24542 24455 24388 24360 24380 24425 24476 24558 24603 24616 24581 24557 24556 24589 24610 24589 24549 24470 24436 24443 24442 24486 24546 24604 24638 24642 24651 24652 24647 24639 24630 24597 24511 24478 24466 24493 24531 24590 24635 24695 24687 24673 24664 24639 24612 24592 24577 24555 24521 24478 24492 24510 24554 24654 24710 24708 24700 24659 24575 24489 24470 24438 24447 24386 24357 24342 24394 24454 24535 24636 24665 24659 24572 24460 24379 24355 24363 24381 24342 24288 24255 24270 24317 24371 24454 24540 24513 24379 24268 24225 24224 24255 24308 24351 24321 24277 24279 24306 24380 24453 24488 24407 24305 24222 24163 24178 24203 24262 24270 24219 24171 24175 24216 24279 24352 24342 24295 24230 24180 24157 24187 24231 24296 24318 24294 24267 24271 24301 24340 24336 24342 24334 24326 24303 24289 24303 24349 24396 24459 24472 24459 24462 24462 24442 24452 24504 24535 24538 24550 24562 24569 24608 24656 24691 24685 24609 24496 24399 24386 24409 24453 24518 24589 24610 24595 24576 24583 24632 24669 24682 24619 24527 24474 24437 24466 24521 24574 24629 24640 24657 24632 24634 24623 24593 24561 24524 24489 24455 24485 24517 24569 24639 24707 24729 24738 24736 24684 24623 24610 24615 24620 24610 24631 24628 24664 24710 24786 24874 24946 24964 24918 24877 24851 24837 24841 24863 24863 24832 24802 24805 24844 24893 24942 24907 24885 24831 24789 24780 24778 24781 24796 24821 24790 24754 24741 24754 24728 24732 24747 24745 24728 24718 24712 24712 24728 24741 24773 24770 24716 24622 24567 24567 24620 24680 24709 24751 24715 24707 24691 24684 24700 24721 24656 24532 24425 24395 24416 24485 24564 24623 24625 24659 24655 24618 24550 24473 24422 24362 24311 24267 24278 24330 24392 24455 24533 24530 24589 24532 24450 24330 24277 24277 24275 24240 24217 24232 24266 24339 24401 24468 24444 24375 24287 24218 24165 24176 24210 24231 24235 24188 24195 24225 24290 24310 24314 24266 24276 24271 24282 24321 24386 24413 24456 24431 24416 24348 24318 24328 24352 24398 24420 24453 24480 24479 24480 24478 24487 24495 24409 24281 24217 24192 24223 24282 24369 24428 24456 24538 24582 24599 24576 24559 24539 24546 24504 24485 24476 24493 24526 24581 24645 24686 24715 24680 24617 24613 24594 24599 24608 24624 24584 24550 24532 24564 24618 24608 24579 24586 24581 24602 24620 24605 24622 24642 24657 24652 24635 24569 24540 24537 24563 24575 24634 24677 24700 24700 24686 24685 24709 24668 24620 24561 24545 24559 24591 24658 24726 24760 24806 24831 24846 24833 24740 24688 24652 24626 24573 24537 24533 24541 24610 24667 24694 24682 24640 24538 24423 24352 24345 24351 24347 24356 24322 24293 24289 24294 24318 24305 24307 24284 24249 24239 24247 24253 24277 24266 24282 24240 24147 24081 24056 24045 24041 24071 24124 24175 24209 24297 24388 24450 24443 24453 24438 24406 24418 24475 24505 24509 24541 24588 24682 24692 24614 24533 24473 24454 24472 24545 24580 24558 24490 24423 24357 24361 24405 24477 24520 24543 24567 24553 24561 24564 24594 24651 24671 24609 24451 24306 24245 24263 24337 24466 24596 24629 24637 24649 24632 24611 24591 24606 24550 24530 24541 24552 24588 24667 24727 24840 24845 24772 24688 24652 24645 24705 24712 24712 24679 24662 24668 24708 24760 24755 24695 24672 24618 24618 24607 24619 24645 24682 24691 24665 24581 24491 24445 24433 24488 24541 24572 24598 24582 24586 24571 24597 24545 24465 24382 24298 24282 24298 24362 24413 24474 24501 24570 24526 24382 24287 24233 24254 24298 24349 24339 24316 24308 24336 24378 24413 24415 24397 24395 24343 24322 24344 24371 24416 24449 24485 24469 24367 24315 24278 24304 24362 24410 24456 24474 24487 24531 24563 24552 24499 24463 24414 24373 24395 24445 24485 24529 24572 24606 24643 24589 24504 24447 24466 24489 24535 24597 24615 24631 24646 24658 24679 24693 24732 24726 24745 24757 24764 24770 24799 24848 24885 24877 24822 24735 24698 24701 24716 24733 24755 24795 24866 24904 24909 24865 24822 24827 24824 24854 24875 24857 24862 24892 24929 24979 25014 24976 24990 24968 24981 24992 24982 24990 24998 25016 25025 25000 24967 24942 24934 24956 24971 25019 25075 25117 25144 25169 25134 25090 25041 24967 24898 24882 24889 24922 24990 25025 25064 25131 25072 24972 24868 24835 24833 24862 24890 24861 24841 24834 24859 24876 24874 24853 24885 24880 24880 24870 24889 24909 24947 25007 25004 24889 24769 24724 24753 24802 24851 24893 24968 25009 25023 24980 24893 24857 24861 24883 24894 24876 24851 24872 24915 24965 24987 24938 24889 24810 24753 24710 24715 24747 24780 24836 24830 24804 24723 24655 24683 24744 24772 24803 24810 24818 24830 24808 24816 24769 24702 24629 24568 24532 24558 24628 24728 24831 24871 24880 24844 24739 24672 24610 24615 24615 24648 24650 24616 24590 24610 24602 24597 24573 24547 24598 24608 24613 24628 24621 24655 24655 24568 24441 24346 24333 24394 24478 24555 24613 24640 24692 24653 24569 24473 24438 24434 24453 24447 24427 24408 24424 24481 24538 24545 24512 24468 24441 24437 24431 24452 24483 24504 24517 24461 24320 24273 24307 24369 24471 24574 24618 24650 24664 24692 24642 24575 24559 24520 24499 24505 24475 24493 24525 24572 24657 24667 24611 24573 24550 24570 24544 24562 24570 24584 24564 24548 24490 24456 24436 24523 24634 24661 24681 24702 24714 24728 24703 24639 24584 24544 24482 24448 24435 24466 24498 24572 24680 24712 24666 24612 24574 24583 24586 24619 24658 24664 24617 24598 24552 24513 24475 24455 24475 24494 24568 24650 24675 24677 24649 24570 24496 24498 24531 24529 24524 24523 24543 24574 24630 24694 24730 24731 24745 24749 24763 24804 24856 24935 24991 25013 25047 25018 24993 25021 25059 25086 25178 25212 25263 25305 25358 25382 25380 25360 25305 25262 25256 25262 25284 25344 25374 25410 25439 25378 25335 25309 25334 25398 25464 25539 25571 25601 25596 25578 25597 25616 25639 25690 25752 25779 25845 25909 25980 26075 26084 26056 26024 26094 26167 26229 26307 26393 26408 26403 26395 26341 26337 26382 26446 26494 26448 26420 26431 26478 26533 26580 26628 26643 26621 26562 26552 26615 26734 26891 27058 27173 27077 26882 26799 26824 26944 27080 27175 27271 27306 27227 27098 26926 26806 26770 26797 26827 26792 26726 26715 26772 26822 26852 26844 26798 26662 26512 26449 26465 26557 26674 26769 26752 26544 26293 26177 26139 26182 26244 26337 26361 26342 26269 26112 25943 25788 25758 25776 25797 25777 25762 25760 25802 25851 25896 25864 25756 25621 25537 25533 25573 25596 25673 25765 25714 25487 25306 25215 25215 25284 25407 25520 25536 25563 25520 25447 25348 25287 25312 25336 25327 25264 25207 25209 25184 25208 25271 25260 25193 25159 25121 25151 25172 25217 25276 25335 25322 25174 25058 25025 25025 25112 25213 25271 25283 25322 25320 25285 25226 25183 25182 25201 25205 25189 25199 25201 25256 25311 25338 25290 25229 25179 25143 25131 25115 25155 25179 25186 25088 24966 24890 24880 24912 25002 25073 25090 25112 25133 25107 25039 24965 24955 24963 24928 24940 24934 24925 24942 24979 25029 25058 24995 24952 24921 24905 24897 24906 24937 24962 24933 24821 24704 24633 24646 24680 24771 24855 24876 24895 24886 24818 24713 24646 24636 24635 24611 24577 24550 24566 24605 24657 24706 24707 24703 24684 24653 24631 24617 24636 24668 24698 24615 24464 24330 24289 24307 24387 24513 24604 24640 24673 24625 24508 24407 24337 24360 24382 24414 24386 24349 24353 24370 24409 24419 24485 24497 24501 24503 24462 24450 24440 24461 24466 24378 24262 24191 24156 24186 24226 24336 24446 24511 24554 24492 24355 24279 24253 24284 24310 24339 24337 24323 24302 24313 24316 24354 24437 24487 24502 24510 24487 24491 24504 24521 24467 24385 24307 24260 24243 24283 24337 24418 24522 24598 24537 24473 24380 24378 24377 24427 24463 24490 24495 24469 24436 24403 24377 24411 24469 24502 24523 24515 24477 24465 24472 24438 24401 24399 24391 24393 24421 24464 24529 24598 24683 24667 24588 24531 24510 24528 24544 24577 24617 24636 24631 24581 24502 24461 24492 24565 24668 24718 24729 24746 24710 24677 24612 24554 24531 24529 24513 24493 24477 24494 24565 24640 24683 24648 24562 24510 24495 24486 24509 24540 24584 24587 24522 24405 24337 24320 24353 24421 24518 24580 24593 24567 24500 24414 24342 24337 24353 24392 24362 24345 24339 24356 24420 24449 24447 24423 24410 24402 24379 24399 24417 24458 24482 24439 24319 24228 24199 24214 24290 24393 24506 24538 24552 24477 24368 24280 24283 24294 24332 24363 24352 24336 24330 24332 24329 24347 24383 24412 24446 24446 24432 24423 24451 24494 24449 24382 24259 24221 24227 24277 24344 24429 24517 24554 24523 24409 24299 24255 24268 24334 24397 24401 24390 24355 24329 24319 24325 24348 24396 24446 24427 24432 24395 24389 24398 24404 24391 24366 24293 24266 24286 24354 24407 24491 24582 24589 24544 24442 24379 24351 24372 24430 24467 24490 24470 24418 24325 24270 24294 24370 24478 24557 24585 24571 24550 24519 24474 24452 24442 24466 24432 24422 24399 24404 24458 24510 24513 24506 24490 24430 24397 24386 24410 24453 24504 24530 24436 24304 24204 24205 24239 24315 24423 24503 24560 24578 24508 24411 24347 24340 24382 24417 24400 24366 24338 24359 24393 24407 24443 24448 24452 24426 24396 24365 24367 24396 24430 24368 24261 24166 24117 24133 24194 24279 24380 24458 24514 24493 24376 24293 24270 24282 24318 24355 24361 24369 24374 24348 24321 24316 24349 24431 24498 24520 24514 24507 24511 24485 24448 24397 24412 24394 24377 24380 24383 24420 24488 24544 24568 24533 24490 24462 24445 24459 24503 24554 24603 24642 24571 24417 24297 24273 24304 24350 24426 24535 24603 24663 24624 24538 24450 24405 24433 24461 24515 24525 24535 24504 24481 24399 24349 24382 24449 24514 24587 24622 24639 24625 24624 24584 24555 24548 24569 24607 24610 24600 24583 24597 24635 24667 24641 24645 24666 24697 24743 24735 24725 24742 24786 24795 24755 24709 24670 24638 24586 24588 24603 24645 24691 24720 24720 24690 24651 24607 24582 24563 24578 24612 24664 24684 24674 24588 24497 24444 24441 24465 24507 24561 24612 24652 24707 24689 24617 24550 24526 24534 24564 24599 24632 24675 24711 24680 24575 24478 24432 24422 24469 24488 24547 24605 24656 24674 24648 24563 24493 24474 24491 24539 24562 24592 24651 24672 24602 24487 24414 24381 24387 24416 24446 24484 24537 24587 24604 24553 24465 24424 24425 24446 24468 24504 24508 24549 24576 24556 24487 24457 24413 24428 24446 24477 24498 24514 24548 24574 24564 24506 24514 24509 24523 24565 24612 24756 24887 25012 25114 25140 25128 25176 25208 25269 25340 25499 25662 25756 25853 25931 25935 25911 25913 25913 25913 25922 25929 25897 25898 25878 25791 25661 25579 25502 25489 25454 25447 25451 25442 25430 25428 25353 25269 25232 25223 25251 25277 25315 25310 25314 25306 25306 25231 25146 25074 25065 25069 25085 25095 25094 25105 25114 25118 25090 25021 24984 24955 24945 24996 25141 25278 25415 25523 25601 25585 25547 25546 25546 25585 25667 25735 25813 25868 25906 25917 25864 25799 25768 25769 25808 25841 25901 25955 26027 26135 26176 26136 26087 26093 26124 26199 26286 26359 26428 26523 26591 26615 26609 26622 26705 26813 26887 26964 27052 27113 27181 27248 27260 27249 27254 27294 27357 27410 27459 27512 27535 27588 27618 27585 27544 27547 27583 27619 27662 27712 27738 27780 27808 27812 27753 27722 27728 27763 27797 27828 27852 27883 27950 28023 28102 28132 28193 28270 28374 28466 28565 28607 28619 28620 28558 28416 28198 28036 27912 27829 27796 27756 27655 27530 27419 27253 26964 26656 26399 26192 26041 25928 25777 25666 25565 25505 25391 25166 24991 24881 24817 24788 24763 24710 24659 24586 24531 24408 24210 24072 23996 23955 23924 23880 23835 23789 23768 23742 23598 23466 23390 23370 23390 23382 23394 23392 23387 23393 23336 23201 23129 23109 23115 23136 23155 23163 23154 23169 23173 23087 22977 22928 22928 22976 23006 23038 23044 23051 23065 23052 22983 22905 22873 22883 22899 22936 22963 22986 22996 23016 22980 22909 22842 22844 22886 22914 22947 22975 23027 23045 23081 23050 22978 22953 22959 22951 22973 22989 23005 23022 23043 23063 23013 22958 22943 22953 22963 22992 23005 22990 23006 23006 22989 22925 22865 22846 22849 22850 22878 22912 22927 22956 22999 22989 22960 22937 22929 22964 23009 23063 23108 23117 23140 23163 23179 23121 23101 23097 23114 23138 23138 23138 23130 23121 23090 23038 22986 22961 22936 22939 22938 22919 22920 22916 22908 22885 22859 22823 22800 22798 22807 22814 22810 22788 22773 22771 22743 22694 22646 22618 22624 22623 22612 22600 22593 22608 22596 22566 22562 22535 22509 22504 22493 22488 22476 22460 22455 22447 22423 22399 22379 22356 22358 22340 22321 22296 22271 22256 22240 22188 22142 22126 22096 22070 22057 22026 22013 21994 21972 21957 21890 21829 21792 21784 21767 21773 21754 21731 21724 21727 21719 21688 21701 21749 21804 21859 21903 21944 21980 22011 22041 22035 22012 22042 22079 22117 22175 22205 22219 22243 22252 22264 22229 22201 22223 22251 22283 22296 22323 22332 22325 22346 22324 22268 22251 22267 22276 22315 22327 22338 22330 22358 22360 22326 22274 22274 22276 22304 22303 22328 22346 22354 22365 22395 22353 22339 22355 22396 22429 22455 22487 22527 22539 22580 22599 22561 22559 22598 22618 22649 22694 22695 22727 22758 22770 22791 22763 22778 22802 22832 22878 22894 22919 22933 22956 22975 22966 22946 22954 22973 23006 23007 23023 23018 23028 23034 23041 23011 23001 22997 23022 23038 23063 23090 23105 23124 23163 23175 23162 23148 23174 23210 23241 23258 23290 23314 23319 23345 23340 23316 23296 23316 23339 23372 23383 23411 23404 23433 23441 23409 23357 23357 23376 23391 23431 23422 23428 23438 23452 23439 23393 23359 23357 23354 23391 23389 23387 23391 23398 23402 23394 23351 23313 23314 23344 23372 23387 23392 23409 23423 23443 23421 23375 23336 23334 23350 23375 23384 23392 23398 23409 23419 23376 23293 23244 23246 23254 23273 23258 23267 23259 23242 23243 23193 23110 23079 23075 23096 23121 23123 23132 23134 23146 23162 23120 23056 23012 23021 23043 23089 23095 23107 23122 23143 23158 23150 23089 23084 23090 23130 23146 23181 23192 23200 23219 23240 23226 23168 23124 23131 23152 23175 23196 23202 23210 23220 23238 23227 23163 23096 23100 23141 23154 23181 23189 23181 23210 23212 23221 23170 23120 23110 23120 23126 23158 23152 23165 23178 23185 23214 23201 23136 23112 23133 23151 23184 23235 23236 23261 23281 23300 23318 23282 23245 23240 23255 23270 23299 23308 23312 23347 23363 23383 23337 23061 23013 23277 23471 23647 23765 23861 23924 24022 24048 23979 23901 23915 23989 24190 24326 24405 24539 24595 24722 24851 24989 25058 25135 25323 25435 25505 25596 25654 25725 25774 25913 26070 26157 26433 26643 26990 27405 27929 28374 28699 28833 29016 29209 29404 29504 29431 29142 28953 28835 28743 28703 28776 28857 28875 28873 28882 28934 29068 29261 29454 29581 29627 29710 29745 29760 29783 29816 29860 29890 29927 29983 30004 30010 29995 29998 29987 30003 30004 30015 30028 30060 30118 30175 30247 30270 30309 30349 30397 30428 30454 30486 30475 30466 30443 30451 30485 30532 30567 30609 30683 30747 30814 30836 30843 30825 30831 30860 30844 30828 30840 30855 30850 30842 30820 30772 30704 30653 30629 30612 30591 30583 30589 30591 30574 30573 30557 30527 30472 30460 30465 30489 30491 30511 30512 30514 30514 30528 30521 30479 30422 30406 30402 30426 30439 30455 30455 30462 30469 30477 30436 30376 30342 30339 30343 30341 30348 30345 30348 30347 30365 30341 30237 30135 30090 30047 30042 30036 30017 29987 29999 29982 29992 29968 29868 29790 29726 29717 29721 29713 29686 29678 29693 29699 29703 29669
32 32 33 33 33 33 33 33 33 33 33 33 33 34 34 35 35 35 34 34 36 36 36 36 37 34 32 33 32 30 30 30 31 31 33 34 33 33 32 32 32 31 32 33 33 33 31 32 33 33 33 33 33 33 33 33 33 33 33 33 33 33 32 33 32 33 33 33 33 33 33 32 33 33 33 33 33 33 33 33 33 33 33 33 32 32 32 33 33 33 33 33 32 36 32 32 33 33 34 35 35 34 34 34 33 33 33 33 33 33 32 33 33 33 33 33 33 33 33 33 33 33 33 34 34 34 34 33 33 33 33 33 33 32 32 32 33 33 32 34 33 34 34 34 34 32 32 34 34 33 32 32 34 34 33 32 33 33 34 34 33 34 34 33 33 33 33 34 34 34 32 32 32 33 32 32 32 32 33 33 33 33 33 33 33 33 33 34 33 32 33 34 34 34 33 33 33 33 33 33 33 33 34 33 33 33 33 32 32 32 32 32 33 33 33 33 33 33 32 32 33 32 32 33 32 33 33 33 33 33 33 33 33 32 32 32 32 32 33 33 33 33 33 33 33 32 32 33 33 33 33 33 33 33 33 32 33 33 33 33 33 34 35 33 33 32 32 33 33 33 33 33 33 33 33 33 33 33 33 32 32 32 33 34 34 31 32 34 33 35 34 35 32 31 31 33 35 35 34 33 32 33 33 34 33 32 33 35 34 33 33 34 35 35 33 33 32 34 33 33 34 33 32 32 34 33 34 34 35 35 33 33 34 34 34 35 33 32 32 33 32 32 33 34 34 33 34 34 33 33 34 33 33 33 33 33 33 33 34 33 33 33 34 33 33 34 34 34 34 33 33 34 34 33 34 35 33 33 34 33 33 33 33 33 33 33 33 33 33 33 34 34 33 33 33 33 33 34 34 33 33 33 33 33 33 33 34 34 33 33 34 34 33 33 33 33 33 33 33 33 33 34 34 34 34 33 33 33 33 33 33 33 33 33 33 33 33 33 33 33 33 33 33 33 33 33 33 33 34 34 35 34 34 33 33 33 33 33 33 33 33 33 33 33 33 33 34 33 34 34 34 33 33 33 33 33 33 33 33 33 33 33 33 33 33 33 32 32 33 32 33 33 33 33 33 31 33 32 33 34 35 34 33 32 34 33 35 34 33 33 33 34 33 33 33 32 31 33 33 33 33 33 33 33 33 33 32 33 33 33 33 34 33 33 32 32 33 33 33 33 33 32 31 32 32 31 31 34 34 34 33 34 35 36 34 33 32 32 31 32 34 32 33 34 33 33 33 34 33 33 32 33 33 33 33 33 33 32 32 33 34 34 33 33 33 33 32 32 33 33 34 33 33 33 33 32 33 33 33 33 33 33 33 33 33 33 34 33 33 33 33 33 33 33 33 33 33 33 35 34 34 34 35 35 36 39 37 37 35 34 30 28 28 29 28 29 31 33 34 34 34 33 33 33 33 34 34 33 33 33 33 33 33 33 33 33 32 33 34 34 34 33 33 33 33 33 33 33 34 34 33 34 33 33 33 33 33 33 33 33 33 33 33 33 33 33 33 33 33 33 33 33 33 33 33 33 33 33 33 33 33 33 33 33 33 33 33 33 33 33 33 33 33 33 33 33 33 33 33 33 33 33 33 33 33 33 33 33 33 33 33 33 33 33 33 33 33 33 33 34 34 33 33 31 31 30 32 33 34 35 34 33 33 33 34 33 34 34 33 34 34 33 33 33 33 33 33 33 33 33 32 33 33 32 33 33 33 34 34 33 33 33 32 33 33 32 33 33 34 33 34 34 33 33 33 34 36 38 40 41 38 37 34 31 29 28 28 29 33 33 35 35 34 33 33 33 33 34 33 33 32 33 33 32 33 33 33 33 33 33 33 33 33 32 32 32 32 32 33 33 32 33 33 33 33 33 32 33 33 33 34 34 35 35 35 35 34 33 34 33 33 33 33 34 34 33 34 34 34 34 34 34 33 33 33 33 33 33 33 32 32 33 33 33 34 34 33 34 33 33 34 32 34 34 33 33 33 34 33 33 34 33 33 33 33 33 33 34 34 33 33 33 33 33 33 33 33 33 33 34 34 35 34 33 33 33 32 32 32 31 32 33 33 33 36 36 36 34 31 31 32 33 34 34 34 34 34 33 32 30 30 32 31 31 33 34 34 36 35 35 35 34 33 32 31 30 30 29 42 41 34 32 34 36 33 33 33 33 34 36 35 34 31 32 32 32 31 30 32 35 36 34 32 34 34 33 34 33 34 33 33 33 33 34 33 33 33 33 33 33 33 33 33 33 33 33 33 33 34 33 33 33 33 33 33 33 33 33 34 34 33 33 33 33 33 33 33 34 34 34 33 35 35 34 30 30 30 30 31 32 32 33 34 35 34 35 35 36 35 33 34 34 33 31 31 31 32 31 31 34 34 33 33 34 34 33 33 32 33 33 34 34 33 33 32 33 33 33 33 32 34 33 33 33 33 33 32 34 33 33 33 34 33 33 33 33 33 33 33 32 33 33 34 34 33 32 32 32 33 33 33 33 33 32 33 33 33 33 33 33 33 33 33 32 33 33 33 33 32 32 33 33 32 33 33 32 33 32 32 32 32 32 33 33 32 32 34 33 32 33 33 33 33 33 33 33 34 33 33 33 33 33 33 33 33 33 33 33 33 33 33 33 33 33 33 33 33 33 33 33 33 33 33 33 33 33 33 33 33 33 33 33 33 33 33 33 33 33 33 33 33 33 33 33 33 33 33 33 33 33 33 33 33 33 33 33 33 33 33 33 33 33 33 33 33 33 33 33 33 33 33 33 32 32 33 33 33 33 33 33 33 33 33 33 33 33 33 33 33 33 33 33 33 33 33 33 33 33 33 33 33 33 33 33 33 33 33 34 33 33 33 33 33 33 32 32 33 33 33 33 33 33 33 33 33 33 33 33 33 33 33 33 33 33 33 33 33 33 33 33 33 33 33 33 33 33 33 33 33 33 33 33 33 33 33 33 33 33 33 33 33 33 33 33 33 33 33 33 33 33 33 33 33 33 33 33 33 33 33 33 33 33 33 33 33 33 33 33 33 33 33 33 33 33 33 33 33 33 33 33 33 32 33 33 33 33 33 33 33 33 33 33 33 33 33 33 33 33 32 33 33 33 33 33 33 33 33 33 33 33 33 33 33 33 33 33 33 33 33 33 33 33 33 33 33 33 33 33 32 33 33 33 33 33 33 33 33 33 33 33 33 33 33 33 33 33 33 33 33 33 33 33 33 33 33 33 33 33 33 33 33 33 33 33 33 33 32 33 33 33 33 33 33 33 33 33 33 33 33 33 33 33 33 33 33 33 33 33 33 33 33 33 33 33 33 33 33 33 33 33 33 33 33 33 33 33 33 33 33 33 33 33 33 33 33 33 33 33 33 33 33 33 33 33 33 33 33 33 33 33 33 33 33 33 33 33 33 33 33 33 33 33 33 33 33 33 33 33 33 33 33 33 33 33 33 33 33 33 33 33 33 33 33 33 33 33 33 33 33 33 33 33 33 33 33 33 33 33 33 33 33 33 33 33 33 33 33 33 33 34 33 33 33 33 33 33 33 33 33 33 33 33 33 33 33 33 33 33 33 33 33 33 33 33 33 33 33 33 33 33 33 33 33 33 33 33 33 33 33 33 33 33 33 33 33 33 33 33 33 33 33 33 32 33 33 34 33 33 34 33 33 33 33 33 33 33 33 33 33 33 33 33 33 33 33 33 33 33 33 33 33 33 33 33 33 33 33 33 33 33 33 33 33 33 33 33 33 33 33 32 32 32 32 33 33 33 33 33 33 33 33 33 33 33 34 33 33 33 33 33 33 33 33 32 33 33 33 33 33 33 33 33 33 33 33 32 33 33 34 33 33 33 33 33 33 33 33 33 32 32 33 32 33 32 32 33 32 32 33 33 33 33 33 33 33 32 33 33 33 33 33 33 33 33 33 33 33 33 33 33 33 33 33 33 33 33 33 33 33 33 33 33 33 33 33 32 33 33 33 33 33 33 33 33 33 33 33 33 33 33 33 33 33 33 33 33 33 33 33 33 33 33 33 33 33 33 33 33 33 33 33 33 33 33 33 33 33 33 33 33 33 33 33 33 33 33 33 33 33 34 35 35 34 35 36 39 40 37 34 32 30 32 31 31 32 31 30 32 32 32 33 33 33 32 33 33 32 34 34 33 33 33 32 32 32 34 34 34 33 32 33 32 32 31 31 32 32 34 34 34 35 35 34 34 33 33 31 31 33 35 38 36 32 30 30 32 32 31 31 30 34 36 40 39 38 36 35 34 33 33 30 31 31 31 31 31 32 34 33 34 34 34 33 33 34 33 32 32 32 34 33 33 33 32 34 34 35 34 33 32 32 33 33 33 33 33 33 33 34 33 34 34 33 33 34 34 33 33 33 33 33 33 33 33 34 33 34 33 33 33 33 33 34 34 33 33 33 33 33 33 33 33 33 33 33 33 33 35 33 33 33 34 33 33 34 34 32 33 32 33 33 33 33 33 33 33 33 33 33 33 34 33 33 33 34 33 32 32 33 33 32 33 33 32 32 32 33 33 33 33 33 33 33 34 33 33 32 32 32 33 33 33 33 33 33 33 33 33 33 33 33 33 32 33 33 33 33 33 33 33 33 33 33 33 33 33 33 33 33 33 33 33 33 33 33 33 33 32 33 33 33 33 33 33 33 33 33 33 33 33 33 33 33 33 33 33 33 33 33 33 33 33 33 33 33 33 33 33 33 33 33 33 33 33 34 34 33 32 32 33 33 33 33 33 33 33 33 33 33 33 33 33 33 33 33 33 33 33 33 33 33 33 33 33 33 33 33 33 33 33 33 33 33 33 33 33 33 33 33 33 33 33 33 33 34 34 33 34 34 35 35 35 33 43 48 50 46 39 33 27 21 23 25 27 31 31 29 32 33 34 32 32 34 34 33 34 33 34 33 34 33 34 34 32 32 33 33 33 33 33 33 33 33 33 33 33 33 33 33 33 33 33 33 33 33 33 33 33 33 34 33 33 32 31 31 32 33 34 32 33 33 33 33 35 35 35 34 33 27 30 32 33 33 33 33 33 33 32 32 33 33 33 34 33 33 33 33 33 33 33 33 33 33 33 34 34 34 33 33 33 33 33 33 33 33 33 33 33 33 33 33 32 32 31 32 32 33 33 34 34 34 33 33 33 32 32 32 31 32 31 31 32 32 33 34 34 35 34 34 33 32 33 34 32 32 32 30 30 35 41 40 36 34 33 34 34 33 33 33 33 33 33 33 33 33 33 33 33 33 33 33 33 33 33 33 33 33 33 33 33 33 33 33 33 33 33 33 33 33 33 33 33 33 33 33 33 33 33 33 33 33 33 33 33 33 33 33 33 33 33 33 33 33 33 33 33 33 33 33 33 33 33 33 34 33 33 33 32 33 34 33 33 33 34 37 37 35 35 34 34 30 30 30 29 31 31 33 33 35 36 34 34 34 33 33 33 34 34 33 33 33 33 34 33 34 34 33 33 33 33 34 33 33 32 33 33 33 33 33 33 33 33 33 33 33 33 33 33 33 33 33 33 33 33 33 33 33 33 33 33 33 33 33 34 33 33 33 33 33 33 33 33 33 33 33 33 33 33 33 33 33 33 33 33 33 33 33 34 33 33 34 34 33 33 33 33 33 33 33 33 33 34 33 32 33 35 35 30 30 33 32 31 33 31 32 34 32 34 33 31 32 33 36 36 34 33 33 33 33 33 33 34 34 33 33 33 33 33 33 33 33 33 32 34 33 33 33 33 33 33 34 33 33 33 33 33 33 33 33 33 33 33 33 33 33 33 33 33 33 33 33 33 33 32 33 33 33 33 33 33 33 33 34 33 33 33 33 32 34 34 32 33 33 32 34 33 33 33 32 33 33 32 33 33 33 33 32 34 34 34 33 33 33 33 32 32 33 33 33 33 32 32 33 33 33 34 34 33 32 32 33 34 34 34 34 34 34 32 27 29 28 32 32 34 32 32 32 33 30 28 30 34 36 38 38 36 37 33 31 34 34 36 39 35 35 38 40 39 35 31 29 29 29 28 30 31 33 36 34 29 31 36 39 37 34 34 34 33 32 33 38 43 42 34 31 37 41 40 33 28 27 26 25 26 29 34 39 37 33 35 40 40 35 33 33 31 30 32 37 41 42 37 34 39 41 39 33 29 26 25 25 27 31 36 39 34 31 35 39 38 35 33 33 32 31 36 40 41 36 33 37 42 38 33 30 28 25 26 28 31 35 35 33 36 40 40 37 34 33 33 32 35 38 42 40 35 34 39 42 40 33 29 27 27 27 31 35 40 39 32 30 33 35 34 32 33 33 33 33 36 37 40 38 34 36 40 41 37 32 29 27 26 26 30 32 36 36 31 32 36 39 36 34 33 33 32 33 37 41 42 38 35 37 39 38 35 32 29 30 30 30 32 32 35 30 34 37 37 36 37 37 36 35 35 37 41 41 37 32 35 43 45 40 35 31 29 28 28 29 31 33 30 29 33 38 42 41 39 37 35 35 34 37 41 40 35 33 37 43 42 37 33 30 29 29 30 32 31 31 29 28 34 40 41 39 37 36 35 33 35 39 42 39 34 31 36 43 43 39 33 30 28 26 28 33 35 37 33 32 35 37 37 36 36 36 34 37 40 41 37 35 38 41 40 37 31 28 28 28 30 32 34 37 33 29 32 37 38 35 35 35 36 34 35 40 44 39 33 33 38 40 38 34 31 30 29 27 28 31 38 39 34 34 37 39 37 36 35 35 33 32 35 39 42 38 34 37 42 41 36 31 28 27 25 27 30 33 37 36 33 34 38 38 36 34 34 34 33 33 37 38 41 38 34 36 41 40 37 28 27 26 27 30 33 36 35 33 35 38 39 37 35 34 34 31 33 36 42 40 36 31 35 39 39 35 31 28 28 27 31 32 34 36 31 31 34 36 36 35 35 35 35 33 34 39 41 37 32 34 40 43 39 33 30 29 28 27 29 30 33 35 33 31 35 40 40 36 35 34 34 33 34 36 41 42 37 33 36 40 40 35 31 28 26 25 25 28 32 37 39 38 39 37 34 32 31 31 30 34 37 41 42 38 36 38 41 38 34 29 27 25 23 24 28 34 42 43 37 36 38 40 37 33 34 34 32 31 34 39 45 43 39 39 40 38 34 30 26 24 23 25 29 35 43 43 38 38 41 38 34 31 30 29 26 27 31 37 44 42 36 38 41 38 34 31 29 27 26 27 30 36 40 35 31 34 37 37 34 32 32 32 33 41 42 37 35 37 40 39 36 32 29 26 25 26 31 33 37 38 35 33 37 39 36 34 33 33 32 32 35 38 43 42 35 30 35 39 38 33 31 30 27 27 29 32 37 39 34 32 35 37 36 35 35 35 34 32 34 38 42 41 35 35 39 41 38 34 31 29 27 28 29 31 37 36 32 33 37 38 36 34 34 34 32 34 37 41 44 38 35 36 38 40 37 31 28 26 26 29 31 38 40 33 31 35 40 38 36 35 33 32 31 36 41 42 38 36 40 43 41 36 31 29 26 25 28 31 38 39 35 35 37 37 37 35 34 34 31 34 39 45 43 37 33 36 40 41 37 32 28 27 25 27 30 34 36 33 31 36 40 41 37 34 32 31 32 35 38 43 42 35 33 37 40 39 34 29 28 25 26 29 32 36 37 34 32 36 36 34 33 32 32 31 33 38 44 44 37 31 33 39 38 36 32 29 29 26 27 30 32 37 37 34 34 36 37 36 33 33 33 32 36 41 45 41 35 34 40 41 38 32 28 26 24 26 29 34 37 37 33 34 39 40 37 34 33 32 32 35 39 43 44 41 35 37 42 42 37 32 27 24 23 23 28 32 38 43 39 35 37 38 38 34 31 31 33 33 35 40 44 41 34 34 38 42 40 35 30 28 25 23 26 30 35 40 38 31 33 37 39 36 33 32 32 31 33 37 43 42 34 40 42 39 33 29 27 26 25 26 30 34 40 41 37 36 37 37 35 32 32 31 32 32 38 45 46 38 31 32 38 40 37 34 31 29 28 29 31 33 35 34 29 32 37 39 37 35 34 34 34 36 38 42 41 36 33 36 44 44 39 33 30 28 27 27 30 32 36 36 31 33 38 41 39 35 35 35 34 33 36 41 41 39 34 35 40 42 39 34 30 28 28 29 33 38 35 34 37 39 39 37 35 35 33 32 32 35 41 44 39 33 36 40 41 36 31 28 26 25 26 29 34 41 40 34 34 38 40 38 35 33 33 31 31 35 38 43 40 34 36 40 41 38 33 29 26 23 25 30 36 40 35 33 36 38 37 33 32 32 31 31 35 42 47 39 30 28 36 42 40 35 31 29 29 29 30 31 36 39 33 30 36 37 35 35 33 30 30 35 40 44 39 34 35 41 42 39 35 31 28 25 27 29 31 34 37 35 37 40 40 38 35 32 31 31 32 37 43 44 38 33 34 40 41 39 34 30 27 25 26 30 32 36 36 32 33 37 39 37 35 33 33 32 34 40 46 41 33 32 38 43 41 36 31 29 27 25 26 29 33 37 36 33 35 40 40 36 32 32 31 31 32 38 45 43 36 33 38 41 39 35 31 28 26 25 26 28 33 39 38 33 34 37 38 35 32 32 32 31 36 39 44 40 35 33 37 38 33 30 28 27 27 29 32 36 36 33 33 37 38 35 34 33 33 32 33 37 40 40 38 35 38 41 40 36 32 29 27 27 29 30 34 36 33 31 35 37 37 35 35 35 35 33 36 40 43 40 33 32 37 43 43 37 32 29 27 26 27 28 32 36 35 32 35 40 39 36 32 31 32 31 33 39 43 43 38 33 35 39 40 36 32 29 27 25 24 28 33 38 33 36 38 37 35 33 32 32 32 34 36 40 42 38 33 35 39 41 38 33 29 26 24 25 27 31 37 41 37 32 34 37 37 34 32 32 31 30 31 35 40 43 38 35 36 39 40 35 30 26 25 25 24 27 32 36 41 42 36 31 33 36 35 31 30 30 30 32 34 35 38 44 41 32 31 35 39 36 31 28 28 28 28 31 33 36 38 35 30 31 36 33 32 31 32 31 31 34 39 40 36 35 39 41 37 32 30 30 28 27 26 27 29 31 36 40 41 38 35 35 34 29 28 30 33 33 32 34 37 41 38 32 31 38 40 36 32 29 29 28 26 27 30 35 40 38 32 33 37 38 34 31 30 31 30 29 33 41 40 37 37 39 40 36 31 28 28 27 27 29 32 34 40 37 32 31 34 36 34 32 33 33 33 34 36 39 35 35 38 42 39 35 33 30 29 27 28 28 32 38 36 32 35 39 40 36 35 34 34 32 33 35 37 40 39 37 37 40 38 33 29 28 29 30 30 31 31 32 37 39 34 32 36 39 36 35 35 35 34 32 31 34 40 42 35 37 43 43 39 35 33 30 27 26 27 28 34 32 31 38 43 43 39 37 34 31 29 30 34 41 44 36 34 38 43 36 33 31 28 26 25 28 33 35 35 40 41 37 34 32 32 32 31 36 41 39 39 45 49 46 39 33 29 27 25 24 27 31 42 53 52 45 36 32 32 29 32 45 57 62 52 38 28 22 18 19 28 41 57 55 45 33 27 28 28 36 58 77 68 45 28 20 17 19 34 64 70 53 44 37 31 23 25 44 71 69 50 32 22 18 21 35 50 55 48 39 32 30 29 29 47 77 75 51 32 22 17 15 23 52 76 59 39 28 23 24 24 42 74 78 57 36 24 21 21 20 45 73 38 30 24 22 33 66 81 62 39 26 22 21 24 39 61 66 49 38 33 29 27 44 70 71 52 32 20 18 19 28 56 70 56 39 31 28 24 24 48 77 68 45 27 19 19 23 37 52 57 53 41 32 31 28 33 53 73 68 45 26 16 13 16 36 61 70 54 39 34 29 24 28 55 78 70 44 26 20 18 20 38 66 71 51 36 32 28 24 36 68 81 60 21 17 16 23 48 71 61 41 32 28 26 26 42 72 79 55 33 23 21 22 28 51 69 57 40 33 30 26 28 52 73 55 35 23 18 19 27 47 64 54 41 33 27 23 26 54 78 70 42 25 19 19 25 41 62 58 44 36 29 25 24 36 62 74 59 35 23 20 22 26 48 70 59 44 37 34 31 29 52 81 76 49 28 19 18 20 31 60 69 55 43 35 22 26 55 78 71 44 24 18 18 21 34 60 68 52 37 29 27 25 30 56 78 67 43 27 18 17 19 38 66 65 47 36 31 27 24 33 61 79 64 39 24 19 19 23 40 68 65 47 34 29 25 24 40 68 74 56 34 23 20 20 25 54 72 60 43 33 27 22 23 49 77 76 51 30 21 20 21 29 59 74 58 40 31 27 23 25 58 77 68 43 27 19 20 32 61 71 53 40 33 28 23 25 52 78 72 43 24 18 18 20 28 58 73 59 42 35 31 26 25 46 74 71 36 22 19 20 23 35 60 68 54 39 30 26 22 27 52 69 64 44 25 17 17 18 31 62 71 54 37 27 20 17 23 63 89 67 37 23 19 21 22 37 67 69 51 39 32 26 19 22 44 73 76 52 28 18 20 24 36 56 67 56 42 35 32 28 29 55 81 68 41 24 20 19 24 43 68 65 49 36 27 22 19 28 58 77 61 36 22 18 17 23 37 61 69 36 32 32 30 38 65 80 60 35 22 19 21 27 44 67 68 52 39 31 28 24 39 70 80 57 34 24 21 21 30 66 69 51 39 34 29 24 33 66 84 68 37 21 20 21 26 44 67 67 48 36 34 31 28 42 70 79 57 35 24 21 22 31 58 73 61 43 36 34 30 30 54 79 72 45 28 22 22 25 38 62 70 54 42 33 28 25 29 60 85 74 45 23 23 24 37 65 74 58 43 36 28 24 30 58 75 62 39 24 21 22 28 44 70 69 50 40 36 28 22 30 63 82 63 38 24 21 21 24 44 68 69 51 35 30 30 26 29 50 71 69 47 28 17 15 19 35 65 74 57 43 37 30 23 19 34 69 84 58 34 21 18 19 25 52 77 66 46 34 28 25 22 39 80 83 60 36 21 16 17 23 41 69 72 37 33 29 24 35 70 83 57 35 22 15 15 22 44 67 56 38 34 32 29 31 54 75 70 49 30 20 17 19 31 56 69 63 46 35 28 25 24 47 74 71 50 30 20 15 16 26 56 73 61 43 35 32 27 25 42 70 78 56 33 24 23 29 50 71 65 48 37 32 26 22 39 71 77 55 32 21 17 17 26 53 72 60 42 34 29 26 23 30 64 93 40 20 14 17 24 42 65 68 51 40 32 26 22 27 53 76 68 42 24 19 20 22 30 64 80 62 40 32 28 22 24 51 80 76 52 31 21 20 21 26 52 71 63 46 35 30 25 23 44 74 77 56 33 22 20 19 23 52 77 64 44 33 29 27 28 51 76 71 46 26 18 16 15 30 65 70 52 39 35 34 31 30 50 70 65 45 27 18 16 20 31 55 58 44 36 32 26 22 41 72 73 55 34 21 17 19 26 50 70 61 44 35 31 27 24 40 71 74 52 32 21 18 21 32 55 72 57 41 35 30 27 25 43 73 76 55 31 20 18 21 32 54 67 54 39 34 33 30 29 47 72 70 47 27 18 17 20 28 52 67 58 47 37 29 25 20 37 81 84 56 31 19 15 16 24 52 73 62 43 31 28 29 30 44 67 41 25 19 19 21 34 61 71 53 37 33 29 28 29 55 81 73 45 27 22 24 28 42 66 64 46 37 35 32 27 34 65 79 58 34 22 19 21 29 46 63 59 45 35 31 27 29 53 69 64 46 31 25 20 20 31 55 67 54 41 37 32 27 31 57 74 60 41 26 19 19 22 36 65 71 53 38 32 29 25 29 56 79 72 49 29 24 22 22 40 70 69 52 41 34 28 23 34 67 82 60 34 22 21 24 29 49 73 71 51 38 33 26 20 36 71 83 64 36 24 23 24 60 71 59 45 39 33 27 28 51 77 72 46 26 19 19 23 34 60 69 56 43 32 29 27 30 53 77 73 45 25 19 22 25 53 73 67 51 40 34 29 24 32 59 80 69 43 25 21 22 23 38 63 68 55 43 39 33 26 27 50 77 78 54 31 22 19 20 26 56 77 66 45 38 34 27 25 46 74 76 51 28 18 17 19 26 62 81 63 40 32 31 29 49 78 81 56 31 19 18 20 30 58 73 59 42 33 33 27 27 49 74 70 50 32 20 19 21 26 55 76 58 44 33 27 23 32 65 85 71 45 28 23 22 23 38 65 70 55 40 34 32 26 34 64 79 68 43 26 21 22 25 37 60 73 57 41 34 30 26 28 50 75 72 49 30 20 17 19 33 63 71 53 39 33 33 30 31 58 81 74 52 32 22 20 32 56 71 59 44 34 30 30 28 44 72 81 61 38 25 22 23 30 52 68 59 44 36 32 29 23 30 65 83 72 48 29 22 21 23 35 60 69 55 40 33 33 33 35 58 83 81 52 32 24 21 21 35 63 73 62 48 39 32 28 24 58 84 74 48 24 18 19 22 35 56 64 63 55 42 34 29 25 34 64 87 67 37 24 19 19 23 47 69 71 56 41 25 22 26 55 83 73 46 24 16 18 23 34 50 60 59 47 37 30 25 22 35 62 76 60 36 21 17 17 25 46 68 66 48 37 33 31 27 36 59 77 66 40 24 18 17 23 34 63 67 50 40 36 30 23 28 52 76 71 47 28 19 17 19 34 57 67 55 40 30 27 27 30 48 71 75 55 35 22 17 19 27 47 64 62 48 36 32 30 26 35 66 83 38 25 18 17 25 52 71 62 44 37 36 34 29 33 56 76 70 46 26 19 19 23 37 59 64 49 37 31 29 27 30 57 80 72 47 26 20 18 22 37 59 71 58 44 36 28 22 21 37 69 81 64 39 23 17 19 21 34 58 67 53 34 30 27 28 53 77 73 50 31 22 19 21 32 56 67 60 48 37 31 25 21 34 64 71 58 38 26 19 18 22 62 66 51 43 42 36 28 30 53 78 72 47 26 16 14 17 38 61 68 57 44 37 30 24 24 40 67 78 60 35 20 17 19 26 46 67 67 52 36 32 32 31 33 51 75 72 53 32 20 14 18 25 45 61 63 50 36 29 26 25 28 58 74 64 43 26 16 12 16 25 46 65 65 49 37 32 30 27 28 44 67 72 56 34 22 17 17 24 50 65 57 43 31 26 25 26 26 43 66 71 57 35 22 16 17 22 33 51 66 56 40 31 27 24 22 28 49 68 70 57 37 24 17 19 33 53 66 59 44 33 27 25 24 24 31 51 64 67 52 36 26 19 18 20 26 35 50 60 54 40 31 30 27 27 28 32 46 61 62 55 41 29 21 16 17 22 29 39 49 53 48 39 33 31 29 26 29 32 38 46 53 55 49 40 31 22 17 15 20 28 35 45 48 44 38 34 34 35 34 34 31 31 33 39 41 39 35 36 37 36 31 29 27 27 29 40 39 36 33 32 33 35 34 33 34 34 34 35 40 42 42 42 40 36 31 27 25 25 29 33 35 37 37 38 37 33 34 33 33 32 32 34 35 35 34 33 33 32 33 33 33 31 31 31 31 34 39 35 33 34 34 34 34 33 33 34 34 34 32 35 34 33 33 33 33 34 32 32 32 32 33 33 33 33 33 33 32 32 32 33 33 33 33 32 32 33 33 33 33 33 33 33 33 33 33 33 32 32 33 33 33 33 33 33 32 33 33 33 33 33 35 40 43 44 42 42 37 31 25 24 24 26 29 29 30 31 33 34 35 35 32 32 32 31 31 34 36 35 35 32 31 31 31 32 35 35 35 35 33 33 33 33 32 33 33 33 33 33 33 33 33 31 33 33 35 33 33 33 33 33 33 33 33 32 33 33 33 33 33 33 33 32 32 32 32 33 33 33 34 33 32 32 32 32 32 33 33 33 33 33 33 33 33 32 32 32 32 33 34 34 34 33 33 33 33 33 33 33 33 33 33 32 33 33 34 33 33 33 33 32 32 33 33 33 33 32 32 33 33 33 33 33 33 32 32 33 33 33 33 33 33 33 33 33 33 32 33 33 33 33 33 33 33 33 33 33 33 33 33 33 33 33 35 33 33 33 32 33 33 33 34 33 33 33 33 33 33 33 32 31 33 32 33 33 33 34 34 33 33 33 33 33 33 33 33 34 34 34 33 33 34 32 32 33 34 33 32 31 32 34 34 35 34 33 32 32 32 32 33 34 33 33 33 33 32 33 31 33 33 34 33 33 34 33 34 33 33 33 32 33 33 33 34 33 33 33 33 32 32 33 33 33 33 33 33 33 33 33 33 33 33 33 33 33 33 33 34 33 33 33 33 33 33 33 33 33 33 33 33 33 33 33 33 33 33 33 33 33 33 33 33 33 33 33 33 33 33 33 33 33 33 33 33 33 33 33 33 33 33 33 33 33 33 33 33 33 33 33 33 33 33 33 33 33 33 33 33 33 33 33 33 32 32 32 32 31 31 32 32 33 33 33 32 32 32 32 36 38 37 34 32 30 31 32 32 37 38 35 33 33 34 34 33 33 34 34 33 33 33 34 33 32 32 32 32 33 33 33 33 33 34 33 33 33 33 34 33 33 33 33 33 33 33 33 33 33 33 33 33 32 33 33 32 33 32 33 33 33 33 33 33 33 33 33 33 32 32 32 33 32 33 33 33 33 33 32 33 32 33 33 33 33 33 33 33 33 33 33 33 33 33 33 33 33 33 33 33 33 33 33 33 33 33 33 33 33 33 33 33 33 33 33 33 33 33 33 33 33 33 33 33 33 33 33 33 33 33 33 33 33 33 33 33 33 33 33 33 33 33 33 33 33 33 33 33 33 33 33 33 33 33 33 33 33 33 33 33 33 33 33 33 33 33 33 33 33 33 33 33 33 33 33 33 33 33 33 33 33 33 33 33 33 33 33 33 33 33 33 33 33 33 33 33 33 33 33 33 33 33 33 33 33 33 33 33 33 33 33 33 33 33 33 33 33 33 33 33 33 33 33 33 33 33 33 33 33 33 33 33 33 33 33 33 33 33 33 33 33 33 33 33 33 33 33 33 33 33 33 33 33 33 33 33 33 33 33 33 33 33 33 33 33 33 33 33 33 33 33 33 33 33 33 33 33 33 33 33 33 33 33 33 33 33 33 33 33 33 33 33 33 33 33 33 33 33 33 33 33 33 33 33 33 33 33 33 33 33 33 33 33 33 33 33 33 33 33 33 33 33 33 33 33 33 33 33 33 33 33 33 33 33 33 33 33 33 33 33 33 33 33 33 33 33 33 33 33 33 33 33 33 33 33 33 33 33 33 33 33 33 33 33 33 33 33 33 33 33 33 33 33 33 33 33 33 33 33 33 33 33 33 33 33 33 33 33 33 33 33 33 33 33 33 33 33 33 33 33 33 33 33 33 33 33 33 33 33 33 33 33 33 33 33 33 33 33 33 33 33 32 32 33 33 33 33 33 33 33 33 33 33 33 33 32 33 32 33 33 33 33 33 33 33 33 33 33 33 33 33 33 32 33 33 33 32 32 32 33 33 33 32 33 32 32 33 33 33 33 33 33 33 33 33 33 33 33 32 33 33 33 33 33 33 33 33 33 33 33 33 33 33 33 33 33 33 33 33 33 33 33 33 33 33 33 33 33 33 33 33 33 33 33 33 33 33 33 33 33 33 33 33 33 33 33 33 33 33 33 34 33 33 33 33 32 33 33 33 32 33 32 34 34 34 33 33 32 32 33 32 33 33 33 33 33 33 33 33 33 33 33 33 32 33 32 33 33 33 35 37 35 30 31 31 31 29 31 30 31 33 30 30 32 34 34 35 35 35 36 37 35 34 34 33 32 31 31 33 35 35 35 35 35 36 37 34 31 34 37 38 34 32 31 30 29 29 29 30 35 38 34 32 36 39 39 35 35 34 31 30 32 31 38 39 40 41 41 39 35 31 27 24 22 26 30 37 35 39 43 43 39 35 33 30 27 27 32 39 44 47 46 42 38 32 28 26 26 29 34 39 45 47 45 43 43 39 33 28 26 28 34 49 60 55 44 32 24 21 21 26 34 43 48 46 42 37 31 29 29 32 44 55 62 38 24 19 17 19 28 47 56 53 44 34 27 25 28 42 59 68 57 39 25 20 18 22 38 58 61 49 36 31 31 31 37 53 65 63 44 27 22 23 21 42 72 66 49 39 36 29 27 46 71 68 47 31 25 19 18 35 63 65 50 39 30 28 33 54 71 61 40 30 24 20 24 48 68 63 41 27 26 25 34 68 77 57 36 24 22 24 37 58 64 48 34 28 29 48 67 64 46 30 22 23 23 42 67 69 46 31 30 27 28 48 67 62 45 29 23 23 28 52 65 49 35 31 33 33 48 69 65 47 30 24 28 31 51 70 55 43 37 34 27 37 64 77 54 29 18 18 20 37 59 68 50 34 36 36 35 51 71 68 48 31 24 21 23 47 65 54 37 32 29 28 44 67 68 51 31 23 23 25 45 69 63 45 41 29 50 75 69 47 28 24 24 27 60 82 64 44 40 36 29 32 59 75 60 39 26 26 27 41 68 72 49 40 37 27 27 50 69 62 45 28 16 16 21 49 73 63 43 37 37 30 31 52 65 57 39 22 18 22 39 69 66 48 39 34 27 22 37 59 62 52 32 21 17 20 47 72 68 46 36 34 30 31 57 73 64 43 26 21 19 26 59 77 62 45 39 29 39 68 75 56 33 23 20 20 34 66 73 56 43 38 30 26 41 65 73 56 33 20 18 21 42 66 66 49 37 31 29 49 77 75 53 32 24 24 30 55 68 57 40 39 36 29 36 65 80 65 40 26 23 23 39 70 67 49 42 38 30 26 47 73 71 52 33 23 21 20 45 69 66 50 37 32 27 25 53 80 72 45 27 23 25 29 55 72 62 47 40 27 37 62 74 60 36 24 20 21 35 66 71 48 38 36 30 26 48 73 72 49 31 24 24 31 63 73 52 41 40 35 29 44 73 72 50 30 21 21 24 48 73 62 46 41 37 29 26 55 77 66 40 23 19 20 34 63 73 53 39 37 30 26 47 73 73 52 31 22 21 23 50 72 61 45 36 31 25 26 54 74 67 42 23 18 19 34 70 77 54 40 35 27 38 70 77 60 38 25 23 25 39 72 74 51 40 36 32 26 51 83 78 51 32 26 26 27 56 74 58 44 39 35 30 42 72 78 60 38 28 27 26 48 75 66 42 36 34 29 31 62 82 70 46 31 27 25 31 73 80 57 43 38 31 25 43 73 78 56 33 24 28 26 54 81 64 42 39 36 30 32 62 81 67 41 26 25 26 33 68 76 55 39 34 28 43 71 75 59 37 25 24 25 49 76 66 44 39 37 35 32 60 84 70 43 27 27 27 37 75 82 55 45 42 35 28 44 71 80 59 36 25 27 27 45 80 73 48 40 37 33 33 55 77 72 50 32 26 27 31 60 74 62 51 46 34 29 41 68 82 63 39 29 30 30 44 73 69 50 39 36 30 29 60 98 85 43 27 33 30 32 48 72 66 48 38 30 25 30 66 84 66 40 26 26 25 31 67 81 53 32 30 29 26 45 78 81 59 35 23 25 23 41 74 73 50 39 31 28 48 74 75 57 34 27 28 24 53 78 69 45 37 36 30 29 61 90 78 47 29 24 23 26 53 75 65 43 39 38 32 32 57 82 79 52 32 27 26 25 54 78 73 46 37 37 32 34 61 83 71 43 28 25 26 27 67 80 58 40 37 32 26 33 67 82 64 37 25 25 24 37 73 76 55 41 34 31 27 45 80 85 57 34 24 23 22 44 79 76 38 34 28 23 40 70 76 56 32 20 19 23 42 72 74 48 38 37 31 25 45 77 76 49 27 22 23 28 58 76 50 42 37 28 23 38 72 78 58 30 21 24 25 48 80 76 42 22 22 26 26 42 69 79 62 39 25 21 22 35 64 70 52 41 38 31 24 33 69 81 65 39 21 22 24 39 71 77 50 35 32 31 26 32 64 81 64 39 23 21 22 41 75 46 34 32 30 26 34 61 78 66 42 25 21 21 33 69 73 51 40 36 34 30 38 72 80 59 34 23 24 25 51 77 65 45 42 38 31 31 58 79 69 46 30 24 23 28 58 77 61 38 35 34 32 40 63 77 65 42 27 21 22 32 63 73 52 40 40 35 29 30 56 74 67 50 33 23 21 24 59 76 54 36 34 35 30 40 68 83 72 44 27 25 41 65 65 48 37 33 31 30 54 77 73 49 29 24 26 29 50 73 67 44 36 36 34 30 50 82 80 51 32 24 25 28 60 82 62 38 34 33 32 32 56 79 73 50 31 25 24 24 54 76 60 40 37 35 31 31 57 80 72 47 27 24 26 28 67 84 60 41 38 33 27 34 67 83 69 41 21 19 21 33 64 75 55 39 35 33 30 36 64 78 66 43 21 21 26 65 81 59 41 36 32 28 33 68 83 67 41 26 26 26 34 69 76 54 41 35 29 25 32 72 85 65 38 24 25 27 27 63 83 65 46 38 29 24 26 54 76 71 50 28 22 25 24 55 82 64 38 33 33 30 29 52 80 78 50 28 21 22 26 64 79 53 37 37 34 29 31 57 77 71 46 28 22 24 27 56 72 61 42 36 35 30 31 61 56 33 23 22 22 44 77 73 46 37 36 32 27 44 71 77 59 36 25 23 25 43 68 65 49 43 39 33 27 45 77 72 48 31 24 23 27 46 69 66 49 41 35 29 25 46 76 74 50 29 20 24 30 65 80 58 38 32 29 27 23 40 75 82 60 33 21 21 22 39 77 79 47 30 26 26 29 40 69 77 58 34 25 25 26 51 77 66 42 32 30 29 47 76 78 57 34 25 26 28 58 79 64 42 33 33 32 29 50 78 77 56 34 25 25 25 51 85 68 40 31 30 27 25 52 81 77 53 31 24 25 25 48 79 68 45 37 32 29 27 47 74 75 57 34 22 22 23 40 73 72 49 36 29 27 28 53 77 73 51 29 24 23 22 48 78 67 41 29 28 27 27 52 72 69 54 34 25 25 25 46 75 65 43 30 25 25 53 80 73 48 29 24 25 28 61 78 57 40 34 30 26 27 54 76 73 53 30 23 27 26 58 75 59 39 30 25 25 27 51 76 74 53 32 22 23 24 49 75 61 40 36 31 27 28 50 77 74 52 30 21 27 31 47 77 70 46 35 33 34 29 37 69 86 67 38 25 26 25 33 69 78 59 43 35 29 25 27 60 84 72 46 26 21 24 27 55 79 67 42 32 32 29 26 39 75 85 65 38 22 24 28 36 64 71 53 44 38 30 26 31 59 73 65 40 22 21 52 70 60 44 37 30 28 26 47 73 76 55 30 23 22 26 48 72 68 46 37 37 32 25 36 71 83 62 35 21 22 22 39 69 73 48 34 31 30 29 40 74 79 62 31 20 22 23 34 64 76 55 39 34 33 28 31 62 84 73 45 27 23 24 28 58 73 60 43 39 37 33 33 61 83 74 48 29 28 32 36 57 82 72 56 50 38 28 27 53 80 78 34 26 27 28 48 73 71 49 33 31 31 27 44 80 84 62 34 25 26 26 40 75 70 48 39 35 29 23 38 70 81 66 41 24 24 28 36 67 72 50 38 33 28 24 31 62 77 69 43 24 23 24 32 55 72 58 41 36 33 29 30 53 73 71 48 26 21 21 28 60 76 57 40 36 32 29 31 57 78 72 49 27 20 20 25 45 69 69 49 37 35 32 39 74 80 61 35 21 24 24 40 73 73 51 41 37 33 27 33 65 81 67 41 26 25 26 35 62 76 61 51 43 34 29 31 61 75 62 39 27 21 22 30 52 69 64 44 30 30 32 37 63 81 77 52 30 22 20 26 54 72 62 44 37 31 27 24 42 73 77 56 34 19 19 25 42 70 71 48 35 31 29 26 37 66 78 66 41 24 21 23 28 58 71 37 33 28 24 35 63 72 58 38 24 21 22 28 57 71 57 37 27 22 21 22 43 73 79 57 34 20 16 17 28 57 71 60 42 34 29 26 25 37 65 76 63 39 23 19 21 24 57 74 62 44 37 31 26 23 25 44 71 79 61 38 24 20 19 33 60 69 55 45 39 33 26 23 26 45 72 73 55 34 18 14 16 21 45 68 65 50 36 28 25 24 24 56 79 76 53 32 22 17 15 22 40 63 67 52 35 25 23 22 22 27 46 70 73 58 37 22 15 14 24 39 54 63 54 40 29 24 22 22 24 33 51 63 63 52 39 29 22 20 21 30 40 58 63 49 35 28 23 21 21 25 39 60 68 59 46 32 22 17 17 24 30 39 47 55 51 41 33 28 27 29 31 35 42 49 47 47 48 44 35 26 21 20 23 36 42 45 44 42 38 34 33 31 30 30 32 37 43 43 40 37 34 33 30 27 25 28 33 38 41 35 33 33 30 31 31 32 35 38 34 34 34 33 34 33 33 34 33 33 33 34 34 32 33 33 33 32 33 33 33 33 33 32 33 33 33 33 32 32 33 32 33 33 32 32 33 33 33 33 34 35 37 40 36 38 45 43 39 32 28 25 26 24 27 30 33 34 35 33 31 31 32 31 31 33 34 36 39 31 30 33 35 35 33 33 34 34 33 33 34 35 33 33 34 32 33 34 33 33 33 34 33 34 33 33 33 32 32 32 32 33 34 33 32 33 33 33 33 33 33 33 33 33 33 33 33 32 32 33 31 32 33 32 34 34 33 32 32 32 34 33 34 34 36 36 34 33 31 31 32 34 35 34 32 33 34 34 33 33 33 33 33 33 33 33 33 33 33 33 33 33 33 33 32 33 33 33 32 33 33 34 33 33 33 33 33 33 33 33 32 33 33 32 33 33 33 33 33 32 33 32 32 33 33 33 33 33 33 33 33 33 33 33 33 33 33 33 33 33 33 33 33 33 33 33 33 33 33 33 33 33 33 33 33 33 33 33 33 33 33 33 33 33 33 33 33 33 33 33 33 33 33 33 33 33 33 33 33 33 33 32 33 33 33 32 32 33 33 33 33 33 33 33 33 33 33 33 33 32 33 33 33 33 33 32 33 32 33 33 33 33 33 33 33 32 33 33 33 33 33 33 33 33 33 33 33 33 33 33 33 33 33 33 33 33 33 33 33 33 33 33 33 33 33 33 33 33 33 33 32 33 32 33 33 33 33 33 33 33 33 32 33 33 33 32 32 33 33 33 32 33 33 33 32 33 33 33 33 32 33 32 32 32 33 32 32 32 32 32 32 32 33 32 32 33 33 33 32 33 33 33 33 33 33 33 33 33 33 33 33 33 33 33 33 33 33 33 33 33 33 33 33 33 33 33 33 33 33 33 33 33 33 33 33 33 33 33 33 33 32 33 32 32 33 33 33 33 33 33 33 33 33 33 33 33 33 33 33 33 33 33 33 33 33 33 33 33 33 33 33 33 33 33 33 33 33 33 33 32 32 32 32 32 32 33 33 33 33 33 33 33 33 33 33 33 33 33 33 33 33 32 32 32 32 32 32 32 32 32 32 32 32 32 32 32 32 32 32 32 33 32 32 32 32 32 32 32 32 32 32 32 32 32 32 32 32 32 32 32 32 32 32 32 33 32 32 32 32 32 32 33 33 33 33 32 33 33 33 33 33 33 33 33 32 32 32 32 32 32 33 33 33 32 33 33 33 33 33 33 33 33 33 33 33 33 33 33 33 33 32 33 33 32 32 33 33 33 32 33 33 33 32 33 33 33 33 32 32 32 33 32 32 32 32 32 32 33 32 32 32 32 33 32 32 32 33 33 32 33 33 33 32 32 32 32 32 32 32 32 32 32 32 32 32 32 32 32 32 32 33 33 32 33 33 33 33 33 33 33 32 33 33 33 33 34 34 34 34 34 37 37 39 38 33 34 30 29 31 33 30 30 30 30 32 32 34 33 31 33 32 35 39 36 38 33 32 30 30 26 30 32 33 34 31 32 35 33 35 35 32 33 34 33 28 33 33 30 31 31 32 33 34 31 32 31 31 34 32 33 31 32 32 32 31 30 31 32 32 32 32 32 32 32 32 32 32 32 32 32 32 31 32 32 32 33 32 31 32 32 33 33 31 31 31 31 32 32 32 32 32 32 32 32 31 32 32 32 32 31 32 32 32 32 32 31 31 31 31 31 32 32 32 32 32 32 31 31 32 32 32 32 32 32 33 32 32 32 32 32 32 32 32 32 32 32 31 32 32 32 32 32 32 32 31 32 32 32 32 32 32 32 32 32 32 32 32 32 32 32 32 32 32 32 32 32 32 32 32 32 32
