25241 25232 25190 25157 25130 25112 25088 25016 24896 24761 24660 24584 24492 24429 24397 24343 24254 24178 24105 24073 24019 23993 23980 23941 23874 23793 23744 23722 23783 23825 23877 23893 23963 24013 24050 24109 24172 24214 24284 24341 24362 24362 24361 24370 24354 24362 24375 24395 24415 24430 24441 24455 24477 24493 24528 24512 24537 24546 24517 24528 24516 24518 24540 24539 24542 24562 24559 24595 24575 24587 24581 24592 24598 24597 24602 24567 24568 24550 24536 24523 24537 24541 24530 24512 24513 24509 24504 24494 24530 24578 24621 24656 24665 24687 24672 24691 24697 24731 24755 24812 24838 24873 24883 24905 24931 24928 24955 24975 24998 25000 25010 25035 25047 25073 25086 25120 25127 25144 25148 25159 25161 25169 25159 25164 25141 25153 25108 25110 25072 25059 25056 25072 25064 25046 25018 24993 24988 24968 24970 24977 24994 25000 24977 24946 24885 24846 24832 24794 24787 24760 24728 24696 24661 24636 24623 24643 24636 24615 24573 24536 24488 24441 24417 24405 24435 24435 24452 24446 24430 24381 24376 24369 24381 24381 24364 24311 24284 24236 24226 24230 24216 24188 24153 24125 24116 24116 24103 24127 24155 24215 24247 24248 24226 24155 24103 24114 24096 24109 24098 24065 24053 24038 24047 24063 24093 24110 24074 24030 24017 23998 24003 23993 24002 24033 24069 24101 24126 24094 24072 24068 24075 24074 24093 24088 24078 24040 24045 24070 24087 24081 24049 24025 24015 24048 24060 24083 24116 24147 24175 24190 24163 24110 24074 24054 24058 24072 24053 24044 24043 24060 24082 24085 24116 24112 24081 24032 24039 24028 24010 24040 24059 24086 24106 24119 24117 24107 24094 24105 24101 24135 24131 24130 24122 24106 24097 24076 24094 24072 24038 24044 24040 24047 24064 24077 24124 24133 24148 24135 24084 24052 24021 24029 24055 24057 24048 24043 24042 24027 24030 24053 24016 23974 23954 23920 23926 23939 23957 23982 24005 24017 24009 23985 23962 23942 23956 23957 23961 23943 23928 23912 23878 23874 23873 23878 23834 23788 23764 23789 23772 23794 23814 23855 23862 23845 23814 23785 23737 23727 23717 23726 23722 23706 23709 23692 23696 23702 23729 23718 23665 23608 23583 23604 23620 23643 23683 23699 23730 23736 23732 23691 23657 23670 23671 23686 23675 23666 23659 23697 23756 23829 23890 23927 23916 23898 23935 23962 24008 24058 24121 24161 24151 24138 24115 24077 24041 24020 24013 24047 24048 24023 24016 24010 24024 24042 24056 24047 24005 24012 24011 24030 24038 24037 24062 24080 24107 24121 24099 24074 24082 24069 24088 24097 24088 24066 24083 24059 24095 24117 24117 24105 24066 24063 24079 24085 24103 24132 24154 24182 24193 24187 24160 24143 24127 24134 24132 24137 24136 24141 24127 24121 24146 24165 24176 24147 24112 24106 24132 24117 24130 24141 24152 24157 24180 24178 24150 24111 24113 24129 24117 24126 24106 24085 24099 24048 24073 24062 24062 24025 23991 23989 23959 23973 23953 23975 23975 23990 23993 23979 23932 23899 23877 23838 23819 23813 23811 23775 23746 23730 23712 23723 23684 23642 23621 23576 23533 23506 23467 23471 23467 23469 23456 23433 23403 23354 23345 23334 23324 23311 23303 23240 23200 23127 23100 23079 23041 22965 22942 22915 22909 22905 22919 22902 22904 22907 22896 22823 22751 22687 22681 22660 22656 22661 22631 22610 22595 22565 22582 22571 22547 22503 22422 22394 22351 22337 22341 22371 22373 22385 22384 22365 22355 22313 22312 22322 22335 22339 22294 22281 22262 22246 22225 22254 22256 22175 22125 22135 22143 22166 22178 22181 22199 22192 22173 22168 22091 22054 22015 22011 22010 22001 21989 21983 22004 21983 21980 21984 21993 21929 21864 21839 21856 21874 21915 21936 21965 21988 22032 22041 22023 21982 21942 21891 21907 21918 21897 21890 21899 21890 21869 21866 21885 21887 21815 21771 21772 21763 21758 21778 21808 21846 21883 21906 21899 21838 21780 21750 21755 21781 21805 21794 21784 21774 21750 21734 21741 21746 21682 21624 21621 21622 21647 21668 21704 21736 21724 21739 21717 21681 21632 21594 21588 21585 21559 21563 21542 21529 21479 21465 21464 21475 21427 21338 21290 21283 21271 21276 21304 21327 21361 21386 21388 21342 21285 21300 21303 21330 21308 21289 21284 21282 21260 21231 21234 21250 21243 21161 21144 21132 21140 21158 21162 21169 21199 21199 21238 21216 21173 21139 21109 21115 21125 21125 21130 21136 21112 21115 21074 21070 21069 21032 21000 20968 20966 20960 20962 20997 21011 21029 21044 21059 21035 20978 20959 20939 20942 20935 20917 20905 20904 20900 20886 20898 20894 20876 20820 20786 20762 20755 20769 20795 20840 20878 20915 20928 20907 20875 20834 20831 20850 20837 20822 20807 20817 20809 20827 20822 20826 20830 20775 20723 20708 20722 20757 20775 20806 20856 20900 20942 20944 20905 20858 20830 20859 20892 20902 20901 20921 20927 20920 20939 20942 20966 20922 20853 20838 20831 20840 20837 20883 20918 20961 20977 20992 20978 20945 20934 20919 20927 20910 20901 20885 20871 20853 20856 20838 20822 20835 20763 20754 20758 20778 20785 20817 20873 20932 20942 20943 20922 20895 20878 20900 20920 20939 20938 20955 20948 20939 20913 20924 20915 20908 20850 20804 20797 20806 20820 20864 20924 20970 20987 20981 20955 20925 20914 20916 20947 20932 20906 20896 20897 20867 20862 20862 20867 20834 20776 20753 20771 20798 20821 20844 20913 20953 20966 20983 20938 20909 20914 20942 20987 20997 20990 20994 21002 20987 20985 20987 21015 20966 20893 20870 20882 20901 20946 20994 21038 21079 21086 21070 21048 21013 21008 21012 21038 21020 21008 20979 20982 20978 20979 20975 20964 20911 20882 20876 20866 20877 20924 20951 20984 20992 20980 20970 20943 20918 20907 20918 20919 20903 20893 20880 20885 20856 20832 20859 20846 20784 20729 20712 20732 20737 20758 20812 20856 20860 20868 20849 20814 20784 20799 20803 20825 20796 20770 20764 20767 20761 20755 20753 20742 20682 20638 20636 20653 20690 20731 20780 20799 20815 20795 20778 20747 20709 20701 20720 20728 20713 20714 20715 20729 20705 20714 20728 20699 20641 20581 20590 20594 20643 20678 20700 20753 20769 20796 20764 20727 20703 20748 20771 20799 20793 20771 20758 20736 20729 20727 20754 20746 20670 20643 20659 20683 20696 20713 20743 20768 20797 20793 20759 20736 20707 20707 20721 20732 20723 20719 20728 20714 20707 20705 20725 20694 20600 20569 20566 20594 20595 20622 20690 20736 20758 20786 20777 20754 20731 20748 20772 20796 20773 20742 20738 20717 20681 20682 20697 20721 20670 20613 20613 20637 20650 20683 20722 20744 20778 20796 20808 20781 20774 20776 20800 20814 20818 20804 20808 20817 20786 20780 20794 20779 20734 20665 20640 20647 20653 20691 20760 20803 20847 20873 20871 20851 20808 20804 20814 20812 20808 20797 20778 20782 20778 20778 20772 20778 20743 20669 20653 20652 20676 20714 20743 20798 20818 20826 20816 20768 20746 20747 20763 20760 20770 20746 20743 20735 20720 20708 20682 20671 20622 20545 20507 20524 20530 20561 20589 20607 20637 20665 20682 20654 20630 20606 20609 20615 20629 20598 20590 20615 20626 20644 20643 20641 20605 20523 20513 20486 20487 20479 20492 20531 20560 20572 20578 20547 20515 20488 20525 20545 20549 20537 20535 20536 20502 20467 20460 20450 20410 20315 20314 20327 20356 20387 20446 20526 20617 20625 20616 20578 20508 20472 20473 20493 20486 20484 20479 20466 20444 20427 20450 20458 20415 20345 20321 20303 20312 20340 20378 20437 20496 20509 20510 20494 20487 20485 20529 20561 20564 20562 20525 20516 20498 20465 20443 20431 20430 20370 20333 20332 20358 20388 20452 20547 20636 20664 20656 20640 20615 20594 20614 20635 20688 20688 20667 20658 20668 20667 20654 20658 20674 20629 20545 20520 20528 20560 20594 20667 20712 20766 20771 20761 20731 20711 20722 20737 20717 20684 20659 20656 20643 20611 20600 20604 20618 20581 20540 20524 20540 20553 20568 20634 20671 20708 20750 20745 20715 20700 20721 20736 20745 20736 20704 20699 20716 20703 20724 20706 20684 20603 20562 20581 20583 20628 20659 20737 20797 20834 20872 20869 20861 20839 20845 20871 20904 20896 20884 20887 20864 20842 20831 20859 20862 20820 20766 20781 20799 20820 20820 20846 20892 20946 20964 20991 20981 20943 20952 20997 21043 21066 21061 21057 21054 21030 20999 20973 20995 20964 20914 20888 20913 20934 20958 20962 21013 21084 21098 21107 21084 21047 21036 21055 21081 21066 21056 21074 21064 21074 21089 21118 21135 21131 21090 21047 21014 21005 21026 21076 21127 21181 21216 21231 21254 21234 21197 21181 21211 21260 21299 21294 21290 21274 21251 21226 21226 21223 21199 21129 21116 21130 21157 21189 21249 21303 21371 21394 21421 21397 21367 21319 21335 21354 21388 21397 21390 21382 21394 21378 21382 21387 21391 21313 21284 21260 21269 21298 21350 21404 21442 21478 21499 21506 21488 21447 21443 21465 21504 21500 21478 21455 21447 21399 21411 21410 21418 21356 21303 21292 21297 21317 21361 21422 21436 21468 21481 21461 21418 21384 21367 21381 21388 21361 21348 21351 21336 21321 21321 21316 21250 21166 21099 21073 21092 21123 21169 21243 21293 21321 21354 21344 21297 21292 21322 21334 21325 21302 21274 21262 21271 21261 21243 21240 21218 21148 21120 21116 21113 21129 21137 21164 21184 21189 21205 21191 21183 21135 21134 21128 21135 21129 21136 21135 21129 21104 21063 21029 21008 20947 20858 20849 20868 20896 20917 20988 21030 21112 21158 21198 21197 21160 21137 21127 21170 21204 21231 21209 21224 21223 21238 21237 21227 21211 21203 21146 21082 21060 21052 21049 21129 21204 21287 21336 21401 21453 21474 21455 21399 21462 21540 21555 21550 21520 21537 21576 21574 21572 21561 21527 21488 21472 21501 21523 21544 21568 21627 21644 21661 21673 21657 21620 21588 21578 21590 21582 21573 21543 21539 21556 21545 21548 21540 21496 21426 21394 21388 21398 21423 21459 21508 21569 21615 21616 21588 21560 21507 21470 21465 21458 21439 21410 21407 21410 21397 21378 21398 21409 21377 21305 21295 21282 21279 21304 21363 21400 21439 21437 21432 21395 21354 21344 21355 21376 21387 21351 21332 21291 21243 21226 21266 21249 21206 21146 21135 21163 21183 21235 21262 21303 21315 21323 21274 21217 21177 21180 21175 21180 21156 21143 21117 21109 21079 21079 21096 21073 21040 20982 20977 20968 20977 20995 21023 21069 21114 21144 21115 21088 21107 21132 21148 21153 21127 21099 21095 21061 21044 21028 21055 21015 20942 20945 20947 20970 20999 21041 21094 21114 21095 21050 21008 20978 20968 20965 20984 20992 20973 20957 20947 20929 20935 20957 20959 20892 20818 20797 20802 20834 20867 20935 21053 21147 21253 21237 21177 21142 21150 21178 21188 21190 21168 21175 21179 21171 21180 21193 21169 21123 21075 21060 21076 21088 21142 21199 21256 21262 21261 21262 21221 21179 21162 21173 21164 21169 21152 21165 21147 21134 21117 21115 21086 21026 20966 20957 20984 21013 21054 21115 21173 21192 21239 21215 21178 21151 21147 21138 21136 21142 21111 21101 21096 21064 21072 21076 21065 21014 20959 20964 20972 20987 21023 21078 21124 21170 21174 21173 21131 21109 21095 21085 21081 21060 21048 21073 21044 21033 20997 20970 20951 20905 20864 20841 20853 20869 20933 20982 21009 21023 21033 20983 20948 20901 20869 20863 20866 20854 20831 20830 20820 20807 20784 20779 20771 20725 20651 20624 20645 20684 20728 20773 20794 20796 20790 20773 20742 20738 20729 20739 20751 20738 20704 20676 20627 20611 20587 20577 20537 20481 20477 20485 20519 20535 20603 20620 20632 20624 20618 20573 20547 20527 20527 20558 20536 20512 20509 20528 20515 20505 20516 20492 20400 20350 20363 20389 20446 20490 20569 20638 20646 20650 20649 20619 20623 20638 20650 20648 20639 20629 20607 20601 20586 20575 20579 20593 20546 20492 20491 20522 20556 20573 20591 20621 20634 20631 20639 20621 20588 20570 20581 20591 20589 20567 20568 20576 20558 20538 20531 20527 20502 20433 20428 20441 20491 20533 20583 20676 20740 20777 20774 20727 20658 20626 20627 20660 20640 20625 20619 20614 20607 20588 20596 20606 20554 20480 20459 20482 20475 20523 20564 20644 20698 20709 20706 20676 20647 20635 20648 20649 20642 20613 20580 20575 20548 20530 20524 20523 20482 20421 20400 20415 20429 20470 20513 20560 20546 20554 20559 20536 20497 20489 20499 20489 20468 20456 20446 20426 20409 20401 20386 20382 20309 20247 20227 20230 20241 20272 20330 20399 20435 20471 20500 20504 20493 20469 20460 20445 20427 20375 20375 20369 20342 20349 20330 20339 20307 20251 20244 20245 20217 20218 20242 20273 20302 20335 20352 20358 20356 20382 20419 20435 20432 20408 20392 20360 20337 20335 20321 20307 20261 20213 20218 20238 20279 20293 20333 20366 20384 20390 20356 20310 20279 20273 20276 20279 20263 20257 20240 20217 20207 20216 20220 20204 20114 20070 20075 20096 20139 20210 20268 20346 20372 20407 20420 20413 20414 20451 20463 20452 20424 20388 20382 20377 20358 20337 20365 20348 20292 20250 20257 20278 20329 20363 20421 20460 20463 20468 20463 20431 20419 20430 20434 20447 20441 20440 20434 20441 20441 20430 20398 20348 20287 20274 20285 20300 20338 20408 20447 20513 20566 20574 20548 20510 20497 20488 20467 20453 20435 20408 20401 20372 20366 20383 20387 20336 20290 20289 20312 20344 20347 20380 20424 20449 20462 20465 20459 20439 20434 20434 20429 20403 20400 20406 20378 20341 20318 20331 20296 20225 20195 20209 20237 20256 20285 20352 20406 20420 20432 20397 20357 20336 20325 20331 20340 20300 20296 20292 20273 20271 20263 20255 20230 20173 20144 20137 20205 20277 20337 20390 20390 20389 20383 20346 20330 20314 20326 20340 20348 20317 20289 20263 20225 20218 20216 20192 20150 20101 20100 20114 20137 20173 20213 20250 20255 20261 20233 20180 20147 20136 20153 20163 20135 20113 20121 20110 20097 20108 20098 20093 20031 19970 19953 19970 19969 20023 20077 20134 20151 20136 20110 20116 20144 20177 20243 20257 20239 20206 20180 20151 20145 20138 20132 20094 20059 20053 20067 20087 20117 20149 20170 20174 20159 20160 20148 20152 20137 20164 20172 20135 20118 20128 20125 20131 20115 20114 20072 20019 19993 20005 20046 20087 20125 20230 20257 20270 20276 20220 20148 20154 20152 20239 20297 20379 20528 20622 20722 20787 20759 20630 20595 20629 20647 20681 20713 20769 20792 20770 20773 20781 20782 20751 20753 20770 20776 20766 20742 20720 20710 20692 20662 20657 20658 20636 20560 20508 20521 20552 20544 20606 20675 20713 20735 20731 20711 20687 20657 20629 20629 20627 20605 20597 20593 20592 20565 20561 20566 20521 20464 20452 20463 20482 20510 20570 20633 20669 20699 20677 20670 20633 20628 20605 20632 20624 20603 20584 20554 20511 20492 20470 20475 20444 20364 20336 20333 20367 20389 20438 20495 20529 20553 20537 20502 20441 20415 20400 20401 20399 20397 20391 20360 20356 20317 20307 20324 20263 20164 20105 20102 20131 20149 20186 20215 20232 20254 20246 20225 20214 20228 20210 20193 20135 20086 20051 20048 20043 20036 20034 20042 19982 19907 19884 19909 19925 19887 19890 19923 19954 19985 19997 19959 19932 19926 19940 19958 19957 19935 19917 19903 19857 19833 19815 19786 19733 19677 19655 19683 19740 19745 19782 19868 19923 19939 19923 19897 19838 19832 19845 19856 19850 19816 19799 19830 19865 19885 19883 19867 19801 19724 19683 19677 19686 19710 19770 19875 19947 19972 19993 19944 19934 19950 19975 19959 19920 19879 19873 19886 19898 19897 19882 19859 19789 19780 19794 19832 19842 19862 19904 19967 20028 20044 20018 20019 19995 20021 20038 20024 20001 19993 19989 20020 19992 19970 19958 19945 19828 19826 19847 19895 19927 19973 20014 20042 20083 20116 20120 20073 20049 20027 20029 20020 19999 19988 20000 19991 19974 19973 19978 19984 19896 19876 19868 19885 19924 19943 19983 20048 20115 20133 20125 20103 20090 20080 20089 20070 20056 20040 20035 20029 20035 20031 20045 20047 19978 19928 19928 19953 19999 20041 20106 20173 20208 20210 20203 20177 20143 20124 20116 20116 20100 20087 20078 20097 20110 20107 20118 20106 20058 19981 19947 19958 19999 20010 20072 20111 20149 20155 20150 20131 20120 20134 20144 20127 20117 20093 20093 20077 20077 20083 20090 20101 20022 19991 20003 20041 20083 20113 20139 20216 20286 20341 20390 20353 20339 20335 20348 20359 20361 20348 20390 20428 20463 20452 20423 20392 20314 20277 20314 20357 20393 20436 20480 20525 20559 20580 20550 20537 20503 20514 20540 20533 20539 20548 20565 20607 20638 20609 20613 20590 20487 20445 20457 20472 20473 20476 20524 20567 20602 20607 20586 20579 20528 20552 20550 20560 20551 20547 20551 20542 20516 20495 20483 20443 20335 20324 20353 20388 20417 20441 20490 20519 20530 20543 20513 20476 20419 20410 20402 20385 20379 20350 20339 20348 20325 20318 20321 20272 20228 20230 20249 20257 20244 20233 20291 20308 20317 20303 20271 20253 20261 20282 20311 20292 20288 20266 20266 20230 20210 20204 20182 20088 20068 20097 20149 20174 20191 20227 20257 20293 20312 20263 20243 20211 20202 20225 20206 20198 20186 20174 20178 20146 20156 20174 20117 20065 20062 20086 20114 20127 20174 20232 20282 20302 20337 20346 20341 20367 20401 20437 20445 20407 20418 20398 20383 20362 20359 20334 20254 20233 20260 20303 20336 20382 20408 20452 20464 20495 20473 20439 20417 20408 20391 20391 20380 20379 20381 20400 20412 20430 20444 20407 20358 20319 20325 20325 20336 20370 20399 20456 20514 20553 20578 20557 20578 20601 20609 20606 20604 20605 20597 20589 20598 20589 20581 20551 20492 20476 20495 20518 20530 20557 20605 20652 20706 20744 20720 20671 20639 20625 20625 20627 20613 20591 20615 20616 20616 20615 20628 20611 20540 20490 20475 20482 20491 20497 20540 20569 20635 20664 20692 20671 20644 20652 20661 20654 20638 20605 20549 20535 20529 20530 20508 20515 20470 20411 20390 20417 20419 20462 20471 20467 20496 20523 20542 20521 20480 20465 20453 20452 20439 20412 20375 20354 20334 20326 20324 20353 20329 20246 20171 20159 20177 20219 20221 20234 20259 20345 20455 20540 20588 20636 20665 20679 20657 20609 20552 20532 20527 20549 20554 20548 20579 20581 20511 20458 20456 20476 20449 20417 20422 20471 20541 20595 20644 20662 20660 20639 20678 20696 20682 20663 20668 20682 20674 20653 20656 20645 20607 20537 20519 20541 20554 20574 20567 20616 20669 20736 20774 20757 20722 20702 20695 20699 20688 20670 20652 20658 20657 20671 20689 20722 20729 20672 20608 20596 20605 20627 20623 20629 20650 20740 20760 20780 20772 20730 20730 20727 20745 20727 20696 20685 20674 20670 20713 20721 20710 20678 20637 20625 20660 20684 20705 20735 20744 20783 20805 20824 20776 20750 20748 20730 20745 20725 20711 20687 20698 20683 20710 20725 20744 20677 20585 20539 20533 20558 20564 20588 20646 20731 20864 21031 21204 21219 21195 21166 21167 21164 21131 21124 21121 21134 21152 21168 21186 21224 21202 21126 21058 21047 21074 21055 21035 21060 21131 21211 21296 21362 21420 21362 21344 21346 21356 21361 21361 21357 21371 21386 21430 21474 21489 21489 21410 21325 21297 21290 21303 21304 21316 21344 21425 21513 21598 21673 21641 21578 21544 21538 21520 21534 21525 21530 21501 21467 21468 21566 21572 21514 21487 21422 21379 21333 21316 21305 21330 21461 21518 21596 21619 21603 21582 21533 21441 21363 21334 21332 21389 21417 21423 21575 21583 21556 21550 21560 21566 21545 21467 21443 21552 21681 21784 21917 21955 21926 21898 21868 21862 21834 21799 21803 21827 21847 21850 21865 21883 21918 21870 21789 21780 21779 21781 21760 21765 21792 21878 21954 22023 22030 21968 21931 21889 21882 21863 21865 21856 21853 21832 21843 21824 21841 21878 21852 21758 21684 21637 21632 21611 21608 21617 21657 21753 21834 21885 21852 21821 21807 21811 21827 21811 21795 21762 21757 21729 21725 21722 21741 21742 21670 21607 21584 21604 21613 21596 21572 21593 21639 21671 21683 21652 21622 21602 21577 21563 21533 21503 21480 21459 21439 21389 21390 21366 21291 21215 21223 21260 21251 21247 21241 21264 21311 21355 21363 21380 21377 21371 21366 21340 21343 21315 21289 21291 21250 21215 21230 21214 21151 21155 21129 21090 21073 21125 21223 21365 21519 21594 21701 21869 21897 21922 21941 21961 22110 22265 22421 22600 22772 22907 23051 23166 23281 23376 23473 23558 23635 23702 23763 23854 23920 23983 24048 24104 24190 24247 24320 24369 24420 24467 24518 24559 24608 24690 24705 24761 24824 24868 24928 24979 25026 25071 25127 25183 25232 25278 25311 25354 25400 25433 25481 25502 25516 25533 25584 25607 25635 25660 25700 25770 26022 26267 26373 26464 26529 26608 26686 26771 26847 26932 27010 27123 27276 27467 27661 27789 27902 27960 27983 28110 28187 28263 28316 28340 28359 28383 28393 28404 28367 28365 28312 28306 28266 28226 28167 28055 27864 27740 27519 27286 27144 27039 26907 26780 26602 26483 26337 26240 26158 26064 25966 25858 25762 25671 25520 25435 25345 25229 25130 25059 24995 24948 24885 24826 24747 24683 24688 24615 24575 24410 24179 24058 23992 23934 23867 23805 23752 23735 23723 23719 23761 23768 23786 23812 23770 23675 23591 23491 23439 23457 23456 23438 23429 23401 23314 23285 23281 23307 23268 23191 23149 23112 23075 23076 23090 23138 23199 23257 23333 23362 23352 23303 23260 23282 23297 23280 23250 23213 23180 23126 23123 23169 23223 23204 23153 23145 23168 23178 23214 23233 23232 23274 23314 23361 23387 23377 23363 23363 23359 23359 23391 23394 23375 23392 23383 23383 23418 23437 23394 23329 23321 23310 23331 23341 23370 23415 23479 23542 23600 23622 23597 23538 23504 23502 23472 23472 23472 23478 23467 23478 23494 23523 23538 23488 23433 23385 23367 23364 23352 23366 23375 23465 23504 23558 23540 23531 23484 23479 23473 23480 23464 23417 23396 23337 23309 23299 23309 23316 23282 23204 23152 23145 23163 23191 23233 23256 23270 23283 23273 23278 23231 23193 23153 23136 23158 23132 23102 23105 23062 23067 23085 23102 23082 22963 22857 22820 22815 22841 22878 22914 22955 22987 23033 23056 23084 23021 22956 22924 22904 22880 22843 22822 22803 22802 22791 22783 22800 22815 22751 22679 22679 22686 22668 22659 22662 22671 22724 22764 22818 22834 22811 22767 22739 22712 22727 22724 22722 22723 22687 22669 22654 22670 22651 22578 22502 22477 22494 22512 22545 22607 22666 22724 22776 22795 22822 22764 22716 22687 22706 22726 22711 22692 22685 22693 22719 22694 22737 22735 22676 22562 22518 22508 22528 22537 22596 22635 22655 22694 22726 22736 22732 22703 22663 22625 22591 22552 22528 22519 22527 22552 22549 22542 22539 22512 22424 22411 22425 22436 22424 22442 22470 22519 22576 22622 22631 22594 22550 22519 22498 22492 22511 22520 22519 22554 22599 22609 22574 22494 22426 22417 22407 22455 22494 22567 22582 22602 22657 22704 22697 22693 22623 22572 22542 22515 22489 22453 22465 22507 22545 22562 22556 22552 22502 22411 22354 22295 22294 22268 22259 22282 22337 22402 22473 22521 22525 22481 22441 22428 22410 22381 22347 22334 22304 22339 22448 22475 22500 22486 22452 22336 22321 22354 22374 22419 22450 22487 22528 22622 22686 22740 22802 22853 22894 22906 22872 22908 22958 22996 22989 22974 22984 22978 22947 22922 22845 22759 22722 22696 22678 22680 22706 22734 22785 22855 22957 23028 23112 23112 23112 23062 23056 23008 22967 22976 22969 22982 23025 23039 23086 23126 23131 23018 22965 22931 22914 22898 22894 22889 22941 23008 23059 23116 23144 23133 23121 23065 23017 22959 22931 22919 22907 22934 22928 22913 22929 22935 22919 22855 22781 22797 22786 22751 22732 22738 22740 22764 22822 22897 22957 22986 22947 22896 22846 22846 22832 22826 22796 22757 22728 22662 22608 22566 22582 22632 22619 22533 22458 22459 22498 22497 22487 22468 22447 22444 22481 22523 22534 22524 22436 22411 22383 22396 22412 22414 22389 22394 22397 22374 22310 22279 22307 22262 22174 22100 22115 22112 22106 22088 22103 22129 22218 22285 22391 22465 22511 22515 22462 22418 22389 22398 22415 22426 22412 22441 22447 22463 22482 22512 22522 22481 22417 22354 22270 22294 22296 22299 22292 22330 22364 22437 22496 22594 22683 22776 22783 22778 22737 22679 22664 22659 22692 22700 22704 22718 22738 22761 22773 22794 22817 22793 22693 22640 22601 22601 22603 22636 22650 22680 22740 22821 22894 22981 23042 23050 22995 22906 22871 22867 22895 22895 22879 22895 22901 22897 22893 22901 22899 22917 22909 22858 22788 22750 22726 22678 22674 22684 22711 22766 22801 22845 22905 22947 22987 22994 22944 22878 22800 22784 22795 22776 22756 22731 22708 22713 22709 22721 22723 22742 22717 22665 22603 22524 22458 22396 22366 22360 22326 22351 22372 22482 22593 22720 22818 22878 22907 22882 22824 22768 22724 22684 22717 22722 22727 22762 22744 22740 22725 22753 22761 22752 22706 22625 22547 22493 22442 22405 22382 22390 22446 22508 22570 22626 22730 22843 22923 22952 22913 22822 22747 22695 22675 22682 22665 22651 22652 22638 22610 22594 22618 22646 22619 22586 22546 22477 22420 22372 22338 22310 22316 22346 22434 22521 22620 22686 22785 22859 22891 22894 22842 22806 22772 22784 22802 22807 22818 22820 22837 22861 22846 22854 22818 22787 22743 22712 22704 22630 22586 22555 22573 22613 22661 22766 22854 22938 22970 22995 22965 22926 22853 22816 22794 22824 22818 22817 22804 22815 22803 22792 22795 22813 22808 22761 22695 22595 22618 22606 22575 22561 22591 22614 22672 22705 22761 22813 22874 22906 22883 22815 22770 22781 22796 22798 22772 22753 22738 22726 22725 22735 22734 22729 22701 22637 22574 22559 22594 22571 22563 22564 22559 22581 22623 22674 22768 22870 22943 22968 22888 22823 22822 22833 22850 22871 22904 22874 22836 22811 22769 22782 22773 22745 22639 22618 22635 22667 22670 22688 22710 22737 22779 22850 22909 22946 22929 22887 22851 22839 22829 22826 22800 22811 22821 22844 22841 22853 22877 22873 22850 22751 22640 22628 22610 22618 22607 22634 22694 22742 22808 22915 23031 23134 23219 23192 23154 23102 23052 23025 22983 22989 22977 22975 22987 22988 22967 22979 22982 22964 22918 22801 22784 22768 22739 22689 22693 22723 22779 22837 22888 22952 23005 23021 22939 22909 22868 22824 22783 22763 22749 22716 22717 22687 22642 22617 22612 22623 22597 22538 22462 22459 22433 22419 22366 22374 22417 22473 22550 22616 22762 22859 22907 22880 22804 22776 22773 22769 22742 22713 22703 22696 22679 22666 22644 22649 22666 22663 22620 22562 22495 22483 22507 22516 22510 22482 22512 22559 22601 22678 22766 22836 22850 22830 22778 22751 22771 22781 22812 22807 22797 22775 22749 22716 22679 22681 22713 22679 22656 22629 22602 22590 22609 22601 22633 22684 22694 22693 22721 22771 22844 22853 22851 22818 22752 22725 22733 22801 22822 22819 22826 22796 22759 22720 22675 22652 22660 22637 22594 22542 22509 22486 22485 22476 22495 22539 22596 22651 22694 22753 22830 22942 22997 23001 22971 22909 22890 22878 22889 22896 22908 22917 22914 22891 22809 22779 22814 22823 22786 22746 22694 22675 22647 22634 22608 22602 22647 22695 22753 22796 22845 22911 22997 23051 23051 22994 22946 22894 22896 22930 22932 22927 22945 22948 22923 22898 22880 22889 22876 22829 22782 22712 22677 22671 22639 22602 22549 22556 22639 22701 22728 22759 22814 22840 22824 22791 22717 22643 22618 22618 22572 22607 22573 22547 22495 22488 22530 22580 22571 22508 22410 22335 22277 22241 22223 22199 22175 22209 22266 22361 22455 22570 22677 22760 22827 22790 22732 22632 22545 22529 22545 22495 22480 22431 22380 22325 22296 22316 22377 22396 22362 22258 22164 22108 22063 21996 21974 21958 21943 21950 22016 22098 22154 22233 22309 22333 22315 22235 22160 22115 22141 22155 22128 22084 22049 22005 21965 21930 21906 21958 21981 21982 21934 21886 21827 21771 21744 21702 21671 21695 21753 21859 21913 21937 21938 21953 21896 21831 21792 21773 21806 21806 21771 21707 21659 21634 21622 21633 21648 21683 21727 21693 21648 21554 21517 21497 21497 21516 21553 21623 21774 21895 21992 22046 22055 21970 21907 21842 21858 21882 21887 21872 21861 21844 21829 21817 21792 21773 21767 21731 21651 21602 21544 21540 21535 21548 21560 21601 21683 21768 21892 22042 22185 22276 22267 22247 22233 22239 22270 22300 22350 22356 22358 22340 22346 22324 22312 22325 22353 22291 22222 22136 22096 22057 22060 22033 22070 22119 22196 22270 22360 22465 22545 22598 22600 22569 22518 22478 22428 22418 22418 22418 22431 22451 22475 22452 22462 22480 22472 22451 22406 22362 22354 22362 22342 22377 22410 22456 22536 22632 22750 22828 22909 22950 22937 22890 22814 22820 22843 22892 22865 22841 22818 22785 22756 22755 22770 22778 22760 22708 22673 22639 22654 22678 22691 22717 22802 22861 22972 23074 23206 23351 23448 23472 23469 23379 23332 23339 23359 23369 23373 23396 23384 23359 23321 23308 23314 23313 23280 23235 23173 23172 23195 23203 23193 23221 23233 23283 23343 23396 23458 23511 23528 23484 23407 23378 23367 23396 23416 23406 23413 23415 23422 23441 23456 23446 23403 23335 23242 23161 23147 23109 23093 23080 23097 23133 23181 23246 23335 23426 23506 23527 23452 23325 23235 23209 23241 23241 23213 23199 23171 23143 23108 23081 23077 23155 23179 23190 23087 22974 22892 22828 22775 22782 22803 22856 22904 22995 23099 23169 23185 23171 23114 23042 23016 22974 22931 22877 22842 22806 22777 22728 22688 22675 22709 22698 22675 22615 22558 22549 22544 22541 22511 22509 22553 22613 22689 22748 22791 22799 22770 22731 22701 22691 22723 22745 22715 22626 22552 22497 22428 22356 22330 22337 22346 22339 22302 22212 22219 22259 22283 22298 22286 22272 22283 22316 22412 22482 22537 22560 22559 22572 22551 22586 22601 22629 22630 22611 22617 22588 22534 22450 22449 22460 22431 22404 22346 22318 22335 22349 22330 22326 22341 22390 22487 22565 22651 22721 22709 22681 22671 22666 22677 22686 22704 22735 22759 22737 22739 22710 22695 22706 22718 22686 22613 22536 22510 22501 22525 22520 22530 22578 22644 22726 22791 22865 22898 22868 22814 22713 22664 22626 22593 22587 22606 22637 22632 22628 22606 22588 22604 22623 22598 22532 22445 22399 22370 22370 22381 22470 22593 22650 22719 22802 22894 22915 22885 22832 22775 22738 22725 22738 22749 22758 22717 22674 22646 22592 22614 22649 22662 22645 22587 22543 22552 22577 22596 22593 22616 22685 22743 22809 22873 22911 22905 22848 22818 22790 22801 22859 22887 22884 22865 22867 22843 22771 22722 22731 22727 22725 22669 22550 22588 22624 22639 22652 22672 22727 22805 22876 22956 23019 23044 23024 22969 22925 22907 22935 22973 22974 22983 22987 22977 22990 22953 22977 22991 22978 22894 22802 22733 22737 22743 22745 22745 22784 22849 22902 22981 23085 23205 23262 23260 23206 23124 23111 23112 23100 23066 23074 23082 23075 23077 23075 23077 23083 23051 23028 22980 22931 22904 22895 22839 22841 22884 22914 22996 23059 23109 23140 23141 23096 23034 23010 22989 22995 23001 22986 22958 22931 22899 22859 22837 22838 22864 22838 22786 22734 22709 22709 22737 22735 22738 22774 22820 22876 22956 23059 23150 23187 23138 23105 23079 23050 23063 23066 23091 23103 23133 23161 23144 23114 23094 23092 23062 23013 22953 22937 22966 22994 23018 23029 23084 23144 23209 23293 23346 23377 23328 23266 23237 23226 23222 23207 23227 23223 23240 23251 23250 23249 23261 23280 23275 23199 23094 23043 23064 23078 23086 23101 23156 23211 23269 23331 23401 23442 23464 23415 23377 23332 23317 23298 23299 23297 23298 23304 23293 23243 23233 23245 23275 23239 23163 23089 23095 23101 23085 23015 22963 22985 23060 23132 23208 23322 23434 23500 23485 23421 23410 23393 23361 23272 23212 23173 23175 23129 23162 23283 23375 23404 23463 23432 23416 23438 23455 23434 23375 23299 23310 23346 23414 23470 23540 23502 23477 23431 23334 23254 23200 23168 23152 23131 23111 23053 22984 22973 22983 22956 22871 22821 22840 22896 22924 22909 22896 22915 22970 23049 23107 23140 23119 23077 23018 22988 22954 22935 22913 22966 22962 22972 22986 22990 22982 22991 22947 22877 22780 22760 22779 22799 22836 22845 22902 23008 23103 23233 23393 23531 23573 23574 23516 23462 23422 23371 23334 23331 23313 23332 23355 23368 23393 23426 23447 23387 23282 23220 23221 23205 23225 23249 23307 23382 23444 23537 23641 23755 23829 23825 23770 23700 23637 23591 23517 23531 23512 23567 23581 23570 23583 23565 23543 23482 23439 23407 23424 23419 23427 23428 23414 23413 23443 23482 23555 23680 23795 23866 23876 23808 23763 23641 23594 23563 23512 23508 23539 23585 23665 23771 23804 23796 23761 23666 23656 23678 23677 23677 23677 23676 23708 23750 23812 23909 23931 23913 23863 23793 23707 23605 23524 23423 23360 23296 23230 23138 23088 23078 23067 22978 22913 22858 22835 22855 22882 22854 22839 22860 22917 22982 23074 23141 23137 23113 23088 23051 23024 23017 23027 23026 22985 23044 23084 23108 23109 23109 23074 22984 22934 22956 22983 23026 23033 23012 23047 23072 23123 23175 23253 23293 23239 23212 23185 23156 23117 23108 23129 23111 23150 23232 23262 23292 23301 23295 23248 23149 23124 23162 23237 23289 23289 23310 23351 23382 23476 23542 23592 23622 23620 23587 23558 23497 23446 23435 23467 23491 23530 23591 23605 23630 23652 23619 23555 23476 23465 23459 23495 23547 23564 23601 23625 23668 23721 23801 23875 23874 23814 23747 23698 23645 23603 23588 23584 23599 23608 23616 23592 23617 23603 23589 23572 23521 23398 23326 23319 23324 23303 23314 23308 23347 23396 23437 23487 23499 23421 23357 23288 23219 23167 23110 23085 23034 23019 23005 22984 22971 22966 22952 22876 22778 22739 22741 22768 22727 22693 22705 22769 22852 22992 23138 23263 23295 23253 23213 23177 23131 23097 23097 23089 23054 23032 23048 23032 23085 23118 23095 23023 22938 22939 23004 23024 23022 23091 23170 23217 23286 23363 23477 23604 23665 23638 23613 23592 23538 23498 23507 23493 23525 23528 23594 23632 23657 23643 23599 23554 23434 23427 23430 23462 23515 23590 23666 23750 23883 24012 24107 24188 24174 24106 24009 23925 23873 23863 23869 23867 23848 23828 23767 23784 23796 23804 23780 23710 23698 23745 23745 23745 23742 23715 23769 23836 23880 23908 23969 23977 23942 23882 23826 23792 23765 23776 23743 23715 23705 23666 23654 23675 23674 23661 23599 23524 23477 23469 23431 23363 23295 23299 23347 23360 23405 23429 23480 23473 23423 23367 23322 23278 23290 23306 23285 23299 23290 23269 23244 23233 23207 23132 23069 23059 23088 23109 23108 23115 23163 23196 23251 23317 23381 23436 23450 23388 23320 23264 23231 23224 23199 23207 23220 23223 23253 23232 23249 23258 23244 23183 23116 23069 23094 23098 23099 23097 23090 23145 23169 23228 23332 23434 23476 23414 23361 23344 23287 23274 23276 23246 23255 23293 23315 23328 23291 23320 23339 23272 23142 23140 23172 23192 23180 23181 23211 23254 23285 23402 23556 23696 23777 23759 23758 23758 23723 23685 23690 23704 23696 23696 23719 23702 23656 23645 23654 23673 23626 23512 23529 23603 23669 23693 23623 23601 23593 23609 23664 23764 23884 23958 23978 23966 23961 23897 23917 23880 23863 23815 23751 23751 23698 23678 23672 23685 23659 23582 23506 23519 23497 23505 23530 23512 23465 23427 23464 23576 23672 23739 23760 23706 23627 23537 23494 23432 23420 23386 23360 23377 23335 23295 23289 23230 23188 23066 23065 23076 23074 23071 23050 23096 23123 23177 23342 23539 23750 23927 24044 24079 24032 24000 23974 23910 23857 23765 23756 23824 23811 23830 23783 23756 23603 23506 23437 23406 23441 23466 23459 23522 23599 23630 23787 23949 24067 24140 24177 24128 24012 23903 23811 23794 23784 23732 23733 23777 23767 23821 23789 23763 23672 23578 23556 23554 23527 23542 23542 23590 23594 23656 23790 23916 24049 24136 24172 24169 24166 24109 24041 23925 23883 23884 23901 23921 23922 23929 23921 23935 23919 23839 23855 23871 23847 23816 23805 23808 23809 23849 23956 24046 24153 24211 24169 24138 24054 24007 24026 23968 23912 23844 23823 23823 23767 23792 23829 23847 23795 23743 23742 23733 23760 23771 23746 23702 23777 23837 23969 24128 24292 24376 24387 24372 24343 24235 24186 24136 24097 24066 23980 23902 23825 23810 23812 23723 23508 23406 23361 23344 23325 23316 23322 23384 23376 23417 23523 23590 23666 23721 23722 23668 23625 23546 23484 23445 23469 23448 23424 23478 23467 23468 23430 23368 23278 23187 23180 23191 23227 23253 23233 23266 23345 23413 23636 23871 24048 24217 24333 24420 24452 24468 24444 24378 24332 24296 24190 24153 24210 24207 24114 24081 24042 24017 24051 24031 24001 23996 23991 24014 24145 24273 24421 24675 24859 24991 25102 25183 25167 25180 25176 25137 25135 25103 25102 25077 25094 25182 25133 25127 25082 25000 24956 24890 24889 24853 24796 24734 24751 24723 24788 24818 24855 24960 25054 25120 25184 25143 25175 25126 25061 25029 25019 24960 24911 24912 25009 25087 25144 25139 25125 25048 25033 24987 24924 24895 24868 24879 24906 25020 25017 25080 25182 25265 25292 25268 25195 25049 24946 24893 24817 24776 24733 24708 24681 24653 24639 24655 24647 24539 24427 24392 24399 24435 24373 24402 24451 24477 24448 24520 24589 24644 24701 24722 24696 24610 24472 24348 24312 24258 24177 24124 24098 24074 24034 24042 24023 23990 23907 23842 23795 23743 23701 23641 23613 23669 23726 23795 23933 24061 24138 24164 24135 24082 23946 23809 23700 23623 23548 23468 23466 23468 23455 23469 23464 23407 23318 23219 23189 23150 23093 23043 23028 23091 23106 23183 23334 23479 23592 23635 23568 23500 23393 23305 23222 23139 23044 23011 22963 22970 22909 22900 22914 22879 22790 22696 22690 22721 22758 22744 22688 22682 22719 22775 22863 23019 23137 23185 23138 23147 23086 23018 22957 22969 22970 22959 22965 22980 22955 22965 22974 22975 22898 22809 22769 22786 22814 22824 22848 22892 22959 23064 23230 23488 23725 23884 23913 23943 23923 23877 23800 23722 23733 23757 23739 23717 23620 23574 23566 23555 23495 23394 23359 23380 23421 23431 23435 23456 23528 23570 23609 23676 23752 23813 23803 23746 23706 23642 23578 23538 23541 23574 23566 23607 23586 23561 23531 23477 23366 23283 23310 23343 23285 23240 23285 23390 23456 23523 23647 23807 23970 24069 24040 23980 23886 23768 23705 23652 23678 23694 23703 23750 23758 23773 23777 23697 23550 23423 23387 23387 23411 23409 23399 23403 23435 23512 23614 23747 23824 23783 23679 23558 23419 23299 23296 23322 23281 23262 23257 23247 23250 23291 23310 23260 23135 23040 22998 22982 22987 22967 23003 23075 23178 23294 23493 23643 23728 23695 23609 23503 23399 23316 23279 23310 23306 23293 23296 23274 23243 23248 23253 23216 23154 23045 23019 23015 22990 22970 22967 23043 23159 23229 23327 23419 23472 23456 23424 23390 23319 23250 23217 23226 23254 23255 23246 23264 23229 23232 23254 23226 23185 23096 23083 23079 23098 23076 23077 23120 23213 23300 23413 23524 23634 23690 23644 23606 23534 23470 23422 23384 23380 23372 23333 23344 23303 23277 23287 23263 23189 23134 23120 23141 23123 23053 22993 23026 23109 23168 23273 23374 23434 23450 23377 23315 23285 23231 23209 23190 23175 23148 23092 23044 22999 22996 23007 22958 22850 22764 22747 22743 22760 22743 22731 22755 22786 22853 22956 23028 23077 23050 23036 22935 22888 22861 22888 22894 22869 22846 22797 22730 22733 22731 22698 22601 22527 22504 22484 22490 22489 22465 22408 22349 22299 22333 22436 22573 22732 22921 23072 23261 23602 23671 23717 23754 23815 23937 24019 24139 24250 24381 24519 24623 24728 24830 24900 24972 25064 25149 25226 25316 25368 25452 25502 25576 25623 25638 25671 25691 25714 25796 25867 25939 26033 26090 26140 26183 26214 26240 26271 26278 26281 26282 26288 26292 26313 26296 26327 26340 26361 26314 26261 26210 26159 26107 26060 26033 25992 25961 25915 25838 25781 25679 25597 25463 25353 25319 25271 25250 25241 25240 25238 25226 25215 25222 25273 25277 25232 25115 25019 24917 24789 24677 24582 24549 24472 24370 24305 24258 24230 24167 24060 23966 23916 23852 23800 23803 23854 23890 23892 23909 23936 23947 23862 23781 23670 23563 23496 23473 23423 23362 23330 23236 23208 23199 23215 23199 23113 23043 22963 22928 22863 22863 22944 23075 23152 23247 23301 23339 23291 23236 23152 23093 23012 23007 22973 22926 22895 22864 22810 22801 22827 22821 22771 22701 22688 22711 22712 22703 22728 22829 22926 23002 23074 23174 23229 23160 23100 23050 23039 23032 23066 23064 23028 23014 22997 22958 22946 22964 22943 22886 22832 22809 22816 22843 22881 22883 22933 22970 23042 23078 23127 23111 23076 23046 23017 23008 22996 22995 22981 22986 22912 22883 22881 22869 22844 22767 22708 22695 22720 22767 22823 22882 22939 22985 23027 23062 23078 23052 23003 22974 22961 22941 22929 22915 22913 22883 22875 22859 22829 22842 22795 22712 22626 22603 22622 22645 22687 22692 22709 22755 22824 22878 22921 22870 22831 22778 22755 22724 22710 22731 22715 22709 22687 22662 22655 22641 22595 22498 22445 22409 22375 22361 22378 22417 22494 22556 22618 22664 22658 22619 22602 22583 22539 22475 22456 22415 22368 22348 22323 22327 22317 22303 22210 22114 22088 22093 22100 22069 22075 22101 22170 22245 22301 22332 22314 22266 22237 22237 22241 22240 22244 22236 22216 22200 22213 22216 22215 22158 22058 22021 22015 22011 22052 22060 22110 22175 22267 22355 22460 22563 22579 22563 22555 22551 22555 22572 22605 22627 22638 22673 22692 22700 22685 22637 22556 22533 22546 22559 22576 22617 22684 22765 22845 22931 22961 23010 22964 22939 22896 22874 22881 22875 22905 22928 22959 22971 22995 23031 23051 23017 22921 22836 22843 22872 22894 22914 22961 23029 23059 23124 23173 23219 23247 23224 23162 23124 23110 23137 23180 23196 23231 23290 23329 23346 23381 23401 23376 23269 23254 23241 23252 23256 23311 23358 23363 23412 23456 23474 23489 23420 23382 23329 23306 23294 23280 23250 23234 23246 23248 23280 23278 23273 23245 23121 23042 22994 22985 22982 22991 23005 23030 23038 23062 23105 23152 23153 23093 23029 22957 22937 22923 22932 22963 22958 22960 22934 22917 22894 22883 22804 22658 22604 22579 22569 22557 22577 22615 22662 22712 22792 22801 22780 22738 22649 22575 22513 22430 22386 22400 22439 22480 22506 22579 22656 22699 22678 22508 22401 22389 22393 22414 22433 22480 22539 22611 22678 22756 22818 22834 22764 22690 22580 22546 22640 22672 22663 22670 22688 22684 22748 22806 22787 22710 22615 22625 22624 22625 22645 22709 22746 22805 22907 22942 22963 22919 22863 22824 22797 22814 22819 22856 22870 22882 22911 22931 22938 22950 22961 22891 22809 22766 22786 22787 22830 22881 22927 22983 23033 23096 23119 23114 23048 23018 23009 22978 22947 22957 22983 23040 23067 23085 23095 23107 23116 23035 22911 22886 22882 22895 22902 22944 22976 23042 23138 23184 23181 23147 23071 23008 22988 23030 23066 23053 23086 23096 23112 23132 23159 23151 23118 23018 22952 22923 22934 22936 22942 22957 22995 23046 23112 23164 23175 23150 23063 22992 22957 22962 23007 23023 23000 23027 23060 23054 23028 23015 22980 22910 22746 22698 22684 22699 22713 22746 22781 22859 22922 22983 23066 23100 23083 23000 22913 22864 22866 22870 22885 22911 22930 22981 23039 23078 23077 23044 22977 22796 22713 22701 22695 22694 22750 22798 22812 22882 22934 22986 22999 22949 22911 22874 22818 22788 22760 22792 22814 22878 22914 22959 22998 22985 22896 22798 22782 22766 22769 22764 22787 22797 22847 22940 22951 22980 22939 22901 22827 22806 22786 22803 22856 22891 22913 22936 22979 22988 22999 22941 22822 22742 22735 22746 22759 22824 22905 22925 22979 23032 23032 23018 22977 22879 22782 22753 22785 22852 22875 22878 22916 22914 22947 22940 22942 22896 22766 22697 22669 22666 22660 22679 22705 22737 22789 22859 22857 22850 22790 22771 22728 22692 22657 22656 22653 22662 22660 22694 22721 22747 22775 22707 22566 22524 22532 22541 22540 22560 22569 22598 22644 22691 22710 22730 22740 22676 22601 22594 22633 22667 22700 22758 22820 22910 22964 22971 22954 22879 22717 22642 22606 22594 22617 22629 22664 22713 22763 22830 22848 22867 22849 22791 22751 22722 22719 22707 22734 22725 22726 22757 22765 22790 22814 22781 22697 22558 22535 22517 22515 22535 22594 22660 22710 22783 22867 22913 22969 22950 22910 22864 22821 22791 22803 22810 22839 22919 23000 23078 23112 23086 23009 22939 22965 23007 23049 23086 23125 23172 23272 23341 23395 23412 23352 23292 23213 23161 23146 23127 23130 23136 23122 23106 23089 23071 23048 22994 22867 22772 22790 22810 22817 22842 22897 22978 23041 23090 23108 23107 23066 23017 22949 22940 22904 22910 22908 22911 22909 22888 22917 22871 22870 22841 22754 22607 22552 22563 22562 22593 22640 22679 22714 22780 22806 22785 22736 22710 22686 22663 22656 22587 22570 22555 22561 22570 22536 22547 22542 22489 22399 22379 22365 22372 22383 22395 22452 22509 22574 22577 22573 22522 22500 22474 22462 22436 22420 22431 22435 22432 22434 22395 22361 22343 22312 22227 22161 22147 22154 22173 22227 22300 22402 22447 22509 22558 22529 22472 22432 22408 22420 22405 22401 22402 22409 22409 22403 22398 22405 22401 22334 22213 22141 22149 22153 22173 22227 22315 22373 22449 22510 22526 22522 22498 22469 22455 22441 22420 22423 22404 22419 22434 22480 22455 22452 22397 22314 22267 22261 22274 22299 22314 22378 22445 22479 22526 22536 22544 22477 22420 22376 22380 22390 22409 22413 22423 22414 22387 22349 22340 22322 22267 22175 22139 22125 22142 22163 22208 22263 22323 22372 22398 22412 22370 22318 22266 22234 22214 22197 22221 22218 22208 22211 22226 22225 22224 22202 22116 21971 21904 21886 21901 21918 21935 22001 22078 22155 22234 22310 22353 22364 22330 22271 22223 22209 22235 22221 22231 22239 22265 22263 22265 22232 22148 22048 22029 22046 22055 22054 22072 22129 22197 22279 22341 22345 22330 22312 22283 22296 22276 22264 22266 22257 22254 22268 22304 22315 22284 22205 22099 22090 22092 22117 22149 22203 22282 22315 22401 22458 22514 22535 22519 22483 22458 22435 22465 22513 22514 22543 22566 22583 22595 22595 22546 22457 22314 22281 22297 22291 22310 22365 22452 22530 22591 22640 22659 22641 22614 22569 22548 22507 22465 22468 22474 22474 22484 22478 22450 22450 22396 22293 22268 22275 22236 22206 22169 22179 22205 22282 22321 22294 22240 22190 22180 22148 22113 22061 22046 22000 21957 21900 21868 21834 21794 21718 21625 21574 21561 21598 21595 21613 21643 21633 21668 21655 21632 21621 21546 21522 21496 21464 21423 21400 21397 21407 21400 21379 21353 21339 21257 21121 21030 21013 21037 21030 21065 21104 21116 21159 21227 21256 21257 21211 21206 21165 21110 21072 21066 21042 21059 21091 21083 21054 21035 21003 20899 20861 20868 20912 20936 20933 20959 20967 20986 21052 21086 21093 21041 21022 21045 21047 21027 21009 21032 21036 21053 21052 21029 21008 20981 20860 20814 20839 20869 20903 20948 20967 21012 21101 21203 21259 21287 21237 21225 21230 21237 21218 21251 21322 21337 21319 21265 21289 21269 21203 21142 21121 21114 21131 21189 21256 21357 21424 21443 21464 21454 21405 21366 21368 21387 21402 21380 21359 21362 21345 21327 21318 21306 21261 21165 21133 21133 21148 21179 21244 21333 21368 21430 21483 21516 21528 21515 21470 21482 21452 21467 21487 21500 21500 21510 21496 21475 21420 21336 21223 21190 21183 21225 21252 21339 21393 21482 21517 21554 21574 21532 21504 21446 21441 21417 21387 21372 21364 21381 21384 21388 21371 21341 21275 21171 21161 21155 21145 21138 21140 21183 21230 21320 21365 21390 21371 21358 21340 21351 21343 21322 21322 21326 21346 21331 21316 21275 21228 21144 21096 21090 21111 21133 21167 21220 21305 21387 21442 21488 21509 21451 21411 21406 21414 21424 21410 21440 21455 21488 21508 21493 21487 21481 21404 21281 21238 21244 21264 21305 21350 21423 21486 21549 21586 21579 21570 21515 21508 21509 21491 21454 21413 21442 21446 21479 21456 21447 21435 21381 21307 21285 21316 21349 21368 21386 21394 21406 21463 21505 21488 21449 21447 21445 21412 21389 21413 21423 21421 21393 21365 21334 21327 21286 21186 21179 21200 21251 21285 21313 21321 21340 21438 21480 21476 21431 21407 21409 21378 21327 21312 21342 21362 21323 21294 21278 21270 21193 21137 21151 21165 21198 21255 21317 21348 21374 21407 21428 21443 21428 21383 21368 21368 21356 21347 21357 21365 21337 21333 21361 21322 21279 21169 21130 21136 21143 21179 21238 21303 21332 21390 21434 21459 21432 21378 21351 21351 21381 21342 21333 21363 21397 21449 21493 21465 21462 21370 21288 21261 21255 21266 21299 21346 21446 21495 21525 21561 21571 21526 21467 21435 21443 21444 21423 21400 21399 21427 21454 21436 21432 21400 21325 21243 21260 21291 21318 21346 21363 21379 21408 21434 21444 21436 21385 21342 21346 21339 21329 21314 21319 21350 21365 21392 21346 21302 21232 21118 21070 21072 21083 21086 21082 21119 21156 21213 21252 21272 21220 21180 21157 21206 21189 21190 21179 21208 21241 21252 21231 21215 21188 21117 21058 21071 21062 21055 21049 21075 21092 21157 21188 21193 21138 21103 21116 21129 21128 21090 21098 21121 21154 21139 21112 21087 21039 20973 20894 20920 20935 20966 20995 21086 21131 21178 21212 21234 21191 21113 21085 21087 21100 21072 21053 21034 21034 21028 21016 21038 21011 20946 20875 20848 20848 20873 20904 20971 21034 21052 21080 21077 21026 20985 20966 20958 20948 20927 20876 20862 20858 20872 20859 20867 20858 20810 20735 20736 20753 20777 20798 20805 20841 20864 20912 20915 20925 20878 20876 20866 20874 20848 20832 20859 20881 20920 20934 20954 20942 20887 20778 20703 20708 20750 20776 20806 20874 20940 21004 21085 21154 21155 21165 21156 21135 21077 21035 21031 21039 21051 21077 21071 21089 21061 20993 20954 20939 20957 20961 20974 20990 21035 21075 21120 21168 21181 21136 21129 21135 21114 21072 21042 21054 21045 21061 21086 21074 21041 20995 20886 20854 20861 20882 20908 20949 21028 21065 21117 21210 21255 21197 21174 21156 21150 21106 21094 21123 21187 21359 21494 21505 21512 21449 21353 21299 21306 21323 21332 21398 21458 21487 21509 21572 21583 21589 21535 21523 21532 21539 21505 21489 21475 21498 21528 21523 21509 21481 21424 21308 21273 21286 21279 21294 21359 21415 21427 21486 21515 21520 21487 21491 21516 21484 21449 21455 21477 21580 21641 21688 21666 21667 21640 21524 21443 21486 21520 21600 21683 21712 21746 21799 21875 21969 22036 22017 21978 21887 21886 21892 21895 21918 21965 22038 22084 22108 22111 22082 22029 21966 21910 21887 21908 21934 21996 22085 22147 22182 22236 22246 22234 22169 22100 22064 22075 22101 22114 22105 22094 22084 22076 22069 22068 22001 21880 21818 21835 21868 21925 21979 22052 22107 22157 22173 22195 22162 22115 22077 22054 22051 22032 22003 22007 22028 22046 22095 22128 22105 22041 21890 21810 21786 21799 21820 21837 21854 21888 21959 22003 22016 21979 21938 21906 21880 21836 21800 21787 21764 21750 21753 21758 21750 21707 21653 21546 21521 21510 21522 21515 21513 21553 21607 21671 21712 21759 21706 21677 21655 21659 21688 21665 21671 21678 21689 21671 21620 21601 21573 21531 21417 21388 21368 21371 21372 21396 21403 21418 21470 21545 21526 21465 21397 21362 21350 21339 21294 21287 21267 21264 21277 21244 21232 21251 21207 21082 21014 20991 20981 21001 21038 21119 21173 21255 21327 21430 21459 21464 21454 21466 21451 21422 21396 21422 21468 21526 21563 21597 21585 21545 21426 21347 21328 21336 21359 21362 21396 21457 21538 21593 21640 21615 21609 21581 21578 21572 21581 21583 21581 21598 21625 21638 21623 21614 21526 21421 21397 21407 21431 21473 21515 21578 21677 21773 21804 21819 21807 21770 21737 21725 21729 21738 21762 21757 21779 21809 21823 21829 21798 21685 21618 21607 21587 21598 21615 21672 21751 21845 21942 21993 22027 22012 21995 21947 21946 21937 21942 21948 21952 21970 21998 21995 22017 21978 21886 21803 21806 21811 21806 21806 21849 21881 21931 21996 22026 22010 21949 21954 21937 21911 21909 21918 21926 21923 21929 21946 21931 21883 21854 21756 21622 21582 21580 21564 21587 21628 21697 21772 21873 21923 21969 22029 21994 21976 21912 21879 21927 21955 21931 21937 21939 21970 21996 21996 21958 21830 21742 21705 21700 21687 21700 21715 21773 21830 21902 21920 21898 21851 21775 21699 21697 21709 21695 21663 21647 21616 21614 21619 21618 21620 21574 21445 21421 21413 21444 21450 21482 21534 21575 21619 21673 21709 21702 21672 21593 21591 21571 21598 21594 21593 21607 21591 21594 21573 21568 21597 21525 21411 21335 21348 21378 21386 21408 21452 21536 21632 21701 21746 21808 21805 21804 21771 21739 21752 21791 21810 21812 21843 21878 21912 21939 21940 21823 21668 21656 21661 21707 21754 21790 21874 21953 22035 22109 22064 22031 21984 21951 21930 21912 21927 21918 21915 21928 21920 21957 21953 21884 21755 21713 21701 21690 21653 21649 21647 21685 21804 21877 21956 21967 21976 21947 21906 21883 21911 21937 21895 21863 21857 21888 21910 21889 21804 21660 21644 21646 21663 21673 21696 21754 21791 21873 21871 21867 21862 21817 21786 21752 21750 21734 21729 21725 21747 21784 21828 21843 21830 21751 21583 21495 21479 21453 21470 21499 21520 21583 21687 21820 21933 22002 22016 21995 21928 21872 21826 21839 21854 21861 21880 21910 21952 21966 21904 21808 21768 21753 21718 21699 21708 21758 21837 21900 21970 22008 21995 21958 21939 21903 21873 21851 21847 21826 21819 21816 21816 21851 21874 21841 21768 21642 21614 21617 21630 21637 21668 21706 21773 21853 21912 21967 21994 22005 21993 21902 21887 21974 22007 21991 21984 21992 21990 21957 21966 21876 21729 21646 21646 21670 21693 21748 21774 21852 21907 21946 21985 21983 21889 21825 21768 21760 21750 21790 21773 21762 21763 21748 21751 21744 21765 21721 21568 21485 21441 21445 21445 21479 21515 21576 21654 21751 21833 21858 21847 21843 21804 21770 21717 21713 21702 21664 21659 21648 21662 21679 21697 21654 21501 21470 21443 21453 21459 21477 21531 21612 21650 21700 21783 21820 21787 21765 21731 21732 21720 21700 21701 21691 21664 21686 21695 21703 21674 21592 21517 21488 21483 21477 21483 21511 21570 21665 21776 21823 21834 21775 21734 21700 21704 21680 21653 21654 21638 21640 21678 21665 21683 21678 21599 21508 21415 21381 21418 21448 21480 21609 21688 21732 21808 21859 21883 21875 21835 21814 21769 21732 21716 21693 21690 21680 21685 21717 21706 21721 21694 21617 21516 21498 21487 21511 21555 21627 21708 21786 21857 21944 21991 22003 21980 21979 21973 21956 21952 21941 21936 21928 21918 21931 21920 21909 21896 21796 21695 21703 21731 21764 21776 21817 21847 21888 21965 22030 22113 22108 22105 22092 22076 22086 22087 22124 22151 22176 22216 22210 22207 22188 22149 22004 21950 21949 21937 21971 21978 22019 22071 22121 22182 22194 22222 22155 22077 22023 21958 21939 21934 21920 21901 21895 21902 21907 21911 21919 21868 21735 21587 21546 21508 21532 21558 21607 21652 21725 21791 21845 21908 21896 21870 21832 21768 21733 21729 21693 21682 21672 21667 21664 21682 21688 21648 21534 21459 21435 21401 21364 21336 21333 21380 21424 21480 21496 21509 21479 21403 21381 21383 21377 21393 21366 21322 21274 21253 21250 21242 21243 21209 21147 21029 20986 20962 20968 20997 21042 21093 21100 21152 21225 21246 21271 21231 21205 21191 21173 21157 21147 21158 21137 21151 21163 21174 21149 21134 21080 20958 20889 20902 20919 20944 20979 21032 21112 21230 21318 21430 21504 21527 21480 21411 21395 21424 21449 21427 21411 21406 21396 21424 21444 21452 21444 21328 21216 21193 21177 21203 21226 21285 21363 21502 21609 21702 21771 21836 21824 21790 21757 21737 21742 21735 21720 21755 21766 21753 21766 21771 21742 21648 21547 21536 21542 21533 21549 21582 21667 21725 21808 21878 21960 21969 21935 21901 21906 21948 21973 21946 21896 21859 21839 21832 21828 21833 21808 21686 21555 21500 21519 21547 21569 21587 21636 21693 21761 21821 21877 21892 21885 21864 21783 21783 21839 21876 21850 21839 21836 21851 21812 21760 21742 21656 21511 21409 21394 21393 21411 21450 21497 21597 21702 21814 21943 22039 22018 21938 21855 21838 21825 21830 21827 21865 21925 21935 21949 21949 21959 21952 21860 21725 21658 21641 21650 21654 21680 21766 21846 21941 21994 22065 22059 21988 21941 21939 21901 21853 21813 21747 21733 21729 21717 21704 21699 21687 21641 21540 21502 21495 21464 21465 21480 21537 21587 21682 21749 21808 21853 21815 21807 21788 21805 21806 21816 21788 21753 21710 21705 21684 21692 21676 21641 21542 21478 21505 21542 21568 21588 21626 21637 21646 21670 21686 21683 21634 21607 21573 21571 21540 21503 21487 21494 21510 21498 21469 21453 21422 21359 21267 21243 21256 21304 21323 21363 21403 21438 21482 21517 21546 21542 21487 21431 21405 21371 21327 21278 21285 21297 21290 21272 21238 21246 21239 21182 21126 21107 21088 21077 21105 21132 21171 21236 21264 21267 21276 21243 21195 21188 21182 21164 21108 21068 21053 21038 20992 20956 20955 20954 20911 20822 20792 20810 20826 20855 20872 20861 20904 20911 20915 20920 20895 20857 20831 20803 20780 20755 20739 20723 20717 20696 20644 20579 20563 20548 20498 20434 20382 20399 20406 20440 20475 20507 20554 20552 20572 20558 20535 20544 20515 20507 20519 20526 20482 20485 20494 20485 20449 20431 20423 20421 20373 20290 20244 20250 20290 20317 20356 20383 20401 20417 20428 20465 20459 20472 20464 20437 20414 20396 20369 20389 20413 20441 20462 20430 20418 20383 20369 20337 20237 20212 20235 20282 20333 20399 20471 20620 20804 20932 21021 21045 21068 21063 21052 21025 21067 21088 21084 21085 21093 21082 21063 21030 21034 21029 20977 20920 20920 20948 20971 20992 21004 21006 21008 21043 21025 21041 21074 21061 21071 21074 21081 21051 21016 20996 21003 20976 20926 20842 20774 20725 20632 20524 20478 20427 20509 20652 20831 20971 21107 21243 21296 21235 21220 21146 21154 21176 21284 21409 21569 21727 21892 22048 22204 22348 22450 22549 22642 22728 22808 22886 22949 23030 23113 23218 23316 23403 23472 23553 23615 23665 23691 23702 23729 23770 23826 23915 23999 24100 24198 24317 24452 24538 24614 24671 24684 24690 24694 24686 24679 24705 24744 24789 24741 24553 24448 24327 24408 24487 24521 24551 24532 24485 24399 24305 24268 24203 24119 23984 23920 23891 23886 23868 23944 24080 24125 24115 24093 24032 23997 23914 23760 23599 23635 23713 23727 23705 23733 23701 23650 23617 23533 23469 23340 23181 23103 23089 23083 23116 23162 23237 23289 23349 23391 23417 23392 23263 23059 22959 22971 23023 23022 23015 22994 22967 22917 22870 22859 22863 22816 22746 22667 22615 22564 22572 22585 22673 22734 22754 22783 22763 22717 22632 22546 22578 22675 22644 22583 22489 22463 22425 22389 22359 22341 22362 22290 22188 22172 22176 22179 22261 22369 22416 22450 22467 22468 22468 22431 22369 22254 22220 22270 22342 22341 22303 22315 22288 22253 22200 22191 22189 22160 22066 22010 22014 22263 22325 22348 22358 22301 22213 22139 22104 22085 22085 22083 22060 22028 22027 22029 22013 22011 22019 22017 21907 21779 21748 21773 21792 21838 21875 21930 21983 22016 22029 22039 22011 21958 21933 21879 21824 21767 21765 21736 21704 21704 21689 21688 21693 21616 21562 21571 21595 21598 21598 21614 21635 21663 21650 21648 21616 21585 21542 21498 21494 21494 21460 21441 21405 21355 21296 21262 21242 21221 21166 21055 21010 20992 21011 21046 21109 21186 21257 21256 21217 21163 21108 21041 21000 20988 20983 20948 20936 20915 20895 20874 20842 20824 20814 20741 20620 20564 20567 20575 20607 20625 20668 20689 20729 20705 20698 20653 20600 20536 20506 20475 20423 20393 20377 20363 20335 20306 20285 20273 20250 20191 20156 20149 20129 20149 20167 20208 20235 20223 20234 20220 20174 20137 20112 20119 20110 20070 20047 20012 19988 19966 19956 19948 19936 19931 19879 19852 19862 19879 19905 19955 19981 19977 19996 20021 20031 20030 20013 19984 19978 20011 19987 19949 19972 19963 19965 19968 19975 19978 19950 19860 19770 19779 19855 19946 19985 20074 20177 20271 20332 20344 20336 20324 20265 20237 20235 20232 20229 20233 20233 20244 20247 20237 20254 20257 20221 20146 20094 20113 20134 20190 20239 20294 20358 20380 20406 20428 20389 20363 20346 20330 20356 20362 20360 20333 20340 20297 20280 20266 20254 20251 20204 20136 20129 20133 20154 20182 20211 20217 20256 20273 20255 20222 20174 20147 20103 20101 20086 20070 20035 20028 20016 20011 20009 20005 19999 19989 19910 19821 19790 19774 19793 19835 19870 19918 19958 19995 20018 20014 19975 19966 19982 20009 20001 19973 19923 19911 19916 19920 19919 19907 19907 19875 19799 19769 19803 19827 19861 19909 19908 19952 20005 20027 20054 20085 20077 20053 20060 20104 20100 20089 20094 20104 20133 20139 20117 20096 20072 20026 19933 19915 19955 20022 20072 20117 20177 20270 20338 20419 20470 20476 20457 20377 20342 20371 20397 20390 20389 20400 20417 20415 20418 20413 20422 20400 20341 20277 20273 20277 20315 20336 20383 20437 20505 20564 20624 20640 20649 20616 20539 20554 20648 20714 20713 20719 20724 20735 20704 20673 20668 20684 20660 20596 20541 20550 20573 20594 20654 20711 20761 20823 20840 20883 20855 20836 20776 20702 20744 20819 20828 20814 20805 20816 20809 20776 20731 20711 20641 20561 20471 20443 20457 20507 20559 20672 20796 20949 21076 21167 21196 21094 20907 20879 20961 21005 21001 20969 20955 20939 20911 20938 20970 20941 20887 20802 20747 20707 20686 20709 20745 20795 20849 20906 20923 20938 20980 20951 20904 20895 20947 20984 20944 20894 20878 20834 20814 20792 20827 20815 20751 20688 20663 20659 20706 20721 20751 20776 20788 20785 20779 20762 20725 20689 20676 20678 20666 20670 20656 20638 20667 20679 20684 20676 20665 20599 20499 20498 20522 20532 20563 20583 20600 20630 20631 20631 20646 20621 20590 20577 20607 20639 20647 20678 20678 20694 20725 20751 20753 20753 20712 20624 20606 20634 20672 20697 20714 20745 20790 20832 20861 20903 20893 20897 20873 20852 20934 21031 21075 21101 21131 21169 21212 21212 21197 21215 21148 21055 20982 20986 21004 20984 20974 20962 20990 21050 21101 21162 21255 21384 21510 21513 21537 21657 21714 21680 21708 21825 21834 21919 21997 22058 22074 22288 22672 23026 23358 23600 23843 24043 24188 24287 24382 24467 24504 24564 24628 24685 24672 24675 24672 24653 24624 24633 24628 24546 24508 24519 24599 24684 24723 24792 24840 24865 24902 24934 24979 24988 25002 24995 25009 25002 25008 25016 25021 25065 25112 25197 25288 25248 25248 25219 25157 25100 24981 24856 24728 24644 24547 24405 24285 24257 24222 24254 24290 24311 24332 24358 24351 24337 24232 24020 23842 23727 23688 23683 23676 23659 23639 23589 23511 23421 23366 23375 23363 23233 23059 22967 22950 22957 22986 23017 23070 23088 23095 23105 23089 23040 22984 22930 22928 22900 22861 22840 22825 22834 22821 22826 22841 22896 22843 22700 22683 22726 22746 22787 22847 22874 22869 22846 22850 22850 22804 22754 22718 22753 22838 22882 22919 22934 22954 22968 22925 22906 22873 22826 22715 22658 22672 22709 22731 22778 22808 22851 22861 22874 22864 22854 22776 22706 22671 22706 22727 22750 22759 22782 22797 22762 22724 22762 22750 22693 22582 22577 22576 22611 22627 22665 22675 22694 22687 22685 22683 22639 22608 22572 22634 22666 22664 22649 22648 22611 22578 22550 22552 22560 22474 22374 22367 22408 22428 22436 22448 22480 22479 22455 22452 22432 22368 22341 22304 22314 22313 22308 22312 22329 22321 22299 22267 22227 22165 22084 21972 21907 21925 21938 21942 21963 21983 22010 22037 22040 22053 21993 21914 21853 21835 21857 21843 21837 21830 21819 21760 21707 21680 21675 21638 21540 21478 21430 21398 21390 21379 21403 21404 21414 21407 21387 21351 21285 21265 21286 21296 21248 21207 21154 21115 21087 21030 20998 20977 20925 20829 20770 20769 20782 20799 20817 20843 20856 20837 20853 20865 20861 20822 20789 20819 20905 20964 20960 20987 21005 21022 20970 20914 20886 20847 20777 20684 20646 20666 20710 20720 20751 20761 20798 20812 20827 20823 20801 20738 20692 20716 20721 20729 20710 20723 20732 20733 20735 20705 20731 20700 20607 20530 20525 20564 20603 20637 20664 20714 20750 20768 20812 20817 20810 20794 20857 20973 21015 21026 21030 21028 21019 20996 20986 20996 20974 20880 20827 20869 20899 20932 20950 20995 21003 21043 21044 21038 21021 20970 20911 20961 21039 21071 21082 21088 21097 21115 21098 21064 21058 21017 20901 20841 20851 20873 20877 20898 20935 21009 21068 21106 21098 21066 21015 20946 20952 20984 20984 20962 20951 20942 20930 20897 20855 20865 20857 20768 20700 20681 20676 20657 20651 20650 20652 20665 20703 20694 20670 20630 20612 20626 20652 20642 20636 20597 20542 20508 20477 20440 20415 20395 20292 20207 20231 20266 20297 20341 20384 20433 20410 20375 20334 20292 20241 20287 20427 20495 20531 20528 20516 20475 20455 20404 20432 20377 20249 20230 20235 20238 20295 20351 20388 20427 20432 20435 20401 20396 20369 20397 20464 20452 20411 20370 20358 20358 20396 20386 20429 20408 20304 20236 20251 20277 20306 20341 20365 20391 20401 20431 20446 20433 20391 20372 20370 20377 20381 20391 20399 20438 20481 20499 20477 20452 20398 20308 20272 20306 20338 20341 20351 20379 20471 20598 20694 20745 20697 20647 20610 20632 20620 20606 20588 20578 20578 20562 20550 20553 20533 20468 20398 20378 20384 20400 20398 20435 20508 20585 20695 20734 20707 20652 20635 20667 20702 20730 20719 20702 20668 20630 20608 20581 20580 20558 20454 20429 20445 20453 20479 20496 20511 20544 20545 20512 20481 20448 20411 20367 20376 20363 20353 20306 20297 20288 20275 20276 20251 20251 20220 20118 20038 20055 20096 20158 20289 20432 20557 20598 20593 20573 20633 20763 20809 20780 20744 20813 20918 21013 21101 21074 20993 20861 20724 20584 20542 20614 20786 21033 21292 21566 21582 21502 21428 21394 21421 21421 21463 21579 22151 22665 23041 23220 23336 23479 23548 24058 24831 25630 26034 26089 25847 25586 25250 24905 24671 24533 24475 24464 24433 24426 24408 24326 24189 24128 24149 24197 24204 24284 24400 24458 24483 24494 24516 24513 24501 24549 24702 24884 24966 24984 25063 25140 25230 25294 25197 25161 25173 25212 25282 25328 25274 25166 25070 25004 25056 25244 25455 25629 25725 25763 25816 25925 26005 26114 26184 26329 26429 26487 26490 26491 26498 26537 26562 26549 26512 26466 26440 26403 26319 26162 26091 25968 25840 25720 25591 25514 25448 25418 25372 25358 25310 25330 25321 25313 25334 25330 25358 25336 25312 25293 25289 25270 25270 25264 25268 25257 25252 25244 25241 25251 25276 25287 25262 25199 25141 25102 25047 25048 25056 25059 25063 25052 25068 25095 25104 25092 25078 25048 24987 24927 24852 24806 24755 24731 24710 24694 24707 24735 24759 24816 24834 24851 24865 24844 24801 24766 24759 24760 24765 24782 24777 24789 24824 24834 24828 24834 24831 24838 24781 24718 24671 24641 24648 24618 24637 24667 24703 24778 24872 24929 24977 25011 25042 25050 25039 25007 24914 24903 24912 24882 24874 24904 24874 24804 24803 24813 24830 24859 24846 24843 24778 24739 24712 24700 24702 24687 24651 24671 24688 24718 24745 24827 24911 24976 24967 24921 24909 24896 24876 24813 24827 24883 24900 24933 24956 24983 24981 24972 24961 24860 24797 24694 24632 24593 24551 24514 24507 24526 24551 24574 24584 24608 24640 24627 24560 24567 24559 24577 24608 24667 24705 24725 24746 24814 24781 24743 24698 24712 24697 24671 24605 24551 24544 24606 24639 24687 24659 24669 24607 24563 24536 24536 24504 24478 24426 24400 24374 24366 24389 24372 24346 24303 24304 24308 24316 24306 24315 24316 24319 24281 24246 24238 24218 24180 24139 24144 24159 24200 24240 24292 24337 24380 24345 24364 24360 24353 24292 24316 24316 24319 24321 24342 24389 24419 24437 24476 24456 24422 24374 24331 24326 24375 24455 24523 24563 24612 24609 24674 24643 24636 24569 24533 24492 24469 24444 24458 24450 24443 24451 24413 24402 24387 24381 24336 24283 24223 24176 24144 24118 24075 24061 24021 23991 23967 23961 23916 23878 23862 23843 23794 23733 23692 23708 23704 23698 23703 23707 23715 23693 23665 23687 23704 23719 23757 23737 23719 23663 23628 23605 23561 23542 23498 23503 23540 23543 23536 23589 23630 23669 23675 23682 23700 23681 23707 23726 23767 23820 23882 23930 23955 23979 23997 23973 23956 23905 23836 23750 23655 23612 23567 23554 23536 23557 23568 23609 23617 23691 23654 23667 23642 23606 23597 23607 23632 23677 23742 23796 23822 23849 23875 23854 23856 23815 23818 23813 23779 23728 23706 23708 23721 23724 23736 23748 23741 23721 23679 23685 23699 23730 23770 23772 23773 23724 23719 23736 23757 23768 23730 23703 23681 23659 23661 23679 23729 23806 23824 23796 23787 23714 23659 23585 23605 23615 23651 23667 23644 23638 23653 23648 23707 23691 23660 23596 23563 23561 23565 23614 23714 23862 23969 24044 24165 24307 24328 24340 24287 24243 24260 24270 24281 24303 24288 24264 24229 24184 24112 24059 24016 24039 24098 24170 24245 24290 24271 24219 24175 24121 24085 24050 24017 23989 23964 23957 23964 23976 23951 23890 23822 23768 23767 23773 23767 23754 23744 23752 23769 23801 23787 23727 23708 23701 23701 23698 23649 23637 23609 23630 23636 23634 23652 23627 23603 23590 23596 23607 23591 23609 23646 23685 23705 23691 23675 23666 23658 23637 23650 23651 23691 23729 23785 23823 23853 23869 23866 23811 23773 23725 23705 23707 23714 23723 23765 23803 23888 23953 23985 24021 24069 24075 24039 24000 23969 23969 24018 24042 24052 24052 24057 24043 24054 24058 24059 24091 24113 24135 24131 24099 24091 24099 24091 24149 24203 24274 24337 24431 24482 24542 24599 24652 24704 24679 24644 24606 24558 24523 24493 24501 24504 24491 24487 24481 24488 24464 24465 24442 24371 24299 24207 24156 24162 24155 24171 24188 24197 24199 24181 24169 24173 24176 24185 24156 24131 24097 24067 24071 24086 24138 24216 24281 24314 24301 24300 24320 24379 24382 24344 24285 24260 24231 24205 24192 24175 24192 24208 24256 24294 24300 24348 24416 24510 24591 24703 24851 25056 25298 25463 25613 25743 25817 25871 25858 25856 25797 25750 25658 25512 25458 25326 25254 25195 25189 25179 25155 25107 25065 24989 24907 24857 24785 24750 24668 24520 24463 24423 24417 24416 24373 24332 24300 24271 24197 24114 24012 23985 23958 23963 23884 23784 23664 23565 23443 23332 23208 23117 22948 22850 22790 22787 22784 22761 22766 22720 22625 22526 22420 22274 22136 22048 22020 22027 21976 21911 21798 21730 21675 21628 21544 21466 21330 21125 20954 20894 20901 20926 20938 20948 20997 21033 21095 21107 21086 20933 20786 20684 20671 20647 20637 20654 20631 20589 20547 20496 20443 20398 20310 20177 20096 20042 20037 20061 20081 20142 20213 20262 20299 20331 20321 20327 20342 20440 20496 20491 20428 20403 20337 20255 20183 20152 20120 20049 19929 19917 19910 19887 19911 19920 19905 19883 19878 19881 19880 19845 19807 19816 19811 19778 19752 19712 19690 19648 19619 19576 19561 19530 19431 19349 19311 19323 19344 19373 19421 19464 19505 19526 19566 19584 19574 19588 19596 19620 19612 19595 19569 19568 19553 19544 19531 19515 19503 19442 19398 19395 19416 19450 19472 19526 19618 19655 19658 19638 19614 19571 19585 19580 19602 19594 19563 19550 19502 19469 19458 19423 19433 19425 19355 19310 19318 19350 19389 19441 19479 19500 19502 19491 19490 19464 19415 19398 19447 19458 19375 19381 19394 19379 19294 19203 19170 19188 19208 19270 19322 19417 19472 19473 19461 19419 19395 19385 19412 19428 19342 19321 19296 19298 19269 19237 19232 19219 19153 19110 19119 19133 19155 19153 19132 19140 19169 19219 19247 19254 19281 19313 19392 19386 19365 19368 19348 19332 19294 19241 19219 19138 19057 19063 19105 19136 19142 19167 19204 19224 19267 19305 19369 19337 19314 19367 19460 19443 19437 19416 19389 19369 19353 19333 19298 19239 19192 19176 19203 19218 19234 19279 19355 19381 19378 19386 19396 19407 19450 19491 19514 19503 19451 19427 19408 19378 19341 19340 19323 19270 19161 19188 19237 19276 19343 19456 19567 19660 19682 19686 19683 19693 19683 19675 19681 19683 19652 19622 19607 19593 19552 19490 19439 19454 19462 19390 19337 19342 19366 19421 19442 19497 19551 19655 19696 19745 19754 19734 19671 19675 19698 19730 19723 19684 19612 19606 19487 19433 19332 19277 19344 19494 19630 19732 19743 19692 19689 19708 19676 19648 19712 19777 19758 19718 19671 19655 19638 19633 19646 19631 19563 19491 19519 19547 19602 19637 19678 19730 19729 19769 19807 19808 19794 19811 19816 19817 19802 19775 19781 19756 19725 19678 19656 19655 19601 19534 19530 19545 19576 19601 19613 19648 19652 19701 19723 19721 19739 19774 19806 19823 19763 19717 19694 19708 19677 19682 19708 19701 19660 19626 19607 19605 19625 19615 19671 19700 19712 19733 19760 19855 19888 19932 20028 20111 20115 20087 20027 19949 19860 19832 19860 19958 20023 19974 19896 19855 19869 19897 19925 19972 20053 20154 20222 20294 20320 20305 20300 20310 20291 20252 20284 20381 20463 20479 20474 20424 20365 20293 20249 20224 20200 20075 20010 20020 20053 20095 20105 20146 20186 20214 20226 20215 20143 20075 20043 20055 20078 20051 20045 20022 20009 19997 19957 19953 19950 19882 19806 19764 19764 19745 19760 19782 19828 19834 19867 19875 19876 19898 19916 19947 19940 19871 19820 19802 19769 19761 19730 19713 19704 19638 19654 19667 19673 19720 19776 19814 19846 19868 19898 19953 19972 19962 19910 19878 19853 19833 19751 19686 19656 19588 19500 19448 19481 19506 19530 19553 19616 19676 19692 19705 19702 19679 19610 19604 19621 19655 19616 19581 19552 19556 19525 19492 19485 19460 19388 19328 19293 19325 19364 19452 19562 19644 19688 19701 19716 19735 19689 19705 19723 19738 19701 19634 19593 19567 19550 19523 19484 19473 19451 19363 19318 19330 19385 19435 19485 19537 19657 19790 19841 19902 19910 19911 19871 19880 19886 19864 19837 19810 19821 19788 19766 19711 19678 19678 19655 19638 19578 19532 19520 19536 19598 19672 19772 19916 20061 20136 20166 20167 20148 20124 20114 20111 20100 20090 20075 20043 20051 20049 20055 20024 20016 19979 19944 19882 19882 19857 19852 19847 19882 19947 20024 20155 20301 20442 20543 20558 20522 20504 20507 20479 20428 20417 20416 20380 20374 20370 20346 20357 20348 20307 20242 20197 20128 20113 20124 20154 20186 20206 20220 20272 20319 20359 20364 20379 20370 20305 20221 20169 20147 20109 20098 20108 20081 20048 20014 20008 19992 19978 19943 19914 19901 19846 19827 19826 19793 19831 19816 19812 19819 19808 19796 19776 19741 19716 19701 19686 19622 19583 19550 19526 19506 19493 19476 19461 19447 19458 19446 19441 19432 19427 19441 19421 19407 19351 19339 19304 19297 19285 19266 19257 19250 19251 19238 19227 19226 19219 19234 19231 19186 19162 19175 19203 19214 19234 19235 19238 19229 19227 19220 19200 19198 19171 19143 19106 19175 19246 19228 19208 19184 19182 19193 19178 19196 19200 19192 19208 19220 19231 19236 19210 19183 19183 19188 19168 19177 19178 19179 19160 19172 19180 19190 19202 19180 19193 19179 19145 19136 19130 19122 19124 19111 19104 19108 19140 19140 19151 19157 19163 19149 19148 19129 19094 19097 19100 19091 19093 19090 19097 19097 19096 19080 19101 19107 19133 19123 19127 19102 19114 19142 19153 19142 19124 19096 19099 19122 19141 19130 19119 19149 19161 19146 19106 19074 19094 19138 19200 19183 19123 19123 19135 19159 19160 19171 19189 19220 19243 19231 19207 19173 19150 19140 19133 19142 19153 19159 19155 19159 19162 19161 19183 19176 19174 19184 19147 19134 19113 19127 19119 19140 19125 19118 19121 19124 19121 19128 19122 19128 19124 19111 19089 19078 19084 19101 19098 19104 19094 19106 19107 19103 19119 19125 19122 19125 19075 19074 19076 19084 19071 19087 19078 19093 19090 19107 19099 19107 19115 19126 19112 19084 19055 19077 19074 19086 19068 19089 19087 19091 19096 19108 19100 19113 19104 19132 19106 19076 19075 19079 19085 19092 19106 19091 19099 19099 19098 19117 19113 19123 19134 19131 19122 19103 19106 19099 19103 19106 19120 19130 19121 19134 19148 19144 19156 19151 19169 19156 19156 19146 19134 19129 19128 19149 19137 19144 19127 19146 19138 19156 19163 19151 19149 19162 19172 19172 19163 19160 19177 19182 19181 19199 19241 19249 19253 19238 19255 19302 19358 19401 19446 19490 19532 19505 19439 19432 19335 19326 19349 19371 19405 19458 19549 19637 19671 19703 19718 19739 19738 19771 19818 19848 19859 19849 19863 19867 19871 19879 19852 19818 19787 19796 19792 19747 19702 19689 19698 19709 19717 19737 19803 19857 19892 19886 19877 19903 19882 19919 19947 19969 19961 19928 19891 19842 19815 19784 19739 19734 19709 19639 19606 19586 19566 19566 19590 19617 19658 19710 19696 19657 19625 19614 19630 19702 19764 19796 19778 19748 19749 19732 19683 19644 19619 19584 19494 19376 19333 19358 19386 19410 19452 19539 19654 19753 19851 19885 19863 19841 19836 19884 19918 19891 19884 19882 19868 19838 19775 19737 19713 19696 19643 19560 19555 19573 19578 19594 19610 19661 19770 19860 19909 19910 19900 19885 19917 20020 20112 20124 20132 20146 20145 20104 20045 20013 19988 19969 19891 19857 19858 19854 19872 19892 19897 19940 19963 19959 19950 19939 19908 19909 19969 20043 20036 20047 20063 20053 20027 20005 19985 19971 19957 19907 19879 19896 19898 19893 19919 19942 19979 20003 20028 20062 20064 20067 20100 20128 20165 20204 20202 20211 20223 20198 20130 20106 20086 20057 20018 19988 19973 19966 19959 19991 19986 19992 20000 20016 20013 20006 20031 20028 20106 20170 20243 20247 20261 20254 20236 20197 20173 20157 20147 20126 20061 20056 20052 20029 20010 20011 19998 19983 19959 19952 19943 19946 19987 20022 20043 20074 20122 20183 20220 20226 20214 20165 20117 20075 20034 20031 19996 19918 19885 19854 19879 19904 19937 19988 20112 20223 20314 20345 20311 20290 20283 20301 20334 20319 20332 20323 20301 20304 20264 20223 20193 20175 20169 20142 20066 20013 20014 19987 20010 20002 20049 20123 20157 20154 20131 20149 20197 20264 20225 20217 20268 20302 20312 20257 20233 20213 20189 20155 20112 20074 20072 20067 20061 19992 19974 19972 19988 20003 20024 20031 20074 20081 20108 20075 20077 20138 20183 20132 20110 20139 20148 20142 20127 20101 20119 20144 20159 20144 20079 20030 20018 19988 19994 19987 19966 19962 19947 19940 19943 19948 19950 19953 19956 19940 19923 19916 19875 19863 19842 19850 19855 19837 19840 19859 19854 19823 19815 19783 19780 19786 19770 19766 19778 19761 19762 19752 19794 19803 19821 19847 19845 19832 19791 19777 19772 19771 19772 19732 19764 19762 19772 19742 19732 19715 19706 19663 19640 19604 19588 19595 19603 19616 19639 19677 19704 19766 19820 19869 19899 19918 19961 19955 19949 19929 19880 19857 19826 19792 19781 19711 19700 19744 19804 19882 19897 19908 19907 19888 19868 19824 19791 19752 19721 19738 19768 19781 19803 19798 19839 19865 19862 19839 19788 19759 19738 19722 19713 19724 19770 19827 19879 19896 19892 19903 19897 19864 19833 19864 19877 19877 19901 19906 19913 19914 19885 19849 19803 19746 19675 19655 19653 19646 19680 19720 19769 19883 19959 20056 20079 20114 20113 20075 20038 20072 20133 20131 20149 20146 20156 20141 20126 20067 19999 19957 19930 19939 19965 20000 20023 20025 20047 20106 20176 20235 20323 20364 20365 20393 20398 20471 20529 20523 20516 20503 20477 20481 20482 20476 20451 20423 20378 20355 20307 20286 20276 20272 20290 20306 20330 20373 20386 20432 20454 20500 20518 20490 20421 20372 20373 20374 20354 20353 20341 20343 20327 20340 20352 20330 20305 20255 20212 20218 20201 20213 20236 20248 20281 20299 20325 20389 20478 20563 20583 20565 20523 20532 20562 20566 20576 20581 20590 20577 20549 20529 20490 20437 20363 20317 20301 20286 20294 20314 20351 20394 20419 20451 20475 20508 20510 20503 20446 20385 20367 20372 20346 20336 20331 20308 20336 20295 20272 20256 20210 20161 20117 20089 20066 20059 20054 20036 20028 20077 20136 20213 20269 20276 20251 20194 20162 20204 20223 20215 20214 20209 20202 20198 20147 20067 20001 19935 19863 19835 19818 19814 19844 19877 19908 19969 20047 20113 20182 20228 20212 20125 20090 20089 20112 20096 20082 20063 20061 20045 20036 20016 19976 19934 19867 19824 19811 19800 19813 19813 19855 19882 19942 20005 20066 20119 20100 20099 20081 20044 20054 20042 20064 20076 20080 20078 20074 20052 20000 19950 19899 19842 19819 19818 19829 19876 19899 19933 19959 20003 20074 20153 20221 20262 20271 20233 20204 20231 20290 20312 20336 20321 20299 20300 20309 20279 20244 20198 20164 20136 20136 20149 20193 20200 20241 20273 20288 20306 20335 20346 20325 20279 20234 20233 20265 20304 20294 20304 20332 20323 20306 20278 20243 20214 20153 20108 20077 20085 20090 20131 20152 20187 20204 20218 20265 20308 20353 20344 20347 20274 20254 20265 20266 20287 20274 20262 20266 20259 20260 20248 20222 20178 20125 20089 20093 20065 20075 20063 20061 20088 20101 20154 20196 20246 20252 20241 20228 20197 20167 20150 20132 20122 20130 20114 20110 20078 20043 20002 19953 19885 19835 19804 19796 19804 19843 19884 19928 20006 20104 20181 20231 20263 20274 20256 20211 20165 20143 20117 20081 20063 20035 20027 20000 19995 19984 19977 19975 19959 19965 19940 19949 19945 19936 19944 19949 19965 19966 19972 19957 19944 19926 19940 19887 19871 19865 19824 19821 19808 19780 19789 19780 19746 19687 19658 19633 19582 19531 19520 19528 19583 19639 19711 19774 19831 20046 20246 20440 20572 20745 20939 21108 21306 21490 21667 21859 22037 22196 22348 22504 22656 22765 22896 23013 23120 23227 23314 23398 23491 23573 23626 23689 23775 23809 23853 23896 23947 24012 24086 24132 24182 24242 24299 24368 24418 24462 24503 24545 24564 24596 24608 24640 24667 24710 24749 24772 24812 24854 24876 24920 24949 24968 25014 25046 25063 25104 25110 25124 25121 25152 25162 25184 25210 25226 25241 25277 25286 25311 25342 25372 25409 25454 25471 25512 25538 25542 25514 25518 25531 25543 25548 25565 25544 25568 25575 25594 25619 25619 25636 25665 25676 25683 25692 25672 25637 25611 25593 25583 25585 25575 25561 25570 25575 25572 25590 25588 25590 25605 25619 25633 25644 25633 25620 25583 25559 25556 25544 25537 25554 25580 25620 25685 25783 25874 25929 25998 26032 26039 26040 26023 25970 25880 25780 25668 25609 25558 25524 25477 25459 25451 25442 25438 25437 25471 25501 25531 25570 25622 25664 25684 25685 25672 25676 25689 25685 25687 25723 25741 25739 25727 25714 25717 25749 25801 25821 25834 25868 25878 25852 25835 25790 25799 25792 25824 25839 25875 25881 25922 25943 25982 26019 26033 26059 26081 26087 26102 26068 26045 26026 26018 26024 26057 26061 26072 26094 26089 26101 26082 26087 26073 26078 26078 26109 26158 26147 26128 26109 26097 26105 26101 26127 26099 26105 26086 26076 26095 26090 26094 26134 26149 26171 26185 26176 26146 26110 26062 26024 26007 26007 26015 26044 26060 26104 26153 26181 26222 26243 26259 26269 26199 26133 26067 26021 26012 26021 26017 26020 26018 26034 26027 26046 26060 26023 26023 26031 26023 25999 25930 25906 25906 25898 25899 25872 25898 25887 25861 25859 25847 25858 25880 25890 25912 25914 25885 25823 25761 25742 25706 25664 25649 25663 25657 25686 25708 25765 25806 25820 25857 25893 25903 25861 25785 25719 25692 25664 25663 25667 25645 25657 25648 25663 25682 25688 25692 25682 25682 25598 25485 25350 25233 25411 25408 25419 25448 25503 25456 25449 25433 25439 25482 25484 25505 25517 25514 25497 25435 25390 25342 25278 25251 25254 25248 25260 25307 25314 25335 25390 25424 25458 25481 25516 25478 25413 25369 25329 25308 25290 25271 25246 25250 25256 25303 25325 25350 25367 25377 25377 25396 25369 25274 25183 25137 25094 25080 25077 25082 25069 25074 25056 25042 25053 25055 25080 25088 25126 25149 25112 25085 25002 24969 24933 24909 24913 24903 24922 24964 24976 25006 25038 25068 25102 25105 25105 25063 25014 24946 24899 24869 24864 24874 24894 24900 24896 24894 24892 24895 24894 24899 24923 24960 25023 25021 25042 25038 25040 25034 25022 24998 24969 24972 24983 24976 25015 25064 25105 25119 25081 25067 25036 24953 24840 24708 24602 24499 24409 24356 24292 24230 24102 23999 23908 23834 23770 23701 23649 23615 23537 23401 23263 23150 23080 23022 23015 23006 23021 23019 23006 23026 23022 22999 22943 22907 22867 22834 22737 22612 22474 22385 22301 22198 22144 22088 22061 22041 22022 22005 21979 21935 21885 21837 21850 21856 21816 21775 21748 21699 21677 21654 21654 21677 21669 21631 21544 21517 21453 21373 21351 21346 21349 21315 21268 21243 21279 21325 21356 21373 21366 21322 21302 21249 21237 21248 21266 21314 21357 21403 21481 21491 21397 21283 21171 21084 21025 20973 20901 20846 20827 20819 20834 20856 20875 20925 20995 21062 21135 21156 21131 21122 21204 21243 21256 21251 21247 21231 21216 21212 21174 21136 21102 21059 21002 20945 20953 20948 20970 20992 20998 21008 21007 21006 20975 20942 20942 20899 20849 20854 20875 20863 20852 20823 20832 20838 20822 20792 20740 20659 20621 20474 20454 20470 20513 20524 20560 20593 20640 20673 20655 20618 20595 20518 20555 20763 20906 20967 20983 20988 20956 20891 20904 20899 20859 20775 20734 20764 20754 20791 20799 20787 20817 20860 20882 20890 20858 20848 20878 20904 20938 20931 20911 20910 20897 20883 20873 20883 20822 20702 20685 20691 20717 20724 20740 20783 20812 20834 20825 20791 20761 20772 20824 20858 20869 20849 20817 20791 20751 20728 20743 20713 20654 20609 20606 20622 20632 20656 20737 20818 20866 20872 20800 20746 20682 20648 20680 20691 20676 20656 20652 20648 20624 20592 20592 20602 20545 20525 20510 20543 20553 20566 20568 20564 20570 20559 20569 20528 20521 20534 20559 20580 20580 20569 20548 20504 20457 20412 20427 20417 20349 20302 20329 20370 20385 20401 20415 20447 20453 20451 20406 20369 20329 20309 20333 20345 20327 20302 20288 20262 20239 20222 20197 20183 20128 20103 20118 20120 20099 20106 20145 20254 20371 20452 20456 20400 20328 20316 20327 20322 20303 20293 20260 20215 20162 20134 20140 20094 20021 20021 20038 20068 20067 20115 20163 20237 20275 20247 20236 20186 20136 20124 20168 20193 20204 20167 20158 20136 20111 20073 20054 20064 20016 19956 19953 19977 19991 20005 20008 20041 20076 20108 20127 20121 20082 20059 20069 20124 20134 20116 20095 20076 20031 19994 19951 19937 19922 19871 19821 19822 19861 19884 19892 19882 19915 19935 19969 19943 19914 19877 19904 19994 20072 20048 20029 20014 19994 19967 19963 19950 19952 19889 19833 19842 19844 19860 19877 19905 19971 20033 20024 20003 19980 19985 20016 20079 20166 20189 20162 20137 20101 20065 20047 20019 20008 19989 19920 19867 19895 19928 19956 19978 20030 20080 20119 20130 20155 20114 20072 20094 20184 20289 20317 20305 20307 20278 20275 20241 20220 20225 20151 20121 20130 20161 20163 20183 20200 20231 20266 20265 20272 20275 20242 20265 20356 20410 20450 20428 20410 20373 20332 20302 20261 20277 20220 20173 20168 20231 20278 20299 20306 20314 20343 20339 20332 20308 20272 20282 20339 20416 20424 20399 20384 20379 20386 20362 20329 20339 20290 20219 20195 20206 20238 20252 20276 20286 20306 20308 20289 20275 20256 20245 20329 20379 20343 20286 20237 20190 20166 20143 20084 20068 20033 19953 19922 19933 19977 19980 19966 19951 19959 19962 19966 19962 19979 20021 20135 20228 20321 20351 20328 20312 20285 20250 20157 20091 20031 19934 19884 19894 19924 19957 19981 20013 20073 20080 20078 20097 20049 20000 19958 19995 20068 20060 20020 19964 19952 19912 19888 19858 19831 19804 19724 19689 19656 19652 19642 19633 19637 19709 19729 19780 19839 19904 19943 20045 20150 20210 20216 20189 20116 20069 20030 19985 19947 19925 19859 19790 19798 19823 19879 19890 19936 19986 19993 19987 19954 19917 19911 19962 20073 20200 20173 20158 20115 20114 20096 20073 20044 20032 19958 19923 19937 19942 19941 19962 19984 19980 19984 20003 20010 20023 20068 20208 20376 20547 20532 20495 20444 20400 20353 20308 20312 20261 20157 20131 20136 20154 20180 20193 20251 20311 20333 20309 20281 20243 20183 20181 20223 20274 20258 20230 20203 20192 20192 20157 20143 20153 20059 20001 20025 20034 20067 20078 20106 20132 20140 20134 20143 20136 20093 20144 20220 20311 20353 20326 20320 20275 20218 20171 20141 20117 20025 19971 19965 20014 20043 20051 20062 20094 20114 20072 20073 20015 19964 19955 20021 20069 20042 19995 19969 19959 19943 19902 19903 19869 19811 19758 19754 19755 19740 19723 19734 19800 19829 19861 19894 19893 19885 19951 20066 20170 20184 20191 20206 20189 20127 20074 20022 19984 19903 19831 19856 19917 19946 19957 19964 19988 19988 19991 19979 19970 19972 19983 20068 20147 20154 20119 20120 20135 20097 20055 20030 20014 19944 19925 19952 20025 20051 20054 20054 20054 20084 20159 20244 20272 20250 20278 20311 20361 20332 20336 20316 20315 20299 20241 20214 20204 20113 20055 20054 20086 20130 20154 20204 20262 20294 20333 20336 20291 20299 20320 20324 20377 20358 20319 20284 20293 20274 20252 20269 20261 20182 20124 20139 20188 20208 20227 20206 20217 20239 20239 20220 20165 20139 20151 20183 20210 20193 20148 20147 20151 20099 20065 20068 20042 19988 19891 19875 19889 19927 19947 19957 19963 20015 20020 19998 19974 19906 19897 19937 20007 20006 19954 19941 19911 19900 19871 19862 19837 19764 19708 19696 19745 19752 19755 19780 19876 19925 19925 19919 19901 19911 20001 20104 20199 20204 20189 20148 20118 20066 19990 19948 19941 19890 19784 19785 19817 19858 19863 19880 19917 19940 19917 19907 19870 19822 19777 19809 19918 19965 19945 19909 19897 19871 19854 19837 19826 19790 19725 19717 19749 19763 19762 19801 19864 19952 19939 19915 19895 19868 19892 19950 20043 20103 20105 20077 20080 20050 20029 19986 19972 19914 19834 19824 19857 19900 19943 19981 20023 20065 20069 20070 20071 20034 20003 19984 20016 20074 20035 20011 20027 20030 20018 20008 19995 19999 19929 19884 19907 19931 19936 19969 19987 20029 20056 20025 20028 20002 19988 19995 20047 20083 20073 20062 20052 20040 20013 19982 19969 19957 19913 19882 19899 19909 19900 19897 19892 19909 19975 19996 20000 19946 19916 19910 20021 20043 20028 20009 20009 19986 19971 19934 19897 19870 19802 19796 19812 19850 19845 19843 19874 19943 19925 19927 19919 19887 19924 19981 20102 20132 20140 20121 20082 20059 20031 19976 19935 19871 19788 19757 19768 19791 19829 19838 19876 19913 19958 19980 19992 19959 19944 19928 20002 20093 20094 20055 20036 20009 19981 19963 19949 19936 19903 19829 19838 19845 19829 19844 19869 19889 19898 19901 19884 19863 19845 19890 20003 20143 20187 20188 20175 20160 20106 20081 20075 20046 19997 19939 19907 19944 19963 19979 19982 20006 20033 20039 20057 20065 20093 20123 20215 20348 20375 20344 20323 20361 20360 20377 20410 20425 20332 20228 20185 20175 20174 20168 20180 20183 20204 20197 20184 20178 20150 20163 20193 20283 20291 20281 20283 20280 20236 20193 20211 20203 20143 20069 20080 20106 20109 20131 20143 20135 20150 20151 20138 20112 20068 20068 20146 20201 20210 20170 20160 20141 20134 20111 20112 20065 19995 19978 19983 20006 20003 20009 20050 20106 20115 20096 20092 20047 20040 20083 20161 20218 20205 20197 20188 20144 20103 20047 20047 20021 19924 19865 19888 19906 19944 19960 19985 20033 20039 20035 20006 19967 19924 19987 20143 20239 20301 20330 20313 20273 20267 20237 20241 20183 20083 20058 20064 20096 20102 20107 20151 20143 20144 20154 20158 20148 20172 20231 20323 20341 20310 20273 20236 20204 20169 20136 20167 20167 20113 20107 20131 20146 20176 20176 20226 20224 20239 20227 20168 20123 20122 20158 20245 20239 20228 20232 20200 20201 20166 20146 20164 20089 20028 20008 20038 20050 20075 20118 20170 20185 20161 20144 20109 20097 20166 20262 20313 20358 20320 20310 20308 20282 20257 20222 20213 20149 20057 20063 20096 20174 20234 20347 20522 20683 20758 20725 20665 20597 20496 20483 20507 20523 20527 20497 20486 20489 20450 20409 20413 20387 20270 20170 20158 20185 20249 20272 20327 20360 20357 20348 20333 20297 20291 20320 20348 20357 20312 20272 20249 20232 20213 20173 20182 20169 20107 20054 20064 20096 20114 20100 20052 20036 20046 20059 20059 20020 20032 20076 20174 20186 20167 20146 20122 20116 20116 20088 20044 19988 19887 19840 19868 19901 19951 19955 19982 19990 20008 19991 19990 19966 19979 19988 20000 19953 19914 19911 19916 19912 19860 19872 19843 19795 19734 19733 19759 19802 19798 19790 19842 19850 19829 19846 19833 19849 19921 20008 20035 20018 20011 19981 19974 19909 19877 19858 19812 19710 19660 19652 19700 19734 19786 19868 19874 19903 19919 19926 19915 19959 19961 19957 19946 19917 19888 19888 19879 19839 19828 19840 19795 19708 19694 19706 19731 19729 19753 19826 19862 19884 19912 19952 19976 20067 20174 20260 20276 20244 20238 20204 20142 20102 20099 20067 20003 19923 19945 19969 19998 20019 20059 20087 20113 20121 20110 20059 19984 19974 20028 20086 20084 20074 20065 20036 20028 20023 20048 20024 19975 19899 19865 19873 19897 19920 19993 20069 20077 20089 20113 20117 20124 20188 20279 20351 20373 20354 20329 20291 20262 20208 20213 20202 20111 20076 20080 20144 20170 20215 20269 20319 20357 20311 20278 20227 20203 20203 20251 20294 20297 20284 20269 20238 20225 20203 20214 20222 20143 20044 20038 20043 20075 20087 20133 20186 20188 20198 20190 20184 20174 20228 20303 20314 20283 20243 20243 20237 20205 20191 20185 20179 20114 20027 20022 20055 20088 20118 20113 20117 20127 20117 20116 20081 20066 20120 20161 20199 20174 20156 20144 20137 20109 20070 20025 19989 19938 19848 19819 19873 19913 19908 19915 19930 19968 19981 20000 20000 19981 20001 20051 20113 20109 20076 20051 20035 20013 19960 19986 19975 19907 19846 19843 19840 19862 19876 19905 20003 20053 20040 20016 19985 19963 19990 20072 20184 20224 20216 20166 20096 20052 20004 19997 19971 19912 19848 19863 19892 19932 19966 19988 20007 20020 19996 19985 19933 19919 19973 20069 20131 20113 20102 20108 20079 20072 20053 20068 20021 19911 19875 19889 19927 19971 20001 20058 20122 20107 20080 20054 20036 20039 20098 20171 20156 20091 20071 20077 20078 20063 20066 20103 20073 19984 19962 19974 20026 20069 20074 20080 20085 20072 20076 20070 20059 20072 20142 20252 20276 20275 20253 20239 20213 20198 20180 20155 20078 19990 20028 20057 20104 20099 20119 20133 20159 20141 20130 20107 20081 20053 20093 20123 20124 20099 20074 20055 20048 20045 20079 20016 19936 19909 19918 19928 19947 19968 19987 20041 20073 20113 20126 20080 20139 20203 20277 20274 20248 20236 20216 20169 20141 20131 20131 20064 19969 19970 19987 20032 20055 20101 20160 20178 20169 20147 20075 20034 20017 20082 20124 20113 20096 20094 20081 20083 20067 20082 20071 20005 19929 19900 19931 19972 20007 20049 20124 20174 20160 20177 20141 20140 20183 20262 20333 20334 20303 20275 20256 20241 20214 20230 20224 20117 20053 20077 20125 20168 20214 20263 20284 20272 20261 20259 20218 20211 20230 20283 20325 20317 20311 20300 20286 20300 20271 20284 20233 20147 20059 20050 20066 20118 20175 20257 20281 20284 20272 20259 20227 20197 20194 20185 20172 20141 20114 20095 20076 20047 20029 20042 20025 19964 19939 19983 19989 19990 19999 20021 20078 20105 20120 20129 20074 20046 20077 20130 20147 20141 20136 20117 20086 20044 20006 20023 19975 19893 19846 19850 19884 19922 19957 20009 20085 20086 20126 20106 20038 20011 20026 20118 20140 20111 20109 20096 20066 20078 20055 20046 19990 19944 19915 19914 19933 19945 19982 20022 20013 20009 19983 19944 19921 19957 20007 20068 20069 20040 19999 19962 19942 19923 19906 19897 19837 19733 19753 19778 19841 19881 19982 20067 20075 20010 19977 19926 19913 19934 19996 20063 20120 20118 20097 20085 20046 20021 20040 19999 19889 19762 19758 19779 19812 19851 19878 19935 19971 19975 19999 19978 19991 20022 20034 20045 20025 20002 19971 19954 19920 19910 19878 19897 19836 19762 19758 19818 19847 19874 19868 19919 19922 19891 19888 19883 19889 19941 20050 20174 20236 20242 20224 20203 20170 20136 20114 20063 19965 19885 19902 19973 20014 20049 20090 20133 20120 20108 20073 20050 20082 20115 20242 20350 20378 20334 20297 20282 20255 20236 20241 20216 20145 20147 20139 20165 20179 20193 20203 20215 20203 20202 20163 20128 20128 20168 20250 20286 20278 20264 20241 20198 20159 20160 20157 20083 20002 20017 20075 20114 20144 20153 20197 20197 20198 20193 20125 20084 20088 20136 20167 20152 20100 20084 20076 20049 20022 20036 20009 19937 19891 19885 19895 19923 19929 19986 19985 19995 19999 19989 19987 20023 20129 20233 20265 20279 20211 20143 20101 20058 20062 20006 19910 19882 19906 19979 20023 20075 20153 20180 20154 20115 20063 19996 19994 20028 20127 20142 20138 20123 20100 20077 20052 20054 20027 19951 19853 19822 19844 19864 19887 19915 19975 19954 19962 19965 19941 19969 20035 20108 20164 20124 20065 20041 20008 19985 19981 19985 19947 19856 19835 19868 19911 19941 19960 19951 19952 19929 19917 19921 19976 20065 20156 20243 20255 20224 20210 20190 20176 20150 20154 20088 19965 19916 19935 19999 20051 20083 20168 20273 20298 20312 20314 20335 20301 20300 20300 20316 20304 20285 20261 20254 20256 20224 20237 20234 20153 20086 20088 20095 20123 20163 20198 20248 20243 20250 20250 20243 20234 20281 20364 20429 20439 20428 20404 20363 20306 20270 20253 20219 20137 20124 20141 20173 20212 20243 20277 20310 20292 20253 20201 20139 20107 20103 20153 20163 20143 20127 20105 20082 20065 20060 20090 20028 19939 19889 19897 19939 19976 20020 20054 20057 20057 20058 20033 19998 20016 20153 20355 20402 20371 20396 20388 20355 20324 20310 20303 20188 20139 20142 20166 20194 20210 20224 20219 20168 20148 20117 20049 20057 20063 20135 20194 20179 20146 20110 20075 20046 20028 19979 19901 19797 19780 19802 19837 19856 19892 19915 19918 19912 19905 19894 19964 20051 20132 20182 20182 20136 20107 20075 20052 20038 20023 19975 19868 19866 19903 19944 19955 19962 19982 20047 20040 20061 20083 20066 20075 20101 20157 20209 20190 20162 20130 20102 20061 20034 20004 19962 19866 19870 19904 19948 19974 19965 19997 20028 20035 20015 19991 19999 20026 20086 20133 20148 20189 20258 20295 20318 20356 20406 20404 20267 20229 20266 20318 20340 20348 20439 20533 20563 20535 20481 20439 20409 20405 20446 20443 20407 20365 20365 20331 20293 20260 20255 20218 20154 20128 20155 20181 20216 20203 20177 20214 20266 20270 20277 20232 20228 20275 20401 20425 20404 20394 20372 20356 20324 20327 20307 20213 20177 20175 20213 20231 20260 20273 20331 20330 20301 20271 20248 20243 20284 20354 20395 20378 20382 20352 20305 20260 20212 20195 20157 20058 20033 20043 20092 20104 20128 20194 20238 20254 20258 20251 20191 20194 20244 20353 20382 20385 20370 20362 20342 20313 20309 20302 20267 20160 20097 20080 20128 20156 20218 20260 20299 20257 20224 20222 20207 20234 20286 20302 20271 20167 20133 20125 20101 20083 20071 20068 20033 19968 19962 19975 20024 20035 20069 20064 20057 20042 20019 20021 20015 20088 20217 20302 20312 20290 20278 20263 20251 20225 20238 20207 20105 20049 20064 20117 20130 20120 20117 20149 20163 20166 20167 20133 20162 20173 20246 20281 20252 20244 20241 20219 20212 20198 20183 20128 20051 20049 20066 20100 20087 20115 20168 20193 20206 20223 20231 20225 20278 20366 20442 20474 20461 20459 20435 20406 20348 20325 20321 20257 20197 20212 20263 20308 20335 20382 20422 20465 20437 20401 20358 20331 20318 20352 20403 20400 20370 20359 20354 20357 20327 20351 20331 20259 20208 20187 20196 20218 20211 20244 20268 20260 20275 20272 20271 20296 20379 20491 20609 20637 20584 20540 20502 20478 20451 20459 20443 20335 20307 20314 20359 20387 20416 20412 20400 20348 20303 20291 20257 20244 20274 20363 20412 20397 20376 20364 20340 20343 20337 20313 20215 20080 20059 20182 20235 20240 20253 20256 20266 20291 20379 20455 20510 20504 20494 20482 20464 20447 20411 20398 20344 20240 20216 20222 20253 20219 20197 20218 20249 20228 20171 20144 20110 20111 20168 20283 20335 20322 20315 20293 20264 20188 20121 20081 20046 19969 19933 19960 20008 20040 20108 20171 20190 20157 20156 20114 20053 20041 20140 20267 20341 20344 20322 20291 20244 20216 20195 20198 20120 20063 20044 20063 20099 20129 20185 20279 20310 20290 20244 20202 20182 20199 20250 20298 20279 20241 20191 20151 20115 20085 20068 20076 19996 19946 19961 20012 20025 20068 20134 20215 20236 20219 20181 20156 20134 20196 20310 20408 20432 20408 20368 20358 20327 20289 20304 20280 20204 20161 20162 20183 20203 20199 20199 20238 20252 20240 20217 20213 20273 20400 20504 20538 20491 20447 20405 20386 20366 20385 20354 20252 20219 20254 20324 20332 20350 20365 20349 20347 20353 20342 20340 20408 20512 20621 20658 20648 20641 20623 20617 20632 20655 20660 20572 20498 20515 20536 20541 20535 20553 20603 20638 20677 20712 20735 20786 20850 20919 20896 20822 20754 20716 20718 20711 20679 20639 20556 20455 20409 20413 20430 20424 20451 20479 20486 20489 20512 20490 20440 20494 20566 20594 20581 20568 20570 20614 20613 20604 20566 20517 20417 20382 20410 20432 20453 20501 20537 20607 20717 20789 20875 20972 20997 21062 21162 21325 21425 21483 21533 21606 21541 21486 21494 21447 21384 21404 21452 21473 21455 21454 21429 21427 21426 21412 21414 21413 21403 21411 21473 21582 21726 21879 22012 22071 22001 21878 21820 21822 21963 22081 22119 22101 22106 22087 22077 22067 22064 22041 21970 21907 21837 21785 21732 21740 21785 21841 21871 21890 21894 21890 21887 21866 21842 21757 21684 21702 21828 21961 22071 22115 22141 22142 22146 22109 22088 22077 22005 21918 21856 21821 21858 21904 21924 21985 22023 22026 21989 21930 21876 21765 21705 21762 21863 21921 21903 21889 21875 21847 21814 21805 21814 21751 21632 21566 21572 21583 21591 21592 21570 21550 21519 21488 21447 21402 21374 21337 21327 21343 21368 21356 21404 21429 21411 21373 21329 21315 21227 21134 21085 21045 21061 21083 21060 21044 21078 21126 21145 21104 21009 20959 20989 21074 21140 21183 21204 21206 21211 21206 21230 21182 21115 21086 21070 21037 21026 20998 20980 20960 20994 20977 20944 20929 20957 20982 21007 20993 20962 20906 20876 20867 20858 20833 20781 20713 20684 20694 20675 20636 20588 20561 20590 20582 20569 20499 20455 20499 20645 20769 20812 20833 20861 20903 20980 21013 21001 20930 20821 20778 20784 20781 20783 20786 20762 20743 20758 20757 20724 20699 20714 20776 20858 20902 20875 20844 20848 20890 20947 21022 21008 20939 20936 20948 20977 20990 20978 20922 20864 20836 20802 20785 20766 20748 20769 20851 20961 21058 21054 21070 21055 21041 21014 21018 20976 20911 20839 20829 20832 20834 20836 20830 20821 20797 20774 20745 20727 20731 20726 20765 20841 20887 20884 20852 20823 20799 20791 20777 20790 20708 20592 20509 20496 20488 20487 20474 20488 20482 20457 20450 20443 20462 20457 20529 20586 20581 20574 20534 20521 20481 20476 20431 20421 20381 20293 20264 20254 20268 20210 20158 20127 20143 20138 20118 20090 20098 20123 20172 20272 20382 20484 20523 20521 20497 20460 20430 20406 20396 20384 20301 20237 20235 20229 20246 20263 20299 20304 20326 20276 20270 20268 20253 20284 20344 20386 20387 20368 20360 20332 20330 20326 20360 20376 20313 20229 20190 20184 20205 20213 20224 20283 20341 20340 20337 20314 20303 20306 20339 20376 20387 20397 20386 20390 20393 20370 20357 20383 20404 20342 20277 20297 20314 20318 20315 20320 20351 20372 20413 20427 20480 20511 20488 20523 20595 20661 20666 20636 20631 20616 20610 20589 20564 20570 20631 20588 20481 20467 20482 20506 20547 20560 20592 20627 20628 20654 20713 20771 20813 20891 20930 20969 20963 20960 20979 21015 21015 20998 20965 20957 20906 20824 20777 20770 20781 20769 20783 20801 20824 20877 20936 20995 21033 21012 20968 20973 20988 21001 21041 21087 21104 21075 21059 21109 21104 21092 21087 21060 21052 21041 21011 21021 21013 20998 21037 21016 20937 20876 20860 20869 20861 20869 20867 20839 20814 20802 20802 20769 20698 20697 20717 20735 20740 20740 20762 20745 20763 20771 20793 20814 20799 20763 20796 20801 20735 20705 20669 20658 20643 20641 20639 20656 20666 20670 20689 20728 20787 20837 20864 20860 20879 20906 20927 20924 20921 20943 20943 20975 20959 20943 20918 20944 20968 21003 21005 21012 21044 21077 21121 21149 21174 21208 21261 21304 21298 21260 21240 21211 21170 21119 21049 20988 20950 20909 20849 20806 20761 20734 20705 20658 20608 20559 20526 20493 20503 20479 20467 20488 20505 20510 20531 20538 20562 20545 20517 20474 20456 20492 20537 20554 20577 20566 20576 20573 20495 20430 20397 20386 20381 20399 20431 20435 20515 20588 20586 20568 20490 20438 20443 20443 20473 20502 20500 20414 20440 20451 20504 20568 20645 20686 20715 20762 20812 20896 20998 21100 21171 21234 21261 21262 21240 21217 21185 21175 21183 21218 21255 21348 21444 21544 21635 21709 21757 21790 21779 21742 21690 21667 21626 21605 21596 21580 21571 21579 21569 21539 21545 21524 21527 21516 21497 21499 21453 21438 21426 21418 21419 21435 21431 21446 21450 21463 21492 21508 21495 21516 21520 21501 21477 21485 21482 21468 21468 21457 21450 21450 21450 21464 21462 21455 21446 21459 21445 21436 21461 21469 21504 21489 21449 21472 21447 21374 21302 21261 21244 21222 21186 21133 21065 20999 20931 20880 20839 20781 20723 20717 20730 20750 20726 20690 20672 20663 20628 20549 20510 20502 20535 20555 20580 20620 20658 20668 20682 20689 20727 20742 20743 20729 20689 20667 20662 20676 20659 20644 20584 20564 20544 20487 20429 20388 20376 20374 20385 20363 20308 20293 20264 20220 20178 20151 20138 20081 20077 20078 20088 20085 20098 20086 20042 20019 20023 20009 19971 19990 20013 20055 20077 20102 20184 20288 20424 20541 20599 20608 20573 20528 20465 20449 20448 20445 20468 20467 20458 20462 20421 20385 20340 20320 20319 20323 20292 20256 20207 20178 20151 20145 20139 20112 20098 20094 20112 20152 20184 20211 20227 20254 20239 20213 20192 20182 20171 20154 20153 20170 20147 20131 20111 20126 20133 20148 20136 20130 20102 20112 20100 20091 20085 20071 20059 20057 20036 20034 20023 20025 20017 20014 20018 20020 19987 19978 19977 19992 19977 19963 19940 19918 19916 19917 19909 19910 19889 19858 19837 19813 19807 19798 19787 19762 19741 19730 19708 19700 19692 19678 19653 19646 19624 19603 19597 19577 19549 19550 19531 19526 19515 19504 19492 19462 19464 19464 19467 19457 19453 19424 19411 19384 19369 19367 19369 19358 19339 19349 19340 19318 19329 19326 19324 19318 19313 19282 19274 19247 19256 19246 19241 19240 19227 19212 19221 19222 19212 19210 19217 19208 19199 19174 19151 19156 19156 19161 19150 19135 19129 19121 19130 19114 19122 19128 19121 19114 19108 19076 19064 19069 19078 19059 19069 19073 19069 19041 19041 19035 19027 19014 19011 19012 18987 18965 18957 18951 18940 18951 18957 18938 18965 18959 18974 18968 18974 18966 18965 18961 18942 18915 18903 18900 18880 18887 18870 18854 18841 18844 18820 18842 18826 18825 18821 18825 18816 18784 18768 18759 18760 18762 18772 18742 18748 18743 18741 18749 18769 18757 18758 18773 18767 18745 18731 18737 18736 18760 18770 18773 18785 18796 18798 18811 18802 18813 18811 18819 18828 18818 18788 18766 18796 18796 18795 18781 18801 18796 18795 18808 18826 18827 18830 18818 18830 18819 18783 18780 18774 18762 18773 18748 18751 18744 18740 18751 18739 18736 18742 18748 18724 18717 18701 18680 18675 18684 18703 18697 18709 18694 18703 18701 18704 18695 18703 18697 18692 18683 18662 18661 18645 18665 18670 18673 18677 18684 18687 18681 18680 18695 18696 18709 18724 18713 18686 18682 18672 18671 18680 18668 18661 18653 18671 18662 18670 18675 18689 18674 18679 18682 18675 18642 18635 18631 18619 18611 18599 18593 18592 18580 18586 18577 18582 18576 18573 18585 18558 18542 18530 18523 18533 18537 18551 18546 18551 18557 18542 18559 18563 18563 18570 18558 18568 18552 18528 18519 18525 18523 18521 18534 18536 18542 18533 18530 18533 18534 18553 18536 18535 18553 18533 18501 18499 18505 18493 18488 18498 18500 18481 18486 18476 18478 18457 18455 18457 18450 18449 18434 18418 18407 18409 18408 18414 18414 18408 18393 18403 18393 18393 18382 18398 18382 18392 18384 18366 18354 18341 18363 18370 18374 18375 18369 18367 18383 18373 18376 18376 18374 18364 18377 18372 18351 18330 18333 18325 18316 18308 18323 18328 18341 18343 18331 18318 18350 18395 18393 18417 18415 18424 18398 18379 18381 18379 18379 18404 18399 18391 18405 18411 18413 18420 18438 18434 18432 18455 18452 18413 18387 18364 18370 18376 18377 18384 18386 18378 18374 18357 18365 18358 18371 18360 18372 18341 18333 18323 18313 18315 18309 18312 18299 18304 18311 18283 18281 18340 18379 18355 18352 18352 18370 18365 18356 18359 18376 18385 18415 18410 18400 18388 18393 18403 18442 18448 18472 18499 18522 18542 18548 18531 18527 18523 18498 18463 18451 18473 18496 18517 18500 18471 18449 18475 18495 18471 18447 18419 18420 18411 18387 18387 18382 18394 18377 18387 18385 18379 18372 18361 18380 18394 18419 18433 18481 18506 18515 18524 18532 18533 18563 18576 18601 18617 18632 18640 18645 18613 18595 18582 18559 18532 18537 18538 18530 18525 18510 18520 18531 18539 18527 18548 18540 18512 18486 18497 18470 18479 18494 18502 18495 18475 18472 18472 18480 18486 18516 18555 18556 18510 18509 18508 18498 18484 18473 18499 18516 18537 18547 18548 18561 18540 18541 18556 18568 18539 18525 18502 18499 18499 18495 18491 18489 18489 18517 18532 18523 18539 18555 18532 18524 18499 18484 18497 18503 18509 18510 18522 18516 18527 18529 18528 18524 18527 18514 18511 18494 18455 18451 18438 18431 18442 18437 18439 18431 18442 18442 18471 18461 18459 18466 18462 18437 18428 18402 18389 18387 18366 18387 18366 18377 18375 18401 18412 18395 18371 18357 18346 18350 18330 18326 18297 18314 18304 18296 18295 18261 18268 18287 18297 18292 18268 18250 18282 18319 18330 18307 18293 18266 18272 18280 18286 18294 18299 18331 18320 18307 18293 18307 18309 18287 18284 18279 18273 18257 18232 18235 18226 18239 18249 18243 18256 18243 18248 18252 18236 18222 18213 18215 18219 18213 18211 18184 18168 18159 18162 18167 18154 18176 18174 18189 18177 18201 18206 18189 18200 18205 18210 18213 18199 18188 18179 18168 18163 18153 18148 18160 18147 18158 18154 18147 18154 18152 18183 18187 18183 18184 18209 18206 18191 18194 18186 18173 18179 18192 18199 18192 18177 18187 18183 18223 18224 18257 18254 18218 18180 18182 18166 18169 18195 18211 18214 18206 18179 18174 18169 18143 18113 18135 18163 18215 18211 18210 18207 18239 18226 18232 18241 18253 18278 18318 18333 18363 18377 18401 18385 18387 18398 18349 18343 18335 18337 18325 18320 18318 18314 18313 18292 18294 18295 18282 18272 18290 18308 18305 18331 18381 18405 18416 18422 18436 18451 18463 18461 18446 18433 18444 18443 18450 18465 18450 18454 18456 18439 18453 18440 18446 18445 18441 18448 18459 18445 18466 18448 18428 18428 18421 18422 18420 18411 18414 18416 18397 18410 18409 18408 18407 18393 18407 18400 18406 18397 18366 18352 18338 18348 18346 18331 18325 18324 18321 18300 18312 18306 18301 18320 18300 18321 18322 18330 18321 18285 18263 18273 18276 18269 18281 18277 18272 18264 18265 18274 18270 18276 18275 18274 18279 18288 18281 18249 18224 18229 18236 18235 18236 18219 18221 18226 18222 18237 18225 18230 18245 18245 18249 18250 18276 18268 18263 18248 18226 18237 18235 18236 18231 18236 18223 18227 18236 18237 18235 18236 18240 18252 18258 18243 18245 18258 18264 18223 18214 18205 18215 18195 18205 18197 18198 18193 18218 18234 18251 18270 18298 18308 18362 18387 18398 18384 18368 18356 18395 18436 18473 18489 18480 18471 18450 18451 18485 18507 18617 18838 19159 19388 19558 19752 19929 20073 20180 20286 20404 20406 20441 20487 20322 20246 20234 20213 20145 20111 20097 20126 20150 20220 20303 20356 20445 20488 20551 20602 20645 20688 20728 20753 20788 20815 20883 20952 21023 21034 21068 21110 21124 21184 21166 21234 21437 21765 22084 22222 22286 22116 21985 21951 22100 22205 22311 22381 22431 22490 22500 22493 22546 22665 22878 23204 23595 23903 24390 24791 24844 24817 24765 24703 24614 24540 24446 24392 24311 24192 24122 24065 24074 24083 24100 24167 24239 24328 24370 24383 24398 24412 24459 24502 24506 24464 24405 24433 24554 24671 24839 24986 25178 25345 25527 25688 25856 26014 26138 26206 26232 26182 25940 25718 25605 25547 25531 25544 25531 25514 25516 25513 25540 25515 25504 25516 25494 25433 25377 25330 25279 25263 25230 25228 25211 25160 25154 25119 25095 25098 25067 25058 25048 25035 25016 25010 24957 24911 24862 24822 24789 24757 24722 24709 24696 24680 24661 24653 24653 24641 24653 24654 24670 24661 24665 24630 24593 24550 24519 24486 24464 24447 24432 24422 24383 24373 24347 24344 24360 24383 24388 24420 24423 24459 24450 24481 24465 24431 24410 24370 24342 24338 24338 24351 24352 24339 24346 24369 24380 24417 24425 24420 24430 24415 24415 24385 24360 24376 24381 24383 24420 24445 24444 24482 24533 24552 24576 24610 24661 24689 24728 24770 24793 24818 24834 24831 24815 24794 24761 24734 24714 24678 24673 24668 24650 24653 24689 24750 24829 24857 24872 24919 24965 25033 25083 25133 25115 25119 25169 25223 25270 25353 25445 25520 25607 25683 25773 25804 25802 25791 25785 25807 25830 25849 25839 25830 25790 25744 25678 25602 25539 25471 25424 25373 25314 25265 25200 25141 25054 24989 24933 24902 24875 24877 24866 24899 24897 24860 24815 24750 24694 24619 24575 24519 24489 24417 24377 24345 24297 24273 24254 24245 24235 24262 24257 24289 24402 24585 24761 24907 24960 24910 24851 24818 24835 24841 24850 24838 24799 24775 24759 24736 24717 24703 24722 24718 24753 24742 24746 24741 24691 24648 24610 24557 24526 24489 24455 24419 24390 24352 24343 24322 24314 24285 24284 24292 24290 24295 24283 24281 24259 24207 24168 24134 24098 24086 24067 24084 24087 24091 24093 24122 24118 24123 24149 24178 24200 24236 24275 24334 24385 24433 24451 24478 24510 24543 24581 24623 24629 24653 24650 24651 24656 24645 24635 24624 24620 24629 24636 24676 24711 24762 24821 24843 24850 24870 24878 24889 24897 24915 24917 24922 24914 24913 24926 24906 24922 24920 24926 24927 24946 24958 24975 25000 24992 24987 24987 24960 24962 24951 24922 24920 24919 24923 24925 24872 24869 24882 24888 24894 24904 24926 24934 24945 24970 24981 24992 24970 24965 24946 24936 24927 24910 24913 24897 24889 24847 24821 24778 24727 24708 24675 24641 24589 24570 24518 24463 24410 24329 24283 24232 24197 24154 24120 24086 24038 24009 23993 23966 23945 23925 23925 23883 23881 23851 23814 23771 23701 23653 23609 23570 23527 23522 23508 23504 23512 23509 23530 23542 23578 23619 23638 23686 23695 23723 23742 23740 23740 23724 23720 23724 23729 23704 23701 23710 23661 23635 23601 23578 23579 23554 23578 23557 23560 23562 23550 23531 23503 23468 23462 23427 23437 23431 23452 23446 23434 23443 23472 23468 23488 23498 23495 23515 23529 23560 23543 23507 23495 23472 23457 23450 23451 23453 23452 23473 23521 23558 23600 23621 23672 23748 23846 23933 24011 24079 24134 24152 24179 24224 24248 24287 24300 24289 24322 24314 24341 24343 24346 24362 24371 24365 24381 24403 24388 24409 24405 24392 24375 24346 24355 24357 24373 24373 24382 24404 24396 24417 24436 24462 24469 24474 24514 24540 24564 24585 24584 24581 24602 24623 24592 24569 24541 24551 24548 24575 24573 24549 24532 24514 24514 24479 24440 24415 24396 24364 24356 24300 24260 24206 24186 24146 24128 24107 24095 24069 24048 24041 24018 24012 24016 23997 23991 24006 24046 24094 24108 24084 24104 24144 24220 24338 24514 24660 24851 25016 25177 25282 25378 25409 25567 25783 26033 26241 26460 26675 26883 27061 27195 27280 27367 27468 27599 27758 27890 27971 27984 27977 27968 27961 27961 27949 27961 27969 27963 27980 27982 27993 28004 28007 27997 27999 27988 27965 27951 27957 27936 27896 27883 27879 27837 27813 27770 27733 27699 27670 27612 27584 27527 27478 27458 27379 27270 27173 27084 26998 26914 26865 26777 26692 26646 26600 26557 26517 26482 26460 26455 26443 26439 26421 26415 26378 26256 26156 26059 25976 25893 25823 25743 25661 25573 25499 25433 25384 25319 25262 25243 25197 25183 25173 25160 25131 25063 24979 24907 24830 24778 24737 24670 24622 24591 24541 24510 24466 24433 24394 24367 24322 24288 24259 24220 24175 24110 24011 23924 23844 23786 23725 23700 23654 23603 23556 23523 23480 23436 23419 23394 23357 23338 23299 23274 23239 23204 23144 23079 23039 23016 23021 23007 23010 23011 22981 22978 22932 22905 22884 22865 22847 22863 22861 22817 22784 22708 22669 22626 22601 22570 22553 22560 22545 22535 22557 22543 22546 22557 22567 22582 22572 22571 22589 22591 22570 22540 22491 22467 22435 22417 22421 22416 22400 22386 22385 22400 22417 22440 22457 22477 22501 22467 22431 22384 22354 22338 22322 22294 22294 22291 22310 22320 22345 22343 22336 22330 22314 22316 22328 22362 22310 22241 22215 22201 22186 22162 22134 22089 22040 22017 22026 22012 22036 22048 22089 22068 22050 22018 21970 21940 21936 21910 21902 21866 21865 21857 21805 21787 21802 21799 21768 21752 21733 21722 21680 21597 21552 21515 21503 21471 21472 21472 21463 21462 21488 21501 21543 21593 21642 21734 21829 21887 21942 22004 22083 22143 22207 22450 22761 23027 23171 23222 23231 23207 23205 23238 23309 23387 23461 23530 23561 23589 23621 23682 23735 23794 23817 23842 23876 23927 23911 23956 24061 24155 24178 24150 24105 24086 24107 24119 24111 24063 24033 24003 23984 23967 23938 23914 23879 23845 23802 23764 23706 23662 23622 23587 23569 23549 23536 23522 23497 23482 23484 23484 23488 23520 23510 23513 23529 23525 23512 23497 23494 23502 23514 23540 23550 23551 23537 23539 23535 23487 23456 23413 23380 23337 23301 23298 23298 23259 23225 23164 23137 23102 23070 23047 23019 23013 22991 22977 22971 22953 22949 22934 22959 22990 22998 23005 23005 23029 23062 23093 23132 23134 23141 23117 23116 23096 23079 23069 23085 23093 23077 23086 23068 23068 23026 22987 22973 22956 22934 22927 22920 22909 22887 22881 22864 22849 22829 22835 22824 22821 22818 22809 22816 22795 22748 22727 22661 22642 22604 22564 22542 22498 22456 22414 22379 22308 22284 22249 22221 22198 22195 22199 22204 22193 22141 22089 22048 22027 22029 22065 22086 22093 22104 22130 22177 22219 22188 22180 22156 22127 22094 22058 22034 22018 21988 21974 21941 21947 21953 21950 21951 21960 21971 21992 21977 22000 22001 22009 21992 21993 22003 22013 21995 22013 22013 22011 22011 22150 22245 22326 22445 22577 22762 22925 23101 23247 23375 23455 23508 23590 23642 23683 23744 23791 23840 23858 23866 23871 23868 23876 23888 23893 23910 23937 23970 23978 23893 23827 23702 23597 23502 23435 23369 23312 23271 23203 23127 23045 22975 22913 22884 22915 22950 22959 22978 22981 23054 23150 23286 23392 23464 23577 23808 24095 24317 24398 24362 24327 24256 24208 24226 24239 24247 24245 24301 24354 24436 24494 24527 24514 24432 24415 24406 24482 24554 24557 24551 24484 24428 24444 24505 24537 24534 24521 24444 24287 24109 23934 23779 23662 23599 23565 23533 23540 23572 23591 23639 23653 23641 23671 23702 23729 23764 23809 23828 23847 23848 23844 23858 23878 23904 23926 23945 23997 24075 24144 24231 24296 24345 24400 24435 24412 24331 24260 24188 24129 24083 24038 24007 23976 23952 23928 23886 23864 23833 23826 23821 23776 23735 23677 23631 23590 23580 23601 23666 23793 23921 24033 24160 24274 24428 24566 24717 24889 25078 25235 25352 25451 25383 25247 25060 24909 24868 24829 24802 24807 24814 24815 24796 24791 24794 24773 24799 24809 24843 24876 24882 24907 24898 24876 24862 24847 24832 24834 24839 24823 24839 24863 24859 24892 24885 24909 24915 24894 24852 24810 24765 24731 24692 24616 24552 24491 24421 24342 24320 24262 24217 24221 24248 24301 24351 24404 24473 24495 24524 24564 24591 24603 24638 24629 24624 24604 24592 24579 24568 24553 24563 24558 24545 24565 24559 24586 24593 24649 24671 24712 24727 24739 24766 24747 24744 24693 24664 24664 24656 24630 24633 24632 24654 24806 25151 25339 25488 25555 25434 25352 25384 25387 25454 25465 25433 25308 25177 25051 24972 24933 24883 24838 24849 24846 24874 24801 24748 24782 24834 24798 24695 24643 24586 24551 24519 24479 24451 24365 24279 24136 23954 23824 23775 23775 23791 23851 23933 24003 24093 24214 24313 24389 24479 24537 24600 24635 24662 24665 24680 24666 24666 24669 24666 24651 24645 24659 24651 24667 24676 24685 24690 24709 24732 24740 24744 24751 24742 24723 24723 24719 24724 24742 24744 24752 24778 24774 24805 24804 24816 24833 24861 24866 24873 24889 24899 24882 24868 24840 24823 24813 24783 24789 24758 24751 24745 24724 24711 24719 24704 24696 24688 24695 24689 24666 24666 24608 24543 24489 24431 24397 24334 24310 24279 24257 24235 24213 24206 24200 24170 24165 24145 24139 24122 24111 24097 24092 24014 23959 23909 23850 23792 23765 23705 23672 23627 23609 23593 23550 23528 23520 23477 23462 23438 23426 23411 23371 23344 23319 23282 23246 23211 23193 23167 23182 23171 23200 23227 23271 23361 23531 23616 23717 23806 23836 23878 23907 23865 23859 23771 23681 23632 23564 23499 23511 23462 23500 23540 23590 23595 23613 23610 23591 23571 23548 23512 23450 23415 23369 23368 23394 23435 23482 23538 23611 23709 23771 23846 23904 23989 24031 24103 24161 24214 24263 24306 24329 24338 24352 24393 24403 24435 24465 24475 24507 24533 24551 24570 24599 24644 24674 24692 24729 24739 24750 24741 24747 24753 24766 24762 24784 24802 24841 24873 24921 24955 24974 25000 25018 25031 25050 25054 25034 24987 24930 24921 24971 25062 25151 25200 25251 25282 25295 25331 25354 25336 25343 25358 25440 25429 25417 25380 25357 25402 25474 25520 25554 25624 25654 25718 25776 25855 25954 26060 26120 26132 26079 25959 25835 25749 25679 25688 25700 25729 25759 25723 25638 25500 25385 25304 25234 25145 25075 24993 24946 24949 24928 24951 24949 24976 25011 25045 25065 25081 25079 25060 25054 25056 25035 25063 25070 25086 25090 25079 25077 25052 25065 25076 25111 25113 25126 25153 25184 25185 25175 25150 25130 25118 25109 25111 25109 25100 25111 25101 25099 25113 25124 25123 25159 25149 25153 25173 25194 25176 25161 25140 25148 25153 25145 25149 25159 25169 25195 25202 25209 25202 25227 25255 25265 25277 25298 25311 25324 25307 25313 25337 25343 25333 25337 25384 25441 25452 25432 25415 25403 25348 25346 25317 25301 25268 25199 25117 25060 25011 24984 24962 24952 24952 24915 24947 24989 25018 24997 24990 24952 24939 24924 24872 24879 24844 24850 24840 24815 24805 24788 24766 24774 24766 24795 24786 24780 24786 24799 24802 24816 24832 24854 24870 24890 24881 24914 24912 24930 24924 24927 24906 24899 24905 24905 24908 24912 24921 24936 24939 24964 24966 24997 24988 25017 25051 25063 25073 25102 25124 25091 25102 25092 25104 25109 25132 25140 25144 25157 25165 25182 25191 25204 25230 25233 25249 25270 25237 25252 25278 25278 25271 25286 25286 25277 25278 25289 25338 25393 25381 25305 25234 25227 25198 25172 25112 25044 24972 24913 24898 24869 24856 24859 24925 24995 25035 25003 24926 24904 24926 24964 25005 25044 25131 25214 25250 25263 25227 25173 25091 25007 24934 24865 24799 24735 24674 24604 24540 24488 24410 24383 24376 24362 24361 24397 24435 24444 