36463 36468 36533 35845 36303 36374 36399 36414 36447 36447 36456 36444 36470 36464 36469 36481 36481 36491 36460 36407 36380 36351 36342 36335 36348 36345 36346 36356 36386 36407 36412 36447 36485 36479 36504 36468 36434 36423 36433 36403 36416 31754 31779 31778 31789 31806 31807 31823 31846 31862 31861 31837 31808 31792 31794 31788 31797 31793 31814 31804 31816 31833 31839 31859 31868 31897 31896 31882 31872 31841 31832 31821 31831 31845 31831 31849 31862 31861 31872 31892 31908 31917 31942 31957 31942 31914 31906 31903 31909 31898 31930 31940 31929 31954 31964 31982 31998 32006 32031 32048 32083 32084 32063 32054 32038 32040 32052 32046 32055 32069 32079 32085 32106 32115 32135 32135 32168 32174 32196 32217 32219 32203 32181 32185 32186 32188 32190 32209 32216 32230 32236 32245 32267 32287 32304 32314 32335 32351 32374 32361 32359 32340 32327 32327 32331 32329 32347 32352 32342 32361 32371 32389 32408 32417 32428 32441 32461 32481 32484 32498 32484 32460 32439 32432 32417 32384 32376 32394 32409 32421 32399 32418 32409 32433 32429 32445 32449 32474 32482 32485 32474 32444 32400 32390 32359 32369 32355 32353 32344 32336 32347 32339 32337 32346 32347 32355 32367 32366 32367 32382 32347 32299 32287 32268 32239 32221 32210 32206 32197 32204 32225 32241 32250 32268 32276 32301 32328 32345 32378 32367 32341 32337 32300 32288 32291 32293 32293 32301 32317 32321 32341 32338 32366 32355 32385 32398 32411 32430 32419 32400 32372 32335 32320 32313 32304 32296 32312 32308 32296 32303 32307 32327 32316 32339 32324 32364 32370 32378 32344 32302 32279 32261 32261 32239 32230 32234 32208 32224 32219 32240 32228 32237 32255 32270 32283 32283 32268 32236 32202 32161 32137 32125 32129 32114 32121 32119 32133 32137 32151 32165 32166 32174 32196 32215 32209 32176 32138 32116 32089 32090 32067 32073 32080 32078 32078 32104 32102 32133 32135 32170 32182 32208 32226 32212 32175 32150 32118 32104 32126 32120 32112 32108 32127 32122 32133 32149 32150 32169 32174 32190 32203 32212 32166 32143 32118 32092 32085 32084 32091 32083 32091 32108 32106 32127 32132 32148 32156 32189 32197 32217 32230 32185 32162 32118 32121 32108 32110 32104 32130 32119 32133 32158 32150 32176 32188 32197 32212 32249 32274 32287 32262 32250 32225 32217 32208 32211 32221 32227 32233 32232 32250 32256 32272 32289 32297 32327 32339 32369 32365 32376 32356 32326 32327 32326 32338 32346 32360 32373 32398 32413 32438 32465 32483 32512 32544 32569 32587 32609 32618 32610 32596 32587 32591 32581 32594 32588 32605 32597 32612 32615 32628 32634 32654 32674 32683 32698 32713 32700 32707 32670 32650 32630 32613 32599 32602 32583 32579 32572 32595 32588 32599 32620 32611 32618 32640 32641 32647 32606 32571 32517 32484 32467 32416 32392 32354 32315 32289 32254 32233 32213 32200 32181 32164 32142 32137 32084 32000 31920 31831 31774 31723 31665 31630 31591 31556 31514 31499 31477 31466 31439 31437 31410 31420 31404 31352 31272 31192 31127 31085 31058 31040 31021 31004 30965 30972 30961 30959 30970 30968 30966 30974 30987 30981 30944 30888 30846 30830 30823 30811 30805 30798 30788 30747 30744 30742 30753 30758 30784 30835 30847 30868 30887 30838 30770 30744 30727 30744 30760 30786 30822 30844 30896 30950 30976 31014 31042 31038 30992 31033 30994 30988 30938 30930 30903 30904 30900 30908 30893 30880 30889 30862 30876 30874 30880 30940 30982 31033 31114 31142 31191 31242 31287 31374 31526 31679 31862 32062 32254 32427 32589 32744 32895 33022 33120 33218 33286 33379 33419 33480 33527 33613 33664 33698 33776 33826 33871 33928 33972 34023 34075 34127 34185 34236 34299 34346 34408 34480 34529 34549 34601 34643 34665 34704 34746 34796 34855 34897 34929 34996 35043 35086 35139 35179 35208 35240 35286 35320 35362 35391 35425 35457 35483 35501 35524 35542 35574 35604 35626 35683 35694 35707 35724 35720 35721 35714 35729 35736 35760 35763 35740 35747 35739 35721 35677 35612 35553 35494 35417 35312 35186 35053 34928 34786 34586 34328 34133 33932 33755 33587 33440 33296 33159 33038 32898 32765 32562 32347 32174 32017 31872 31744 31597 31474 31340 31261 31155 31051 30964 30882 30801 30712 30582 30425 30263 30133 30019 29928 29822 29736 29634 29550 29485 29420 29362 29316 29244 29192 29137 29025 28911 28806 28719 28652 28616 28550 28512 28449 28421 28380 28346 28327 28290 28281 28251 28223 28163 28089 28001 27944 27880 27848 27822 27796 27751 27729 27706 27675 27668 27662 27656 27665 27662 27675 27649 27610 27568 27561 27575 27593 27611 27635 27642 27668 27698 27712 27729 27738 27766 27790 27807 27807 27784 27748 27727 27723 27753 27764 27802 27815 27842 27864 27877 27888 27911 27937 27947 27969 27996 28007 28006 27977 27944 27943 27956 27964 27990 28001 27995 27996 27991 27977 27989 27980 27986 27987 27986 28000 27995 27988 27953 27936 27927 27921 27930 27969 27976 27980 27999 28021 28047 28067 28077 28111 28133 28170 28176 28188 28186 28161 28143 28132 28133 28152 28150 28163 28144 28151 28145 28129 28131 28133 28154 28147 28151 28159 28165 28150 28133 28120 28127 28125 28166 28182 28195 28198 28212 28220 28260 28289 28326 28366 28416 28496 28715 28986 29175 29292 29410 29461 29520 29552 29563 29569 29592 29587 29604 29602 29594 29587 29577 29592 29578 29570 29542 29503 29469 29450 29421 29415 29421 29392 29413 29421 29451 29500 29527 29560 29589 29592 29579 29556 29501 29421 29360 29327 29301 29276 29254 29253 29238 29194 29188 29149 29143 29133 29138 29130 29137 29118 29099 29032 28996 29003 29081 29180 29242 29245 29231 29191 29148 29113 29101 29052 29051 29022 29025 29008 29008 29024 29158 29381 29571 29746 29885 29982 30077 30289 30331 30516 30785 31025 31226 31236 31239 31382 31589 31627 31650 31601 31521 31408 31317 31271 31252 31234 31230 31216 31203 31200 31211 31211 31217 31231 31232 31222 31168 31128 31090 31044 31007 30962 30935 30903 30861 30858 30843 30833 30800 30782 30730 30707 30702 30704 30674 30617 30555 30509 30453 30415 30370 30320 30280 30231 30178 30160 30127 30063 30043 30053 30080 30088 30112 30102 30074 30020 29932 29875 29821 29789 29769 29729 29701 29677 29680 29663 29646 29638 29604 29573 29525 29504 29481 29458 29430 29413 29380 29353 29327 29329 29347 29353 29375 29366 29376 29352 29320 29290 29268 29271 29270 29240 29202 29143 29111 29091 29070 29033 28997 28947 28906 28906 28921 28959 28977 28972 28942 28942 28965 28965 28994 28977 28959 28942 28911 28866 28833 28832 28810 28790 28762 28741 28747 28758 28769 28776 28740 28708 28675 28646 28743 28772 28784 28786 28744 28725 28728 28758 28777 28814 28829 28828 28816 28768 28741 28764 28743 28708 28646 28619 28595 28596 28588 28570 28530 28499 28476 28514 28564 28599 28616 28598 28580 28560 28573 28587 28634 28647 28647 28614 28587 28544 28575 28609 28589 28555 28546 28558 28610 28681 28755 28728 28681 28656 28652 28670 28703 28701 28682 28647 28639 28658 28686 28753 28770 28792 28784 28737 28692 28696 28690 28643 28594 28594 28644 28670 28665 28638 28620 28590 28558 28533 28563 28587 28599 28606 28559 28509 28483 28496 28565 28607 28580 28558 28525 28486 28458 28434 28425 28390 28375 28410 28453 28476 28502 28494 28421 28397 28403 28420 28438 28460 28438 28400 28350 28346 28365 28425 28522 28607 28594 28528 28452 28403 28437 28487 28460 28411 28404 28441 28491 28566 28627 28652 28635 28618 28625 28623 28609 28572 28499 28462 28450 28455 28492 28546 28559 28553 28521 28475 28453 28541 28544 28505 28485 28520 28541 28583 28631 28668 28622 28585 28564 28597 28681 28700 28729 28693 28662 28618 28573 28553 28544 28524 28524 28483 28422 28387 28395 28368 28341 28319 28382 28459 28516 28574 28577 28536 28468 28433 28414 28461 28472 28470 28438 28388 28362 28356 28375 28421 28462 28451 28419 28322 28279 28253 28218 28213 28237 28316 28413 28473 28559 28621 28606 28594 28580 28595 28597 28601 28616 28607 28571 28544 28547 28550 28578 28628 28632 28626 28613 28578 28557 28584 28623 28659 28735 28828 28891 28909 28931 28938 28914 28872 28842 28867 28915 28945 28922 28862 28800 28781 28792 28807 28844 28852 28829 28784 28744 28781 28841 28865 28894 28936 28951 28943 28898 28871 28827 28787 28740 28724 28740 28756 28747 28735 28688 28674 28695 28719 28762 28814 28814 28771 28717 28661 28649 28698 28803 28841 28843 28868 28865 28878 28876 28858 28823 28796 28733 28702 28700 28700 28678 28622 28617 28601 28607 28651 28697 28688 28660 28619 28585 28551 28518 28466 28392 28342 28369 28418 28433 28431 28397 28341 28298 28271 28223 28229 28286 28268 28207 28134 28067 28036 28048 28132 28222 28273 28265 28212 28162 28155 28235 28274 28299 28361 28406 28432 28421 28387 28346 28333 28315 28296 28264 28255 28278 28264 28243 28230 28226 28247 28279 28304 28348 28328 28304 28276 28206 28264 28326 28326 28303 28329 28399 28455 28466 28405 28350 28298 28264 28237 28239 28273 28291 28261 28223 28213 28259 28294 28338 28359 28348 28298 28233 28180 28170 28203 28203 28174 28231 28288 28339 28365 28379 28361 28329 28322 28261 28249 28311 28323 28328 28286 28254 28266 28308 28417 28491 28529 28514 28508 28442 28426 28490 28501 28491 28453 28437 28475 28498 28500 28480 28440 28414 28389 28388 28413 28428 28397 28350 28322 28319 28355 28393 28439 28411 28385 28352 28310 28326 28439 28448 28436 28422 28446 28450 28458 28416 28385 28350 28330 28298 28286 28312 28423 28467 28460 28425 28394 28379 28365 28379 28405 28376 28346 28298 28246 28244 28228 28215 28186 28262 28340 28423 28459 28442 28393 28308 28253 28210 28211 28213 28236 28198 28173 28135 28139 28152 28213 28296 28343 28323 28286 28191 28148 28181 28181 28155 28125 28114 28144 28217 28237 28243 28200 28166 28137 28127 28210 28266 28256 28197 28144 28113 28120 28133 28184 28208 28196 28153 28123 28087 28120 28199 28218 28185 28150 28140 28139 28131 28129 28092 28068 28045 28010 28021 28081 28082 28088 28043 28036 28051 28103 28147 28195 28189 28128 28106 28047 28036 28066 28084 28086 28108 28150 28194 28220 28214 28214 28210 28194 28130 28095 28074 28073 28099 28059 28033 28040 28128 28205 28271 28331 28328 28306 28280 28230 28288 28406 28425 28424 28382 28375 28431 28485 28528 28508 28483 28454 28438 28421 28446 28458 28427 28368 28350 28378 28405 28461 28501 28511 28503 28455 28421 28453 28606 28701 28729 28756 28734 28703 28670 28646 28622 28594 28560 28532 28492 28472 28478 28465 28446 28443 28446 28479 28555 28649 28718 28710 28700 28670 28623 28637 28684 28709 28700 28658 28633 28631 28635 28652 28682 28661 28608 28551 28498 28479 28488 28475 28452 28428 28442 28471 28544 28613 28676 28666 28639 28615 28571 28533 28509 28484 28448 28428 28450 28495 28489 28497 28498 28504 28495 28479 28470 28475 28477 28473 28414 28361 28366 28432 28503 28567 28617 28596 28583 28542 28493 28548 28660 28679 28677 28668 28712 28714 28702 28686 28657 28632 28622 28597 28654 28761 28806 28823 28785 28755 28764 28774 28809 28858 28892 28905 28885 28835 28793 28849 28927 28961 28948 28924 28923 28920 28906 28861 28819 28759 28704 28661 28680 28716 28736 28729 28684 28676 28682 28700 28762 28840 28868 28849 28809 28732 28707 28801 28832 28815 28772 28754 28776 28785 28781 28747 28719 28694 28665 28796 28991 29073 29054 28984 28930 28896 28879 28868 28868 28878 28856 28829 28766 28727 28802 28894 28908 28853 28770 28703 28633 28587 28551 28526 28489 28432 28413 28476 28546 28582 28562 28516 28463 28450 28407 28384 28403 28409 28395 28345 28281 28248 28350 28393 28372 28332 28360 28426 28474 28512 28512 28439 28343 28287 28298 28374 28409 28408 28339 28295 28261 28267 28345 28418 28464 28451 28413 28341 28252 28270 28258 28220 28173 28207 28257 28295 28307 28312 28281 28258 28269 28312 28397 28387 28355 28292 28249 28230 28248 28284 28346 28393 28384 28365 28313 28291 28402 28473 28462 28393 28329 28307 28315 28302 28297 28260 28239 28202 28178 28271 28360 28370 28361 28323 28282 28251 28234 28254 28289 28289 28279 28241 28199 28179 28235 28264 28234 28261 28307 28341 28335 28315 28296 28251 28212 28197 28205 28215 28210 28180 28156 28158 28195 28294 28346 28388 28337 28325 28267 28230 28246 28247 28225 28175 28188 28237 28303 28341 28381 28386 28330 28264 28206 28218 28245 28257 28230 28191 28172 28206 28274 28374 28470 28498 28492 28472 28402 28400 28524 28539 28515 28472 28480 28516 28574 28636 28640 28605 28569 28545 28544 28571 28556 28527 28472 28438 28427 28465 28547 28617 28645 28626 28606 28556 28515 28596 28653 28644 28574 28535 28533 28526 28548 28552 28537 28499 28456 28435 28453 28475 28491 28450 28427 28413 28431 28437 28450 28452 28420 28379 28311 28304 28377 28426 28387 28339 28382 28407 28434 28447 28459 28407 28336 28273 28260 28265 28284 28267 28238 28223 28207 28288 28379 28440 28428 28435 28387 28316 28254 28246 28246 28236 28257 28262 28295 28330 28358 28404 28412 28394 28376 28391 28423 28433 28353 28291 28253 28273 28309 28380 28421 28448 28451 28407 28355 28335 28396 28435 28447 28436 28432 28416 28402 28396 28381 28339 28319 28285 28262 28312 28327 28323 28291 28266 28261 28289 28321 28359 28354 28335 28314 28255 28232 28328 28390 28382 28346 28327 28334 28373 28353 28366 28357 28296 28263 28293 28384 28424 28433 28392 28360 28334 28350 28362 28420 28471 28459 28428 28342 28262 28260 28352 28358 28323 28297 28311 28374 28429 28473 28471 28457 28426 28387 28363 28328 28306 28278 28272 28282 28317 28390 28457 28471 28437 28424 28387 28351 28393 28379 28323 28265 28236 28267 28332 28375 28435 28426 28384 28340 28339 28371 28395 28381 28309 28264 28249 28284 28377 28482 28559 28538 28533 28473 28422 28519 28594 28590 28543 28509 28500 28493 28500 28486 28452 28430 28400 28389 28430 28438 28456 28418 28389 28366 28373 28401 28462 28481 28463 28423 28404 28355 28407 28496 28484 28450 28432 28452 28459 28432 28428 28374 28329 28300 28278 28367 28395 28424 28397 28342 28319 28325 28360 28432 28466 28443 28394 28343 28282 28262 28333 28367 28337 28318 28364 28420 28428 28502 28516 28538 28497 28439 28412 28417 28409 28365 28311 28302 28324 28427 28538 28637 28663 28657 28620 28548 28490 28513 28466 28419 28377 28399 28436 28478 28526 28530 28508 28470 28452 28438 28433 28414 28337 28276 28250 28241 28338 28432 28501 28500 28493 28466 28408 28416 28462 28533 28532 28589 28572 28577 28565 28572 28561 28531 28496 28444 28428 28426 28428 28392 28352 28376 28455 28537 28570 28539 28493 28469 28422 28364 28425 28512 28540 28509 28468 28442 28446 28472 28498 28504 28477 28413 28346 28306 28305 28282 28244 28227 28222 28244 28265 28309 28336 28323 28311 28291 28253 28251 28240 28177 28138 28149 28181 28204 28269 28339 28374 28342 28336 28323 28312 28302 28314 28257 28246 28209 28215 28230 28348 28448 28489 28549 28597 28639 28633 28594 28578 28570 28555 28542 28554 28508 28463 28385 28329 28274 28234 28244 28344 28477 28619 28728 28771 28787 28880 29018 29178 29385 29620 29815 29948 30044 30122 30205 30294 30349 30427 30476 30555 30640 30687 30743 30755 30820 30945 31070 31184 31250 31279 31247 31244 31267 31293 31343 31387 31411 31482 31464 31421 31393 31430 31522 31605 31668 31686 31639 31619 31609 31598 31583 31601 31606 31643 31620 31571 31517 31565 31665 31747 31833 31856 31814 31838 31840 31852 31835 31839 31864 31900 31961 32007 32045 32181 32256 32325 32372 32381 32341 32326 32290 32227 32193 32182 32179 32206 32174 32107 32040 31985 31972 32011 32077 32069 32037 32030 31992 32002 32014 32026 32037 32037 31985 31950 31919 31893 31896 31921 31953 31937 31932 31910 31913 31896 31906 31925 31940 31905 31889 31857 31847 31856 31875 31890 31840 31831 31810 31807 31823 31856 31880 31921 31906 31836 31752 31737 31708 31733 31762 31773 31738 31697 31680 31696 31729 31742 31775 31768 31700 31645 31615 31627 31654 31675 31747 31751 31712 31707 31728 31730 31747 31778 31797 31782 31718 31674 31659 31685 31723 31776 31821 31817 31785 31786 31794 31794 31827 31843 31839 31778 31708 31682 31695 31743 31789 31827 31894 31870 31882 31877 31870 31882 31896 31882 31846 31760 31707 31699 31716 31761 31791 31830 31859 31864 31872 31892 31948 31959 31946 31906 31868 31839 31850 31918 31985 32022 32079 32148 32134 32151 32200 32221 32247 32235 32232 32223 32171 32177 32220 32304 32395 32442 32479 32477 32486 32523 32536 32520 32494 32487 32454 32393 32370 32402 32438 32499 32551 32599 32578 32593 32608 32593 32543 32524 32515 32489 32438 32406 32415 32465 32535 32571 32608 32612 32604 32577 32558 32485 32451 32438 32457 32450 32414 32396 32431 32472 32514 32555 32595 32529 32459 32370 32292 32231 32212 32221 32218 32182 32154 32184 32218 32268 32313 32283 32210 32161 32117 32082 32032 31996 31980 31950 31918 31878 31923 31980 32055 32111 32075 32023 31981 31912 31885 31861 31853 31862 31852 31816 31784 31828 31856 31884 31915 31918 31889 31869 31844 31829 31825 31846 31864 31887 31888 31885 31952 32002 32081 32153 32226 32207 32195 32206 32197 32214 32230 32292 32263 32159 32088 32105 32123 32202 32262 32313 32286 32306 32295 32268 32263 32278 32236 32174 32083 32067 32144 32251 32325 32385 32459 32454 32475 32495 32454 32419 32365 32320 32254 32187 32176 32192 32211 32221 32286 32327 32333 32359 32303 32262 32201 32152 32123 32066 32028 32044 32074 32127 32164 32214 32218 32168 32110 32061 32012 31971 31960 31954 31928 31902 31918 31938 31978 32044 32073 32013 31922 31832 31812 31824 31839 31864 31873 31838 31826 31871 31883 31929 31947 31951 31893 31873 31873 31864 31871 31895 31925 31943 31927 31865 31827 31799 31847 31891 31899 31874 31857 31823 31830 31840 31864 31879 31860 31732 31630 31590 31600 31647 31713 31782 31806 31842 31838 31844 31857 31834 31792 31774 31734 31670 31693 31735 31785 31844 31906 31912 31937 31883 31809 31753 31736 31746 31719 31668 31666 31694 31749 31807 31865 31884 31846 31778 31726 31713 31718 31757 31762 31736 31718 31714 31758 31835 31905 31953 31916 31849 31815 31805 31841 31881 31915 31941 31941 31905 31920 31950 31959 31976 32010 32017 32018 32004 32031 32031 32066 32094 32115 32051 31992 31960 31954 32019 32088 32125 32119 32087 32061 32085 32129 32187 32202 32171 32089 32037 32008 32056 32134 32208 32275 32251 32248 32271 32276 32252 32241 32222 32229 32174 32142 32138 32203 32247 32311 32358 32331 32316 32255 32190 32156 32169 32190 32200 32156 32134 32141 32165 32228 32294 32343 32319 32244 32211 32211 32235 32265 32263 32244 32201 32176 32222 32270 32314 32375 32385 32308 32287 32253 32256 32229 32256 32294 32327 32252 32156 32073 32080 32103 32174 32210 32220 32204 32183 32169 32169 32198 32191 32155 32063 31945 31916 31959 32049 32141 32202 32211 32215 32176 32138 32059 31989 31972 31989 31966 31903 31872 31930 32010 32099 32165 32171 32102 31980 31901 31835 31834 31843 31827 31803 31731 31710 31736 31796 31770 31737 31661 31591 31564 31546 31546 31555 31599 31631 31655 31628 31573 31534 31548 31602 31650 31661 31667 31686 31709 31726 31771 31827 31827 31759 31651 31601 31598 31666 31759 31822 31861 31862 31895 31934 31932 31903 31885 31892 31865 31832 31862 31887 31935 32021 32106 32132 32153 32114 32116 32127 32137 32161 32201 32201 32180 32183 32214 32254 32311 32351 32352 32338 32386 32393 32438 32478 32501 32531 32538 32512 32478 32466 32470 32521 32570 32584 32592 32613 32626 32676 32703 32737 32803 32815 32775 32705 32737 32882 33000 33094 33144 33103 33119 33155 33171 33133 33111 33086 33058 33006 32968 32946 33007 33086 33162 33178 33139 33106 33067 33031 32982 32963 32953 32961 32929 32872 32838 32871 32924 32978 32960 32909 32874 32881 32900 32903 32884 32884 32895 32882 32776 32633 32581 32579 32650 32679 32695 32674 32689 32724 32715 32692 32598 32483 32384 32277 32226 32245 32278 32355 32433 32445 32498 32459 32358 32252 32190 32145 32142 32122 32048 32035 32080 32126 32210 32298 32233 32158 32057 32027 31998 32000 32034 32053 32042 31989 31987 31978 31971 31989 32016 31982 32008 31993 31998 31991 31997 32040 32041 31956 31805 31731 31758 31793 31844 31901 31928 31971 32003 32051 32043 32028 31984 31953 31934 31877 31856 31891 31935 31989 32057 32123 32142 32205 32230 32183 32159 32159 32165 32182 32183 32173 32174 32189 32249 32284 32320 32305 32355 32391 32448 32499 32527 32543 32542 32550 32510 32470 32465 32510 32563 32574 32559 32597 32661 32710 32711 32751 32785 32779 32725 32658 32631 32665 32735 32811 32856 32857 32918 33012 33089 33112 33104 33098 33082 33048 32997 32983 33007 33023 33100 33139 33149 33144 33164 33168 33145 33143 33154 33152 33110 33071 33073 33099 33148 33219 33223 33163 33126 33116 33118 33104 33107 33089 33081 33054 33019 33012 32999 33010 33020 33015 32993 33010 33019 33034 33054 33074 33065 33076 32986 32853 32759 32713 32719 32741 32785 32807 32827 32818 32822 32814 32732 32655 32571 32511 32430 32354 32354 32396 32495 32611 32625 32689 32709 32631 32555 32495 32484 32474 32479 32446 32390 32382 32403 32454 32485 32478 32396 32333 32335 32346 32294 32275 32267 32288 32264 32239 32220 32217 32203 32219 32212 32214 32237 32254 32244 32221 32197 32184 32207 32166 32060 31933 31892 31909 31947 31990 32009 32077 32104 32105 32108 32076 32043 32006 31996 31945 31939 31931 31992 32042 32113 32168 32196 32230 32197 32179 32170 32195 32217 32276 32274 32285 32277 32303 32361 32453 32514 32541 32503 32514 32542 32588 32617 32650 32686 32711 32737 32681 32598 32554 32568 32655 32725 32757 32754 32802 32826 32854 32884 32885 32851 32827 32779 32749 32702 32755 32825 32911 32957 32968 33034 33050 33021 32992 32962 32970 32979 32944 32890 32861 32903 32969 33066 33094 33046 33042 33033 33049 33051 33038 33044 33065 33081 33060 33030 32994 32993 33016 33050 33064 33052 33086 33106 33127 33105 33097 33122 33117 33060 32967 32867 32845 32918 32964 33046 33078 33096 33115 33108 33031 32937 32920 32920 32932 32945 32853 32829 32878 32910 32996 33062 33018 32947 32856 32773 32743 32725 32744 32780 32833 32795 32742 32748 32756 32796 32806 32750 32716 32719 32729 32727 32718 32738 32762 32748 32592 32436 32364 32359 32451 32603 32715 32800 32840 32851 32836 32788 32703 32683 32680 32642 32603 32588 32603 32671 32753 32809 32795 32749 32669 32609 32574 32552 32579 32587 32590 32552 32507 32536 32629 32684 32742 32702 32715 32736 32790 32802 32824 32835 32849 32855 32843 32752 32679 32668 32740 32802 32876 32901 32888 32916 32965 32949 32902 32856 32839 32845 32821 32812 32781 32814 32904 32981 33040 33031 33020 33019 33035 33030 33038 33011 33024 33029 32998 32964 32968 32996 33093 33107 33115 33078 33076 33121 33151 33142 33155 33176 33184 33140 33087 33044 33051 33116 33199 33258 33272 33286 33324 33370 33334 33267 33229 33203 33209 33163 33107 33066 33080 33142 33261 33324 33225 33182 33159 33135 33092 33065 33041 33047 33054 32999 32926 32869 32863 32920 32960 32952 32935 32959 32968 32981 32977 32984 32979 32899 32760 32608 32494 32481 32539 32623 32706 32766 32767 32821 32784 32701 32586 32540 32528 32536 32485 32408 32385 32416 32524 32631 32654 32540 32482 32435 32406 32411 32431 32441 32475 32495 32446 32405 32370 32344 32392 32475 32509 32494 32498 32477 32473 32459 32475 32486 32450 32384 32288 32217 32187 32228 32282 32367 32426 32471 32489 32433 32322 32234 32205 32213 32243 32304 32350 32360 32316 32295 32297 32319 32350 32380 32434 32435 32449 32423 32392 32407 32418 32469 32525 32549 32538 32517 32484 32444 32448 32470 32501 32551 32614 32676 32715 32694 32623 32579 32554 32546 32593 32617 32672 32705 32749 32786 32774 32739 32689 32662 32628 32666 32676 32701 32727 32736 32758 32749 32741 32737 32727 32702 32700 32738 32740 32777 32772 32777 32761 32748 32779 32766 32769 32748 32746 32745 32773 32766 32771 32766 32784 32769 32795 32798 32775 32753 32737 32742 32717 32694 32686 32679 32694 32705 32741 32773 32743 32718 32671 32658 32637 32648 32667 32686 32699 32684 32696 32667 32619 32582 32552 32550 32573 32599 32642 32694 32749 32853 32962 32995 32987 32943 32939 32991 33044 33036 33013 33009 33005 33007 32971 32959 32906 32817 32674 32559 32488 32464 32458 32455 32446 32436 32453 32451 32435 32363 32300 32264 32238 32246 32262 32289 32319 32324 32348 32362 32300 32259 32175 32101 32074 32044 32034 32034 32008 31999 31969 31963 31984 31989 31935 31865 31802 31771 31734 31713 31717 31679 31648 31623 31581 31568 31529 31444 31375 31296 31264 31225 31209 31194 31160 31149 31127 31110 31089 31014 30940 30889 30824 30800 30777 30766 30748 30731 30719 30702 30672 30641 30556 30498 30432 30408 30396 30376 30370 30338 30347 30344 30337 30333 30264 30200 30138 30090 30066 30041 30025 30016 30012 29996 29979 29975 29933 29870 29790 29750 29703 29681 29657 29635 29595 29574 29549 29539 29498 29424 29368 29332 29336 29327 29340 29326 29333 29298 29311 29294 29290 29244 29209 29179 29188 29181 29173 29151 29143 29142 29141 29157 29191 29219 29209 29176 29180 29164 29168 29137 29133 29106 29091 29077 29079 29060 29023 29006 28963 28960 28946 28951 28946 28933 28951 28955 28954 28962 28943 28905 28890 28880 28883 28886 28876 28876 28863 28850 28852 28847 28817 28781 28747 28735 28725 28721 28723 28714 28701 28693 28677 28686 28673 28643 28616 28580 28573 28555 28560 28536 28515 28514 28505 28492 28482 28471 28440 28444 28434 28467 28488 28574 28618 28711 28815 28879 28967 29078 29198 29378 29570 29777 29972 30138 30255 30359 30456 30565 30674 30766 30851 30953 31052 31151 31270 31358 31415 31476 31511 31560 31595 31566 31541 31511 31527 31585 31608 31659 31667 31690 31707 31745 31763 31768 31799 31815 31807 31823 31842 31878 31908 31915 31937 31959 31980 32008 32020 32051 32057 32054 32078 32086 32111 32111 32125 32129 32156 32147 32179 32186 32142 32095 32063 32051 32054 32049 32053 32048 32055 32053 32073 32086 32057 31980 31887 31812 31779 31749 31713 31681 31636 31588 31520 31460 31426 31353 31204 31085 31024 31010 30998 30988 30972 30946 30932 30931 30935 30922 30784 30657 30538 30461 30403 30370 30314 30263 30211 30174 30125 30083 30030 29899 29771 29679 29637 29614 29588 29552 29520 29493 29465 29451 29444 29388 29293 29216 29171 29154 29142 29123 29098 29072 29071 29047 29043 29030 28980 28930 28888 28866 28862 28877 28874 28874 28875 28865 28878 28894 28884 28844 28799 28768 28758 28769 28763 28783 28775 28772 28767 28776 28788 28784 28733 28707 28698 28715 28696 28703 28716 28711 28689 28690 28689 28676 28668 28637 28610 28593 28582 28588 28580 28567 28570 28561 28570 28565 28555 28552 28520 28518 28518 28520 28518 28524 28497 28500 28488 28483 28498 28492 28459 28458 28454 28448 28442 28433 28443 28427 28421 28426 28403 28401 28375 28359 28329 28309 28294 28275 28262 28261 28241 28220 28220 28192 28188 28173 28133 28109 28074 28056 28037 28019 28020 27994 27975 27967 27938 27923 27893 27847 27820 27796 27766 27751 27714 27698 27684 27676 27663 27642 27607 27579 27536 27497 27494 27468 27454 27420 27429 27409 27387 27386 27382 27369 27330 27275 27255 27232 27240 27214 27207 27194 27187 27210 27203 27188 27188 27159 27120 27087 27075 27065 27066 27054 27060 27051 27050 27050 27053 27054 27026 26996 26984 26975 26975 26976 26945 26924 26892 26873 26867 26864 26859 26840 26807 26793 26780 26818 26820 26807 26806 26795 26774 26772 26786 26783 26747 26747 26741 26737 26757 26761 26777 26783 26782 26807 26798 26818 26820 26820 26797 26786 26785 26780 26795 26790 26803 26798 26812 26834 26838 26837 26861 26860 26836 26840 26852 26870 26891 26911 26935 26947 26970 26984 26992 26992 27008 26989 26982 26967 26956 26974 26989 27015 27015 27028 27026 27026 27042 27046 27066 27056 27058 27053 27040 27047 27043 27033 27026 27030 27032 27020 27005 27015 26999 26998 26988 26979 26971 26968 26965 26946 26939 26939 26932 26933 26934 26934 26934 26943 26911 26893 26879 26883 26893 26913 26917 26927 26945 26974 27002 27023 27031 27029 27027 27023 27020 27016 27030 27042 27046 27051 27057 27065 27065 27081 27119 27151 27221 27336 27445 27539 27595 27640 27665 27670 27680 27693 27719 27740 27772 27813 27820 27825 27830 27836 27845 27845 27822 27888 28001 28153 28311 28447 28504 28556 28564 28531 28468 28449 28433 28398 28377 28344 28320 28307 28270 28259 28235 28225 28201 28145 28114 28081 28064 28057 28023 27986 27937 27912 27887 27910 27918 27931 27934 27860 27821 27783 27765 27789 27810 27825 27842 27870 27890 27909 27906 27886 27906 27889 27862 27838 27814 27788 27751 27731 27708 27707 27696 27683 27672 27657 27651 27667 27651 27618 27631 27665 27679 27706 27726 27727 27766 27784 27797 27775 27745 27726 27703 27678 27725 27795 27881 28020 28269 28590 28920 29126 29203 29314 29444 29569 29686 29817 29917 29979 30084 30193 30361 30510 30796 30980 30999 31079 31235 31283 31332 31530 31689 31612 31571 31550 31536 31570 31580 31587 31600 31590 31593 31570 31579 31597 31602 31604 31600 31577 31568 31576 31592 31609 31625 31629 31648 31648 31665 31649 31645 31617 31566 31501 31434 31381 31330 31302 31255 31209 31149 31113 31088 31065 31042 31032 31008 30945 30865 30771 30670 30635 30575 30512 30478 30405 30367 30326 30297 30276 30244 30207 30101 29998 29928 29880 29812 29744 29695 29682 29670 29670 29673 29663 29652 29624 29583 29500 29421 29337 29263 29194 29146 29115 29082 29056 29003 28967 28955 28916 28908 28903 28887 28830 28737 28672 28650 28652 28632 28629 28620 28593 28580 28568 28573 28595 28604 28573 28511 28456 28415 28391 28363 28339 28322 28306 28295 28283 28292 28266 28239 28215 28209 28201 28177 28158 28166 28185 28188 28174 28159 28163 28144 28121 28125 28116 28124 28145 28215 28260 28226 28200 28172 28151 28106 28076 28067 28076 28109 28184 28304 28333 28342 28331 28309 28256 28240 28273 28409 28609 28826 28965 29025 29044 29072 29059 29072 29103 29170 29260 29311 29346 29363 29347 29336 29358 29439 29608 29800 29996 30168 30290 30440 30550 30624 30661 30716 30756 30801 30896 30984 31033 31062 31096 31131 31166 31232 31309 31398 31412 31439 31474 31547 31595 31627 31657 31671 31685 31718 31742 31768 31783 31846 31939 32008 32039 32077 32013 31957 31975 32001 32038 32000 32008 31997 32067 32028 31968 31929 31876 31824 31822 31831 31882 31866 31941 31987 32002 31993 31984 32003 32051 32002 31897 31793 31711 31633 31655 31680 31717 31725 31755 31771 31746 31679 31599 31616 31695 31659 31573 31516 31491 31472 31507 31607 31627 31680 31692 31653 31636 31630 31644 31721 31672 31589 31569 31576 31608 31670 31692 31684 31756 31759 31764 31778 31816 31852 31941 31927 31795 31713 31700 31700 31760 31821 31815 31839 31814 31792 31774 31733 31753 31824 31826 31756 31726 31708 31661 31677 31721 31698 31783 31800 31767 31716 31692 31747 31934 31896 31871 31899 31881 31873 31909 31935 31912 31989 32089 32185 32229 32319 32371 32416 32335 32257 32182 32193 32220 32261 32264 32329 32344 32380 32320 32274 32235 32248 32215 32119 32070 32053 32040 32079 32123 32161 32235 32223 32212 32140 32083 32062 32075 32041 31977 31978 31993 32012 32084 32156 32253 32235 32134 32031 31901 31831 31822 31841 31777 31759 31789 31768 31772 31812 31934 32070 32127 32148 32122 32075 32085 32127 32089 32075 32094 32190 32245 32322 32423 32496 32542 32545 32516 32451 32432 32440 32458 32445 32411 32424 32458 32492 32516 32577 32640 32690 32705 32655 32581 32562 32590 32558 32539 32540 32594 32623 32669 32727 32770 32853 32852 32811 32712 32663 32635 32641 32585 32530 32534 32556 32580 32645 32668 32672 32695 32671 32557 32419 32322 32277 32203 32136 32094 32063 32023 32048 32130 32201 32231 32221 32118 31974 31888 31828 31810 31721 31683 31648 31631 31635 31654 31727 31822 31847 31843 31733 31617 31530 31506 31442 31381 31320 31237 31163 31162 31237 31383 31431 31413 31319 31189 31140 31184 31175 31118 31091 31010 30976 30995 31117 31227 31325 31328 31256 31159 31109 31115 31084 31073 31067 31020 30968 31002 31117 31268 31326 31333 31275 31217 31211 31234 31224 31213 31256 31250 31236 31256 31331 31441 31576 31589 31579 31497 31492 31510 31558 31563 31595 31650 31673 31685 31762 31841 31940 31965 31994 31931 31901 31863 31892 31878 31858 31825 31791 31756 31780 31866 31941 31967 31951 31905 31834 31805 31817 31823 31809 31804 31820 31835 31802 31815 31823 31782 31756 31642 31553 31373 31237 31249 31341 31409 31348 31326 31303 31278 31264 31303 31348 31435 31487 31466 31375 31292 31294 31408 31418 31360 31309 31272 31236 31204 31243 31332 31480 31585 31582 31570 31602 31643 31713 31664 31546 31437 31265 31108 31068 31145 31330 31429 31531 31514 31422 31367 31380 31405 31383 31391 31426 31507 31572 31643 31633 31688 31688 31705 31690 31654 31588 31539 31457 31442 31428 31473 31535 31597 31639 31660 31672 31664 31608 31555 31510 31479 31462 31412 31388 31406 31436 31457 31514 31552 31511 31385 31265 31181 31147 31168 31202 31140 31093 31091 31142 31195 31251 31315 31224 31121 31040 30979 30989 31023 31072 31045 30988 30977 31040 31107 31157 31153 31094 31031 31003 31011 31019 31083 31130 31123 31083 31051 31079 31115 31178 31201 31188 31194 31153 31138 31152 31199 31254 31296 31189 31102 31106 31159 31206 31283 31343 31367 31343 31344 31368 31395 31435 31446 31333 31273 31272 31350 31403 31452 31488 31560 31615 31612 31611 31618 31634 31646 31644 31601 31578 31594 31655 31729 31804 31855 31905 31914 31886 31872 31893 31950 31983 31920 31884 31883 31939 31982 32038 32040 32043 32087 32105 32127 32145 32199 32255 32263 32212 32173 32137 32161 32168 32235 32243 32320 32411 32472 32463 32475 32491 32529 32490 32399 32296 32315 32324 32375 32413 32482 32542 32582 32569 32544 32497 32467 32356 32263 32232 32262 32291 32338 32381 32385 32473 32441 32365 32284 32246 32208 32202 32143 32056 32014 32060 32076 32117 32111 32052 31987 31890 31844 31801 31797 31786 31815 31776 31721 31698 31667 31679 31773 31837 31825 31882 31875 31808 31752 31755 31776 31719 31537 31339 31336 31411 31522 31605 31635 31642 31617 31538 31470 31384 31312 31260 31189 31077 31026 31079 31199 31293 31347 31389 31444 31394 31275 31163 31135 31142 31179 31165 31053 30976 31043 31104 31149 31119 31122 31216 31247 31273 31259 31283 31297 31382 31455 31458 31425 31420 31490 31548 31551 31575 31711 31771 31842 31872 31939 32023 32059 32063 31993 31916 31916 31919 31978 32026 32075 32217 32298 32345 32325 32316 32323 32357 32436 32455 32427 32398 32392 32450 32512 32511 32619 32632 32705 32737 32777 32824 32895 33012 33022 32992 32974 33002 33058 33077 33068 33106 33164 33241 33364 33410 33424 33460 33494 33471 33392 33308 33324 33396 33466 33492 33499 33577 33676 33807 33925 33904 33837 33809 33795 33764 33767 33744 33772 33872 33949 33981 34027 34058 34115 34194 34256 34250 34249 34230 34179 34067 33967 33934 33914 33866 33759 33775 33761 33754 33719 33675 33676 33702 33745 33728 33620 33522 33436 33406 33453 33447 33449 33468 33448 33448 33415 33404 33391 33372 33310 33216 33118 33048 33055 33070 33104 33133 33224 33228 33165 33033 32926 32879 32905 33016 33017 32951 32877 32868 32927 33012 32997 32928 32930 32910 32970 33044 33094 33167 33258 33336 33269 33155 33091 33083 33144 33198 33187 33207 33249 33252 33295 33338 33393 33386 33335 33208 33088 33025 33024 33096 33179 33210 33211 33270 33258 33196 33109 33096 33082 33115 33114 33098 33100 33154 33263 33375 33390 33320 33430 33555 33781 33935 34033 34151 34190 34185 34155 34056 33932 33826 33891 33986 33976 34074 34091 34090 34095 34066 34087 34069 33986 33874 33783 33699 33644 33641 33613 33634 33688 33684 33602 33521 33444 33404 33401 33422 33410 33429 33455 33482 33520 33567 33515 33503 33549 33612 33699 33745 33827 33910 33945 33915 33928 33933 33965 33965 34018 34035 34036 34055 34104 34192 34248 34314 34315 34209 34059 33979 33951 34000 34035 34068 34051 34014 34020 34006 33977 33914 33821 33737 33663 33636 33578 33532 33512 33562 33568 33568 33470 33373 33286 33241 33172 33119 33110 33082 32988 32920 32858 32819 32810 32823 32797 32757 32775 32766 32814 32855 32902 32921 32827 32652 32525 32509 32518 32585 32646 32681 32711 32699 32708 32602 32535 32503 32485 32499 32410 32368 32357 32368 32416 32475 32485 32499 32488 32509 32522 32526 32535 32546 32547 32520 32492 32520 32504 32526 32553 32571 32641 32736 32835 32905 32920 32896 32827 32758 32708 32705 32794 32889 32876 32880 32960 32997 33078 33091 33044 32999 32956 32944 32898 32864 32912 32962 33036 33081 33071 33135 33161 33210 33204 33194 33185 33177 33138 33091 33100 33129 33153 33144 33179 33180 33267 33367 33503 33586 33607 33591 33574 33492 33399 33310 33300 33337 33377 33372 33459 33548 33652 33695 33628 33554 33464 33425 33341 33274 33207 33192 33224 33234 33259 33342 33304 33253 33206 33144 33111 33130 33224 33180 33109 33040 32980 32923 32864 32851 32925 32988 33069 33095 33076 33101 33191 33198 33047 32898 32798 32699 32681 32645 32654 32831 32943 33049 33028 32948 32906 32952 33004 32981 32955 32914 32898 32912 32920 33000 33054 33125 33194 33227 33235 33226 33174 33141 33091 33092 33047 33046 33081 33086 33048 33093 33097 33049 32991 32968 32956 33014 33026 33104 33218 33332 33345 33260 33163 33213 33243 33351 33454 33539 33581 33570 33581 33588 33619 33693 33753 33813 33825 33839 33791 33681 33575 33420 33299 33249 33216 33157 33093 33037 32977 32917 32884 32844 32810 32797 32790 32764 32704 32677 32670 32621 32373 32152 32057 32058 32086 32126 32139 32125 32096 32041 31964 31850 31729 31631 31543 31416 31363 31384 31476 31551 31660 31664 31559 31395 31266 31197 31171 31212 31238 31169 31116 31139 31230 31271 31314 31321 31287 31246 31211 31194 31185 31202 31211 31192 31078 31012 31096 31155 31242 31295 31302 31359 31391 31403 31391 31364 31360 31316 31255 31202 31255 31359 31449 31568 31601 31623 31600 31581 31579 31579 31642 31657 31699 31682 31677 31775 31873 31955 32007 32004 32068 32105 32176 32163 32170 32205 32210 32156 32073 32070 32138 32215 32309 32374 32361 32426 32491 32540 32510 32461 32407 32352 32311 32277 32295 32371 32451 32513 32523 32530 32520 32521 32496 32520 32535 32545 32538 32504 32483 32497 32550 32640 32671 32635 32692 32736 32764 32769 32756 32759 32754 32670 32573 32544 32586 32668 32740 32777 32781 32809 32850 32861 32828 32763 32716 32650 32616 32566 32580 32627 32717 32772 32766 32735 32691 32670 32655 32627 32599 32581 32553 32455 32385 32351 32355 32401 32424 32431 32396 32377 32340 32332 32328 32334 32337 32217 32043 31904 31814 31810 31891 31989 32082 32129 32215 32231 32179 32062 32048 32052 32046 31969 31932 31986 32152 32361 32504 32481 32414 32354 32296 32334 32326 32345 32357 32373 32314 32247 32216 32187 32206 32333 32426 32435 32499 32589 32634 32687 32601 32485 32439 32454 32516 32502 32477 32470 32510 32597 32704 32739 32702 32743 32807 32898 32950 32974 33003 33019 33066 33101 33047 33007 32983 32986 33076 33179 33168 33199 33238 33350 33434 33480 33473 33452 33468 33473 33429 33442 33418 33427 33487 33600 33659 33678 33568 33565 33621 33707 33748 33786 33771 33784 33805 33751 33701 33678 33678 33744 33835 33927 33988 34009 33959 33917 33894 33891 33897 33924 33930 33932 33903 33880 33822 33783 33763 33801 33849 33926 33993 34012 33960 33949 33971 34020 34075 34072 34081 34082 34074 34043 34084 34118 34157 34222 34270 34312 34334 34309 34263 34258 34297 34336 34377 34403 34400 34401 34395 34313 34193 34077 33990 33924 33925 33967 34021 34052 34064 33966 33855 33776 33732 33700 33683 33693 33721 33737 33708 33655 33553 33436 33329 33295 33297 33310 33340 33329 33330 33299 33261 33170 33076 32991 32965 32953 32954 32926 32851 32810 32750 32710 32641 32586 32590 32604 32616 32606 32577 32578 32592 32596 32602 32551 32462 32380 32302 32242 32221 32192 32213 32260 32302 32286 32232 32171 32105 32066 32057 32071 32098 32121 32151 32151 32088 31998 31930 31916 31920 31951 31978 31987 32000 32025 32034 32002 32003 32046 32139 32275 32405 32551 32648 32733 32838 32931 33021 33135 33197 33266 33349 33414 33461 33470 33441 33394 33355 33305 33287 33310 33408 33565 33714 33867 33999 34130 34237 34281 34344 34393 34461 34508 34578 34635 34684 34730 34792 34853 34899 34915 34946 34994 35041 35113 35153 35188 35213 35252 35291 35324 35345 35378 35403 35431 35460 35494 35520 35532 35554 35577 35611 35591 35634 35631 35665 35687 35701 35731 35748 35773 35775 35793 35794 35820 35825 35846 35880 35901 35903 35913 35937 35960 35966 35954 35972 35976 35998 36020 36023 36036 36047 36066 36094 36084 36085 36080 36089 36100 36125 36138 36145 36155 36167 36177 36165 36152 36159 36163 36206 36199 36224 36244 36256 36277 36286 36281 36258 36269 36279 36301 36320 36343 36367 36365 36382 36387 36352 36315 36273 36277 36268 36269 36264 36279 36274 36283 36274 36219 36139 36069 36021 35998 35963 35938 35897 35871 35842 35796 35687 35551 35447 35389 35325 35294 35259 35199 35176 35143 35097 34985 34861 34766 34719 34697 34717 34688 34677 34694 34714 34714 34624 34558 34526 34532 34556 34629 34702 34769 34852 34924 34950 34938 34930 34939 34984 35012 35041 35077 35100 35122 35119 35089 35012 34941 34918 34913 34898 34880 34876 34869 34851 34853 34817 34753 34718 34673 34644 34634 34607 34601 34580 34564 34547 34503 34418 34385 34346 34351 34346 34314 34304 34316 34305 34310 34263 34175 34151 34138 34141 34141 34135 34126 34140 34137 34161 34101 34053 34048 34053 34055 34067 34081 34096 34110 34127 34143 34119 34096 34073 34062 34064 34088 34093 34097 34104 34107 34122 34089 34044 34025 34028 34049 34058 34066 34073 34080 34092 34088 34051 34024 34023 34018 34017 34022 34029 34035 34040 34049 34064 34013 33965 33954 33958 33967 33983 33986 33988 33999 33998 34017 33972 33958 33936 33945 33957 33988 33985 34007 34012 34049 34054 34024 34006 33987 34018 34024 34048 34050 34044 34036 34052 34047 33993 33943 33959 34003 34093 34304 34486 34658 34848 35024 35169 35311 35449 35583 35689 35761 35839 35920 35987 36028 36102 36137 36186 36224 36277 36314 36358 36384 36373 36395 36433 36469 36517 36528 36544 36584 36630 36632 36679 36711 36743 36782 36806 36804 36830 36854 36896 36924 36966 36984 37001 37035 37063 37082 37080 37117 37138 37161 37178 37193 37209 37241 37254 37274 37262 37274 37268 37302 37323 37341 37358 37356 37391 37402 37414 37387 37374 37374 37386 37425 37442 37448 37465 37490 37498 37491 37466 37460 37470 37470 37502 37500 37534 37547 37547 37569 37580 37545 37516 37516 37540 37563 37592 37605 37613 37608 37647 37635 37585 37583 37590 37616 37645 37654 37680 37691 37713 37727 37697 37657 37672 37666 37675 37692 37723 37743 37752 37775 37777 37763 37744 37736 37766 37799 37805 37827 37843 37870 37864 37888 37885 37867 37859 37887 37909 37930 37935 37945 37966 37972 37986 37964 37949 37942 37961 37992 38005 38016 38012 38034 38058 38070 38029 38010 38003 38041 38051 38060 38063 38089 38107 38106 38123 38097 38075 38079 38110 38109 38135 38141 38151 38155 38174 38191 38186 38162 38161 38176 38194 38208 38230 38219 38253 38260 38255 38253 38234 38243 38244 38275 38267 38274 38289 38301 38321 38327 38308 38272 38279 38292 38310 38318 38332 38349 38355 38361 38378 38363 38333 38327 38331 38351 38371 38385 38393 38393 38420 38425 38420 38400 38407 38398 38426 38449 38453 38462 38475 38489 38485 38501 38496 38475 38487 38502 38523 38531 38530 38548 38549 38569 38564 38554 38524 38540 38545 38566 38572 38571 38598 38603 38615 38624 38598 38573 38574 38604 38610 38612 38631 38652 38633 38658 38644 38660 38623 38620 38643 38636 38653 38668 38665 38687 38708 38706 38710 38681 38659 38681 38695 38708 38719 38723 38719 38739 38742 38752 38743 38715 38718 38735 38746 38761 38763 38773 38770 38772 38782 38789 38751 38738 38759 38769 38775 38799 38809 38817 38804 38830 38834 38826 38806 38793 38804 38819 38823 38835 38852 38863 38859 38876 38866 38844 38823 38820 38836 38858 38874 38878 38885 38903 38889 38903 38888 38840 38815 38826 38849 38868 38878 38879 38898 38908 38914 38906 38854 38833 38805 38828 38844 38860 38868 38892 38894 38911 38926 38932 38890 38845 38836 38856 38877 38890 38906 38925 38920 38920 38929 38951 38912 38882 38897 38922 38935 38943 38931 38951 38957 38984 38972 38977 38907 38888 38884 38900 38929 38925 38931 38957 38973 38985 38980 38981 38920 38894 38887 38898 38928 38945 38947 38960 38974 38991 38999 39005 38969 38932 38938 38948 38958 38986 38999 38982 39003 39028 39042 39044 39034 38989 38976 38989 39015 39022 39045 39049 39064 39067 39073 39070 39050 39007 38992 38988 39029 39043 39064 39059 39060 39077 39097 39104 39078 39039 39019 39031 39026 39057 39054 39081 39081 39085 39133 39120 39110 39077 39047 39074 39071 39090 39120 39119 39129 39134 39154 39148 39153 39113 39096 39101 39111 39126 39128 39135 39139 39170 39172 39173 39180 39132 39093 39080 39080 39103 39116 39128 39117 39156 39171 39164 39163 39137 39078 39055 39052 39064 39097 39086 39114 39126 39149 39157 39157 39157 39106 39066 39043 39072 39093 39101 39125 39140 39146 39157 39177 39168 39143 39065 39034 39031 39041 39053 39060 39068 39096 39102 39120 39134 39140 39091 39027 39014 38991 39007 39021 39009 39021 39036 39041 39055 39074 39073 38995 38905 38856 38844 38850 38884 38881 38893 38918 38936 38950 38975 38982 39000 38999 38899 38837 38796 38808 38822 38842 38851 38870 38878 38891 38909 38931 38955 38971 38878 38793 38744 38726 38752 38763 38772 38784 38796 38816 38834 38846 38873 38886 38792 38676 38620 38584 38610 38615 38622 38647 38645 38669 38698 38720 38745 38769 38785 38723 38621 38532 38514 38526 38544 38570 38574 38592 38624 38648 38678 38693 38715 38736 38711 38608 38537 38529 38535 38559 38590 38591 38611 38637 38671 38691 38707 38745 38755 38637 38544 38505 38525 38538 38545 38553 38576 38592 38616 38645 38668 38677 38696 38627 38516 38484 38458 38477 38495 38517 38519 38547 38569 38608 38619 38639 38658 38676 38579 38495 38474 38478 38517 38544 38561 38561 38601 38615 38640 38660 38676 38683 38625 38536 38496 38497 38521 38547 38546 38552 38578 38596 38618 38639 38667 38656 38556 38470 38433 38410 38420 38431 38453 38455 38463 38486 38514 38533 38556 38567 38484 38382 38318 38296 38320 38325 38340 38351 38371 38387 38409 38425 38468 38494 38466 38365 38317 38311 38319 38342 38349 38357 38381 38401 38407 38445 38466 38496 38479 38373 38286 38254 38251 38261 38268 38294 38297 38330 38350 38384 38385 38429 38434 38331 38229 38176 38164 38198 38203 38222 38231 38271 38296 38331 38354 38383 38429 38447 38413 38308 38260 38236 38249 38289 38305 38340 38350 38377 38413 38443 38471 38490 38521 38490 38404 38338 38308 38308 38341 38356 38368 38394 38413 38441 38464 38490 38499 38536 38472 38358 38299 38286 38282 38306 38327 38325 38348 38378 38404 38418 38466 38486 38519 38487 38396 38323 38336 38330 38348 38375 38398 38420 38439 38471 38509 38533 38555 38577 38597 38536 38459 38448 38427 38462 38471 38485 38516 38529 38560 38570 38615 38627 38649 38640 38546 38484 38455 38462 38466 38484 38477 38528 38531 38560 38595 38607 38622 38646 38670 38646 38552 38496 38489 38469 38522 38526 38550 38565 38594 38602 38629 38662 38677 38714 38719 38699 38611 38553 38540 38537 38565 38570 38590 38595 38619 38649 38669 38680 38701 38707 38680 38588 38521 38491 38499 38505 38521 38529 38547 38564 38578 38615 38632 38660 38685 38612 38512 38453 38413 38406 38402 38403 38408 38420 38451 38473 38500 38520 38545 38560 38575 38528 38400 38335 38321 38338 38362 38370 38371 38403 38446 38499 38520 38529 38550 38572 38537 38451 38342 38329 38315 38331
33 35 35 32 32 33 32 33 33 34 33 32 32 31 33 34 33 34 34 34 33 34 33 33 34 33 33 33 34 34 33 33 33 33 33 33 33 34 33 33 33 33 33 33 33 33 33 33 33 33 33 33 33 33 33 33 33 33 33 33 33 33 33 33 34 33 32 33 33 33 33 33 33 33 33 33 33 33 33 33 33 33 33 33 34 33 33 33 33 33 33 33 33 33 33 33 34 33 33 33 33 33 33 33 33 33 33 33 33 33 33 33 33 33 33 33 33 33 33 33 33 33 33 33 33 33 33 33 33 33 33 33 33 33 33 33 33 33 33 33 33 33 33 33 33 33 33 33 33 33 33 33 33 33 33 33 33 33 33 33 33 33 33 33 31 34 33 33 33 33 33 33 33 33 33 33 33 33 33 33 33 33 33 33 33 33 33 33 33 33 33 33 33 33 33 33 33 33 33 33 33 33 33 33 33 33 33 33 33 33 32 34 33 33 33 32 34 33 33 33 33 33 33 33 33 33 33 33 33 33 33 33 33 33 33 33 33 33 33 33 33 33 33 33 33 33 33 33 33 33 33 33 33 33 33 33 33 33 33 33 33 33 33 33 33 33 33 33 33 33 33 33 33 33 33 33 33 33 33 33 33 33 33 33 34 33 33 33 33 33 33 33 33 34 33 33 33 33 33 33 33 33 33 33 33 33 33 33 33 34 33 33 33 33 33 33 33 33 34 34 33 33 33 33 33 33 33 33 33 33 33 33 33 33 33 33 33 33 33 33 33 33 33 33 33 33 33 33 33 33 33 33 33 33 33 33 33 33 33 33 33 33 33 33 33 33 33 33 33 33 33 33 33 33 33 33 33 33 33 33 33 33 33 33 33 33 33 33 33 33 33 33 34 33 33 33 33 33 33 33 33 33 33 32 33 33 33 33 33 33 33 33 34 33 33 33 33 33 33 33 34 33 33 33 33 33 33 33 33 34 33 33 33 33 33 33 34 33 33 34 33 33 34 34 33 33 33 34 33 33 33 33 33 33 33 33 33 33 33 33 33 33 33 33 33 33 33 33 33 33 33 34 33 33 33 33 33 33 33 33 33 33 33 33 33 33 34 33 33 32 33 33 33 33 33 33 33 33 33 33 33 33 33 33 33 33 33 33 33 33 34 33 33 33 34 33 33 33 33 33 33 33 33 33 33 33 33 33 33 33 34 35 33 32 32 32 33 33 33 33 33 33 33 33 33 34 33 33 33 33 33 33 33 34 34 34 35 36 37 36 36 35 34 33 35 37 37 34 33 32 29 29 30 30 31 31 31 32 32 31 31 31 33 34 34 33 33 33 33 33 33 33 33 33 33 33 34 34 33 33 33 33 33 33 33 33 33 33 33 33 33 33 33 33 33 32 32 31 30 31 31 31 30 30 31 31 32 32 32 33 35 36 37 36 36 34 33 34 35 35 34 33 34 34 33 34 35 35 34 32 33 34 33 32 33 34 34 34 32 32 33 33 33 34 32 32 32 33 34 32 32 33 33 33 33 33 33 33 33 33 33 33 33 33 33 33 34 34 33 33 33 33 33 33 33 33 33 33 33 33 33 33 33 33 32 33 33 33 33 33 33 34 33 33 33 33 33 33 33 33 33 33 33 33 32 33 33 33 33 33 33 33 33 33 33 33 33 33 33 33 33 33 33 33 33 33 33 33 33 33 33 33 33 33 33 33 33 33 33 33 34 33 33 33 33 33 33 33 33 33 33 33 33 33 33 33 33 33 33 33 32 33 32 32 32 32 33 33 32 32 33 32 32 32 33 33 33 32 32 33 33 33 32 33 33 33 33 33 32 32 33 33 32 33 33 32 32 32 32 32 32 32 32 32 32 32 32 33 34 33 32 32 32 32 32 32 33 33 33 33 33 33 33 34 34 32 33 33 31 32 33 33 33 32 33 33 34 34 33 33 33 33 32 32 32 32 32 33 33 33 33 33 34 33 33 33 34 34 34 34 33 33 32 31 32 34 33 32 32 32 34 35 35 34 33 33 32 33 33 33 33 33 33 33 33 33 32 33 33 33 33 31 33 34 33 33 32 34 34 34 34 34 34 33 32 31 29 29 31 30 34 33 28 28 28 30 31 33 38 41 42 42 40 37 33 32 33 33 33 32 32 31 36 41 36 32 31 34 35 34 32 31 30 29 29 29 30 31 36 41 35 33 34 32 31 30 32 32 31 33 39 42 38 37 39 41 38 34 30 29 29 28 28 30 35 37 34 31 33 37 36 32 30 30 31 32 34 35 38 41 43 37 32 34 38 40 37 34 31 30 29 27 29 31 35 38 34 32 34 36 35 33 31 32 34 35 36 38 44 43 35 31 34 40 43 40 35 31 29 27 27 28 29 34 37 34 33 37 40 38 34 32 31 32 33 44 43 34 29 35 44 47 43 36 31 29 27 25 29 30 34 36 33 32 36 40 39 35 35 35 34 36 39 43 43 36 30 35 43 45 41 36 31 28 26 26 30 35 39 37 31 30 33 37 38 37 37 36 34 35 40 44 40 35 34 41 45 45 40 34 30 26 23 26 30 33 36 34 31 36 44 46 40 35 33 32 31 36 41 44 39 34 34 41 45 44 38 29 27 26 28 30 32 35 34 34 37 40 40 38 37 38 36 36 40 42 41 37 34 38 44 47 43 38 33 28 25 24 28 32 38 37 33 36 39 42 40 39 38 36 33 37 39 40 37 34 38 44 45 42 37 33 30 27 26 29 32 34 31 27 32 40 44 41 38 37 35 34 37 42 44 40 33 31 38 45 46 40 35 31 29 27 29 32 34 33 30 31 37 41 37 36 36 34 34 39 42 42 37 32 35 42 47 44 38 33 29 27 25 27 30 32 33 30 34 41 43 42 37 35 34 35 36 40 46 44 38 32 36 44 46 42 34 30 27 23 23 27 31 36 35 33 39 44 43 39 35 34 33 32 40 44 44 37 31 37 43 44 39 33 28 24 22 23 28 34 40 37 36 40 44 42 37 35 34 31 30 33 41 44 38 37 45 47 42 35 29 26 22 22 25 30 37 40 38 39 40 39 38 36 35 33 32 33 36 43 44 37 33 38 45 43 36 31 28 27 27 26 28 29 33 33 32 38 43 43 39 35 34 33 33 33 37 40 44 40 34 33 37 43 44 39 32 29 26 26 29 34 38 33 29 33 38 40 37 35 35 35 36 37 37 38 39 35 33 39 44 42 35 29 26 25 24 31 37 42 37 30 32 38 39 35 32 32 32 34 36 38 42 41 33 32 37 41 36 30 26 25 26 27 30 34 38 38 33 30 34 37 35 32 33 33 32 33 36 40 43 39 31 31 38 42 39 32 27 24 24 25 31 36 43 40 32 31 35 38 35 32 31 31 31 34 37 41 42 36 31 35 40 38 32 28 27 27 28 30 34 38 38 31 28 33 38 36 32 33 34 35 36 39 44 40 31 28 35 40 39 33 28 26 26 27 30 34 38 37 31 33 38 39 34 30 31 32 33 35 37 39 42 37 31 33 39 39 34 29 27 26 25 26 30 35 40 37 32 31 34 35 33 31 30 31 33 35 37 41 45 37 28 30 38 39 34 30 29 27 25 27 32 36 41 38 31 31 34 36 34 31 31 31 32 33 35 41 43 35 31 39 37 32 29 27 27 27 29 33 36 39 34 30 32 36 35 31 31 31 32 33 35 37 40 40 35 31 35 39 37 29 27 27 27 27 30 35 40 41 33 27 30 34 34 32 31 31 31 33 36 38 41 39 32 35 40 40 34 28 26 26 24 25 29 33 40 39 33 30 33 37 36 32 31 31 30 30 33 37 42 40 33 36 40 39 33 29 27 25 23 25 30 41 41 32 26 32 39 38 32 31 32 33 32 34 39 43 37 33 38 41 40 35 30 27 25 24 25 30 32 36 41 34 33 37 37 33 31 30 33 34 35 37 38 43 40 35 35 39 42 37 30 27 26 25 25 30 34 38 41 35 30 33 38 38 35 33 33 32 33 35 40 45 39 30 30 39 44 41 34 28 25 23 23 27 30 35 41 37 31 33 37 38 36 33 33 33 34 39 44 39 31 31 40 46 42 34 31 28 26 24 27 30 35 38 34 29 33 39 40 36 33 33 33 33 37 41 44 38 31 34 42 44 41 35 31 29 26 25 27 29 35 36 31 32 37 41 40 37 35 34 34 35 36 38 41 38 32 31 39 45 41 35 30 29 27 27 29 30 36 40 36 32 35 38 37 33 32 33 33 34 38 41 42 36 30 44 44 38 32 28 26 25 28 33 38 38 32 31 36 38 36 32 30 31 33 34 36 42 43 37 32 35 41 44 40 35 31 29 28 28 29 32 38 34 30 30 35 36 35 34 35 34 34 36 38 44 43 34 29 35 42 42 36 32 29 27 25 27 30 36 41 37 32 34 37 37 34 33 33 32 31 33 36 41 39 36 38 41 43 39 33 30 28 26 25 28 30 37 32 35 40 42 38 33 31 31 31 32 37 42 43 38 33 38 44 44 38 32 28 25 24 25 29 35 41 38 32 32 38 41 37 32 31 31 30 32 39 44 42 36 34 39 44 39 32 27 25 25 25 30 34 40 40 33 32 36 39 37 34 33 33 31 32 37 44 43 36 33 37 42 41 37 32 28 26 25 28 32 37 37 32 31 36 40 38 35 33 33 33 37 42 43 37 33 38 42 42 37 33 28 26 26 28 30 36 39 36 37 39 37 32 32 34 34 34 35 37 40 41 36 32 36 42 41 36 32 29 27 26 27 29 34 40 39 35 36 37 37 32 30 31 31 32 34 36 39 42 36 32 37 41 37 32 27 26 27 28 30 35 40 39 32 30 34 37 33 30 30 32 33 33 37 41 41 37 31 35 42 43 38 32 26 26 27 30 33 39 39 33 30 35 38 37 33 32 32 32 33 38 45 44 37 36 42 42 37 31 27 25 25 27 32 35 38 38 32 31 35 39 37 34 33 33 33 35 39 43 41 35 34 39 44 42 35 29 26 25 25 28 32 39 41 35 32 35 40 39 36 34 32 32 34 38 41 42 37 32 35 43 45 39 33 28 26 25 27 29 32 38 37 33 33 37 36 32 32 32 31 35 40 43 38 32 34 40 44 41 35 31 28 26 26 30 32 38 38 34 33 35 38 36 34 34 35 34 36 40 40 39 35 33 39 44 44 39 32 28 26 25 28 32 36 40 36 32 34 39 39 37 35 35 33 32 35 40 43 40 35 36 41 43 40 33 27 24 24 26 28 31 38 39 36 38 42 40 35 34 31 29 28 30 34 41 42 35 46 43 34 28 26 26 26 28 32 35 39 37 31 32 36 39 37 33 32 31 29 31 36 43 40 33 35 42 42 36 32 29 29 29 29 30 30 33 33 31 34 37 37 35 34 35 34 32 31 34 40 40 35 37 42 41 37 33 30 26 23 23 28 37 40 43 45 40 35 35 37 35 36 38 39 45 53 56 50 39 29 21 21 27 32 38 43 49 45 38 32 29 28 37 52 67 62 45 28 20 20 22 31 54 68 65 50 38 32 28 26 43 70 69 46 31 22 19 21 32 61 70 44 40 37 30 30 50 73 69 46 29 22 21 22 39 65 68 50 37 34 31 29 48 73 74 55 36 25 20 17 27 57 74 58 40 31 29 26 34 59 72 55 35 23 20 19 27 58 72 57 44 40 37 30 40 70 77 55 35 28 22 18 38 64 44 42 40 33 36 62 80 62 38 24 22 21 34 63 69 53 41 39 33 28 41 71 78 55 35 25 23 18 28 64 82 58 39 38 33 26 37 56 62 47 29 21 18 17 36 71 76 51 39 35 28 23 39 65 66 44 29 22 19 19 34 67 73 52 37 30 23 20 36 62 64 46 30 20 18 18 52 73 63 44 36 29 23 29 55 70 54 34 25 20 16 59 73 59 44 36 28 24 38 66 71 47 28 22 21 18 36 72 69 44 33 33 30 32 52 70 61 37 25 22 22 24 51 76 63 40 34 31 27 37 65 73 51 32 26 23 20 35 75 67 44 34 29 23 28 60 79 61 37 28 23 18 24 68 82 52 34 32 26 25 46 69 70 48 32 25 23 20 36 69 68 48 38 30 25 32 63 75 51 36 29 24 19 63 73 55 42 33 26 31 64 78 54 30 21 23 23 32 57 69 52 41 38 33 36 69 86 62 37 24 22 21 27 67 67 45 35 34 30 37 64 70 55 36 26 23 23 32 54 68 57 45 40 30 25 45 67 63 43 28 21 16 21 57 75 60 42 33 27 25 43 65 63 45 31 24 21 21 41 66 66 52 41 32 27 39 65 67 44 27 23 22 23 44 62 57 42 34 34 32 42 69 73 48 30 24 20 20 47 68 59 43 36 33 30 44 67 66 46 32 27 25 22 44 70 66 41 30 25 33 62 69 52 34 27 23 19 41 70 67 48 38 33 29 34 59 69 53 35 25 22 19 36 63 65 51 35 27 27 34 60 71 56 34 22 21 21 28 59 72 53 36 33 32 33 52 70 61 41 25 19 18 21 50 71 60 45 35 27 22 42 68 67 42 25 19 17 30 68 71 49 35 28 24 29 55 70 58 36 23 20 19 32 70 73 50 37 30 36 67 67 43 25 17 19 21 43 69 63 45 35 31 31 42 68 64 46 30 20 18 23 47 66 63 49 33 24 20 27 55 70 58 36 25 25 23 28 57 65 51 32 25 22 25 58 80 64 39 25 21 20 27 61 67 53 42 36 29 31 61 76 57 34 21 18 18 24 59 76 59 42 37 32 25 39 68 70 47 30 24 21 23 56 69 54 41 32 26 25 42 75 57 38 23 18 18 32 56 62 51 41 35 28 29 52 68 61 40 26 21 19 22 49 68 58 41 32 26 23 36 70 63 40 26 20 19 26 54 68 50 35 29 25 24 42 65 64 47 32 22 18 19 46 71 57 36 28 27 25 41 67 68 50 31 22 19 19 31 60 64 47 35 28 25 31 65 72 54 32 24 20 19 29 61 68 50 37 29 24 24 49 75 44 26 22 21 23 51 69 54 40 34 29 26 42 68 68 50 31 23 21 23 40 62 60 45 36 31 27 30 53 71 61 39 27 22 21 28 66 73 48 35 27 24 26 56 74 61 40 27 22 22 23 62 81 54 36 33 27 26 46 68 65 48 32 22 20 20 42 73 62 40 29 26 25 37 66 69 53 35 24 20 20 33 61 67 52 39 29 25 29 51 69 62 26 22 24 40 62 66 51 38 30 26 30 58 74 60 38 28 26 23 34 63 68 56 45 37 28 30 61 73 57 34 20 18 19 33 65 71 51 47 42 32 26 41 61 60 45 29 20 18 26 60 72 52 41 36 30 27 45 72 68 48 31 24 23 25 46 73 63 40 38 36 31 39 71 77 57 35 26 24 23 29 57 68 52 41 41 36 28 43 76 77 50 30 19 21 38 64 62 46 38 36 31 33 56 69 57 39 28 22 19 36 63 64 54 43 33 27 35 61 76 60 38 27 24 23 33 61 68 54 42 36 30 27 47 69 62 42 31 25 22 27 52 65 55 41 34 27 26 52 74 66 46 31 26 24 29 50 66 58 47 39 30 24 36 70 77 54 34 28 28 25 44 67 61 48 38 29 25 34 63 73 54 36 26 23 48 69 58 44 36 31 26 33 64 72 55 37 26 22 24 31 58 68 53 43 36 28 27 57 73 62 41 27 22 22 27 45 64 60 45 35 31 27 39 63 71 56 39 30 28 26 44 67 63 48 41 35 29 32 56 75 61 37 29 24 22 26 59 77 60 42 33 27 23 36 66 69 51 34 24 21 24 38 63 63 48 37 31 26 25 47 70 66 46 30 21 18 36 53 60 54 43 35 28 24 36 64 73 58 36 25 22 23 28 55 71 61 48 38 28 22 35 66 69 51 32 24 21 21 37 61 60 51 43 34 27 28 51 69 59 40 27 20 23 31 58 69 55 43 34 27 24 34 68 73 57 36 22 17 18 30 61 68 52 41 34 29 25 31 59 66 52 34 23 18 21 37 64 64 48 36 33 32 29 41 65 66 52 35 21 22 34 55 61 48 38 34 29 29 53 71 63 44 29 22 20 28 54 70 54 41 36 29 26 42 69 69 49 32 25 24 31 59 70 55 48 45 35 26 34 65 68 50 31 22 19 19 39 62 58 43 35 28 24 30 62 74 60 39 26 23 22 29 55 68 56 45 39 30 23 29 60 75 59 36 24 22 24 30 57 70 58 49 41 36 29 30 56 74 63 41 20 21 29 51 65 56 46 39 32 26 29 56 72 59 38 27 22 23 27 53 66 60 47 35 28 25 38 64 70 54 35 25 23 24 39 61 61 53 47 38 29 23 35 62 67 52 34 22 20 24 40 64 63 48 40 37 31 29 40 67 71 53 33 23 21 26 47 63 58 47 41 35 32 32 50 73 71 52 32 24 22 24 42 68 67 50 38 35 32 30 47 72 40 24 18 18 35 61 67 50 40 34 32 29 42 68 68 50 31 18 14 16 35 61 65 51 36 30 28 27 38 59 69 57 38 20 12 11 19 42 66 65 49 37 25 21 22 26 39 61 68 55 36 23 15 14 21 38 59 62 50 36 27 23 23 24 30 49 67 62 46 30 17 13 17 26 46 61 57 46 36 30 26 23 22 29 45 58 59 49 34 23 16 14 28 41 52 51 45 38 32 30 28 26 27 34 42 47 48 42 34 27 22 21 22 26 35 41 45 45 41 37 33 30 28 28 32 37 43 44 44 42 34 29 24 21 23 26 34 41 43 40 37 34 35 33 31 32 38 44 43 35 29 27 29 33 35 34 33 32 31 32 34 34 33 32 32 32 33 34 34 35 34 33 32 30 29 29 36 41 33 36 34 33 33 33 33 33 34 33 33 33 33 34 33 32 32 33 34 34 34 33 32 32 32 33 35 34 31 32 32 33 33 33 32 33 33 33 33 33 33 33 33 32 33 33 34 32 32 32 32 33 33 33 33 33 33 33 33 33 32 33 33 33 33 33 33 33 32 33 33 33 33 33 33 33 33 33 33 33 33 33 33 33 33 33 33 33 33 33 33 33 33 33 32 33 33 33 32 32 33 33 32 33 33 33 32 33 33 33 33 33 33 32 33 32 33 32 32 33 32 32 32 33 33 33 32 32 32 33 32 32 33 32 33 33 33 32 33 32 33 33 33 33 33 33 33 33 32 33 33 32 32 32 32 33 33 33 33 33 33 33 33 33 33 33 32 33 33 33 33 33 33 33 33 33 33 33 33 33 33 33 33 33 33 33 33 33 33 33 33 33 33 33 33 33 33 33 33 33 33 33 33 33 33 32 32 33 33 32 33 33 33 33 33 33 33 33 32 33 32 34 32 33 32 33 33 34 33 33 34 34 33 32 33 33 33 32 33 33 33 34 33 33 33 33 33 33 33 33 33 33 33 33 33 33 33 33 33 33 33 33 33 34 33 33 33 33 33 33 33 33 33 33 33 33 33 33 34 34 34 33 34 34 33 33 33 33 33 33 33 33 33 32 33 33 33 33 33 33 33 32 32 33 33 33 33 32 33 33 33 32 32 33 33 33 33 33 32 32 33 32 34 32 34 33 32 32 32 32 33 33 32 32 32 32 32 33 33 33 33 33 33 33 33 33 33 33 33 33 33 33 33 33 33 33 33 32 33 33 33 33 33 33 33 33 33 33 33 33 33 33 33 33 33 33 33 33 32 33 33 33 33 33 33 33 33 33 33 33 33 32 33 33 33 33 33 33 33 33 33 33 33 32 32 34 33 32 33 33 33 32 33 33 32 32 32 33 33 32 32 32 32 32 32 32 32 32 33 33 33 33 33 32 33 33 33 33 33 33 32 33 32 32 33 33 32 32 33 33 33 33 33 33 33 33 33 32 33 32 33 33 33 33 33 32 33 33 33 33 33 33 33 33 33 33 32 33 32 32 33 33 32 33 33 33 33 33 33 33 33 33 33 33 33 33 33 33 33 33 32 33 33 33 32 33 32 32 32 33 32 33 32 33 33 33 33 33 33 32 32 33 33 33 33 33 33 34 34 33 33 32 32 34 32 33 33 33 32 33 33 33 32 33 33 33 33 33 33 32 32 32 33 33 33 33 33 33 33 33 32 33 33 33 33 32 33 32 32 33 33 33 33 32 32 33 33 32 33 33 33 32 32 33 32 32 33 32 32 32 33 33 33 32 33 33 33 33 33 33 33 33 33 33 33 33 33 33 33 33 33 33 33 33 33 33 33 33 33 33 33 33 33 33 33 32 32 32 32 32 32 32 32 32 33 32 32 32 33 32 33 33 32 33 34 33 33 33 32 33 33 34 33 33 33 33 33 33 33 33 33 32 33 33 34 34 33 32 32 34 33 32 33 33 32 33 33 32 33 32 32 32 32 33 33 32 33 33 32 33 33 33 33 33 33 34 33 32 33 32 33 33 33 33 33 32 33 33 33 33 33 32 33 33 33 34 33 32 33 32 33 33 33 33 33 33 32 34 33 32 32 33 34 33 32 33 32 33 32 34 34 32 32 32 32 33 34 34 33 32 33 33 33 33 32 32 33 33 34 34 35 35 33 34 33 31 30 29 28 27 26 27 30 32 36 39 40 41 46 48 45 40 35 31 29 28 27 28 29 29 31 34 35 34 37 39 39 36 33 29 29 30 32 34 36 40 44 38 34 37 42 43 39 34 32 31 29 26 26 28 32 35 33 35 38 39 39 37 35 33 33 31 32 35 36 35 41 46 47 41 36 31 27 25 26 29 32 35 34 32 33 36 37 37 35 35 34 34 34 36 39 40 34 34 42 43 38 35 34 33 32 33 34 32 33 30 28 31 34 36 36 37 38 36 36 36 35 36 35 36 42 44 43 38 36 35 33 29 26 26 28 30 35 41 42 39 36 35 31 29 26 28 32 37 44 49 48 43 36 29 22 21 25 36 40 42 48 45 41 37 36 33 36 46 56 57 50 38 28 24 24 23 28 38 51 55 50 41 33 29 27 27 36 53 66 61 45 29 20 16 16 23 44 65 64 49 36 30 32 31 30 45 62 69 58 39 26 20 19 19 40 70 71 54 41 33 31 28 27 44 70 75 55 33 21 21 25 29 62 85 64 45 39 34 28 27 57 86 71 41 26 26 29 30 67 84 64 44 29 24 35 71 83 61 38 25 23 21 29 65 81 56 41 39 37 31 49 83 77 49 31 27 29 32 58 80 64 43 30 31 28 43 76 74 49 31 21 21 23 50 78 73 53 45 38 28 32 63 78 60 35 26 27 29 43 70 69 51 42 39 32 34 68 89 66 39 24 24 23 55 81 71 46 39 36 30 35 58 75 62 43 31 29 24 49 76 64 45 39 37 48 71 72 55 38 29 26 28 54 72 61 47 38 31 27 40 66 69 51 35 30 26 25 53 73 59 43 41 34 31 56 75 70 50 35 28 25 31 57 66 59 49 45 41 39 57 80 74 50 34 28 30 35 48 65 62 48 39 38 33 46 71 75 53 37 28 27 25 50 68 54 37 27 30 32 54 71 65 47 34 29 26 46 72 58 40 36 36 33 50 73 67 34 28 24 30 54 72 60 44 42 37 31 46 64 69 51 36 31 28 36 67 70 52 45 41 31 36 55 66 53 36 24 23 33 68 69 49 43 34 26 26 53 69 60 41 30 26 24 45 70 64 45 39 36 30 46 70 64 45 32 24 23 40 70 70 52 50 47 38 45 65 68 52 37 33 28 30 62 74 55 50 46 38 41 65 70 50 34 30 28 26 58 80 41 40 39 35 55 76 63 45 33 28 25 38 71 67 51 49 47 37 35 66 79 57 39 28 27 27 55 75 66 40 40 43 37 43 70 74 55 34 24 23 26 57 83 67 38 31 32 27 32 57 74 60 39 28 25 22 42 66 67 51 43 37 29 29 51 70 65 46 29 23 24 36 60 66 55 42 35 30 24 43 77 75 52 29 21 23 31 57 64 51 41 37 38 61 69 55 37 23 16 17 39 68 60 41 33 30 26 35 65 73 59 39 25 22 21 49 69 54 36 32 31 29 46 72 72 48 30 24 22 25 54 70 52 38 34 30 27 50 70 66 47 32 28 26 32 67 69 50 39 34 29 33 59 74 55 38 28 27 26 50 71 55 38 33 31 34 59 72 63 42 31 30 26 41 79 74 49 40 36 27 38 72 76 54 30 31 26 58 85 65 43 32 27 26 48 69 65 48 29 25 24 44 83 69 42 37 34 28 40 65 71 52 34 26 24 24 50 76 66 49 43 37 31 49 75 72 49 32 27 27 29 63 81 61 42 38 33 32 54 78 69 48 34 32 29 31 72 80 64 49 37 28 31 61 84 67 48 33 30 26 50 87 73 51 45 43 37 56 79 66 44 34 32 30 56 84 48 40 34 30 32 62 82 67 44 29 27 28 32 68 77 52 36 33 30 33 65 81 69 48 33 30 27 37 70 77 48 42 39 32 44 77 75 55 37 27 25 24 68 79 54 45 41 36 32 50 76 71 46 31 28 27 31 63 79 60 45 42 38 30 47 75 69 47 31 26 26 32 69 81 56 37 34 32 31 51 68 66 51 31 21 20 28 61 74 52 39 34 28 37 62 70 59 36 25 22 25 46 66 60 42 39 40 37 32 56 72 67 48 27 22 24 31 63 70 52 39 32 30 29 50 70 64 48 29 20 21 29 64 74 54 37 31 31 28 36 63 72 63 41 30 25 26 39 67 68 49 35 30 28 23 42 71 76 58 36 24 22 23 56 77 61 40 31 28 26 34 58 72 64 40 26 22 23 40 66 62 43 34 33 29 53 76 69 47 28 20 22 26 53 72 58 38 32 30 26 31 56 69 63 43 26 20 22 33 66 72 50 39 34 29 28 52 73 66 47 28 20 20 25 66 83 61 39 30 24 22 31 57 67 61 44 29 25 29 38 60 66 53 41 30 25 24 46 68 64 47 31 24 24 29 50 69 64 46 38 33 28 28 51 69 65 50 27 21 24 34 67 73 51 35 29 26 49 69 70 49 29 20 21 28 58 73 56 45 40 32 27 35 66 75 54 34 25 24 27 54 82 66 40 32 29 28 33 64 79 64 41 29 26 26 38 64 69 50 37 34 34 31 46 70 73 53 31 19 18 22 49 76 65 42 34 32 26 26 52 75 73 47 26 24 27 27 69 78 52 35 29 24 27 50 69 65 48 31 26 26 29 50 65 54 41 34 33 47 74 73 52 34 26 27 26 62 80 60 43 35 29 26 39 66 73 59 38 30 32 32 59 74 59 44 38 32 29 43 72 79 54 35 28 30 36 61 71 57 49 47 43 35 45 77 79 58 39 31 33 29 62 78 59 46 44 42 37 59 80 57 40 36 37 34 70 76 58 51 40 33 28 52 77 73 52 35 31 29 36 63 70 56 45 39 35 31 52 80 74 34 29 30 32 62 72 53 39 37 39 38 47 66 72 56 38 30 26 31 67 68 50 39 35 34 31 50 75 71 50 34 30 27 35 70 69 47 38 36 33 33 55 72 64 43 25 19 20 36 70 70 46 36 39 37 38 58 77 70 48 33 27 27 34 60 69 52 40 39 36 34 58 86 75 51 33 31 28 34 64 71 46 42 38 35 36 62 84 71 47 30 26 33 60 69 51 37 36 31 28 41 61 69 58 43 33 26 27 54 69 51 35 26 24 25 42 64 69 54 37 24 20 25 61 65 45 37 30 27 25 45 68 69 51 33 21 20 30 59 67 47 36 35 30 29 52 65 59 41 28 23 25 35 72 69 49 39 34 31 37 61 70 59 41 29 28 27 45 66 65 47 38 35 32 37 60 67 56 41 30 27 26 45 71 42 37 34 30 47 69 69 51 32 24 24 31 65 67 42 31 29 26 33 57 75 64 42 32 29 28 45 64 62 46 38 33 30 52 75 69 49 33 28 28 40 69 67 46 41 38 34 36 55 73 69 47 32 30 29 47 76 69 47 37 33 28 32 62 78 62 40 27 22 23 45 69 62 43 37 33 30 42 65 72 57 38 26 27 28 47 67 61 45 38 33 28 65 75 59 37 29 28 27 51 76 61 42 33 26 23 39 68 70 52 35 28 27 27 49 70 60 42 34 33 35 52 74 74 53 33 28 30 34 50 68 61 47 39 34 31 35 57 67 61 42 25 24 23 40 71 71 52 42 38 34 31 46 68 72 58 35 23 26 38 72 72 54 40 33 28 27 53 71 66 46 24 25 25 27 60 78 62 43 31 27 28 30 52 68 51 31 17 15 22 41 62 68 56 40 33 31 31 37 64 77 64 42 26 21 21 25 46 71 72 52 35 30 29 30 48 67 79 63 40 30 30 29 34 61 80 66 46 40 37 33 28 34 62 85 72 49 31 26 25 25 40 64 68 54 43 33 28 26 25 35 60 80 69 48 28 24 23 23 34 61 75 61 45 32 26 27 27 34 61 79 76 56 36 25 24 33 51 67 60 49 38 31 29 28 29 38 65 82 70 45 26 21 19 20 32 55 69 59 47 38 31 25 21 22 37 70 73 58 41 27 18 16 18 26 44 57 55 46 38 29 25 25 27 40 55 61 53 38 26 20 18 19 26 38 49 53 50 42 34 28 26 27 37 53 59 51 34 23 19 22 29 40 43 44 44 44 39 33 30 29 29 35 44 51 50 41 30 19 21 26 35 42 42 34 30 31 33 37 40 38 35 36 40 35 32 34 36 34 32 30 28 27 30 32 39 41 36 31 29 32 34 34 34 37 40 43 40 36 32 29 23 22 26 34 38 35 32 32 31 32 33 33 34 33 33 32 32 33 32 32 32 32 33 33 33 33 33 33 33 33 33 33 33 33 33 33 33 33 33 33 32 33 32 33 33 33 33 33 33 33 33 32 33 33 33 33 33 33 33 33 33 33 33 33 33 33 33 33 33 33 33 33 32 33 33 33 33 32 33 33 33 33 33 33 33 33 33 33 33 33 33 33 33 33 33 32 33 32 32 32 33 33 33 32 32 33 33 32 32 32 32 32 33 34 35 33 33 33 33 33 33 33 33 33 33 33 33 34 33 33 34 33 33 33 33 33 33 33 33 33 33 33 33 33 33 34 34 34 33 33 33 33 33 33 33 33 33 33 33 33 34 33 33 33 33 33 33 34 34 33 34 33 33 34 33 34 34 33 33 32 33 33 34 33 33 33 33 34 34 33 33 33 33 34 33 33 33 33 33 33 33 33 33 33 33 33 33 33 33 33 33 33 34 34 33 33 33 33 34 33 34 34 33 33 34 33 34 33 33 33 33 33 33 33 33 33 33 33 33 33 33 33 33 33 33 33 33 33 34 33 33 33 33 33 33 33 33 33 33 33 33 33 33 33 32 34 33 33 33 33 33 33 33 34 33 33 33 33 34 33 33 33 34 33 33 33 33 34 34 33 33 34 36 36 34 35 32 34 34 34 32 32 32 32 32 32 32 32 32 33 33 32 33 32 32 31 32 32 33 32 33 34 34 33 33 33 33 33 33 32 32 32 33 34 35 34 34 33 33 33 33 33 33 33 34 33 33 33 31 32 33 34 33 33 33 33 33 33 33 33 33 33 33 32 33 33 33 33 33 33 33 33 33 33 33 33 33 33 33 33 33 33 33 33 33 33 33 33 33 33 33 33 33 33 34 33 33 33 32 32 33 33 33 33 33 34 33 33 33 33 33 33 33 33 33 33 33 33 33 33 34 34 33 33 33 32 33 33 33 33 33 33 33 33 33 33 33 33 33 33 33 33 33 33 33 33 33 33 33 33 33 33 33 33 33 33 33 33 33 33 33 33 33 33 33 33 33 33 33 33 33 33 33 33 33 33 33 33 33 33 33 33 33 33 33 33 33 33 33 33 33 34 33 33 33 33 33 33 33 33 33 33 33 33 33 33 33 33 33 33 33 33 33 33 33 33 33 33 33 33 33 33 33 32 33 33 33 33 33 33 34 33 33 33 33 33 33 34 34 33 33 33 33 33 33 32 33 33 33 33 33 33 33 33 33 33 33 34 33 32 32 33 33 33 33 33 33 33 33 33 33 32 32 32 33 33 34 33 34 32 32 32 34 34 34 35 33 31 31 31 32 34 33 33 33 32 33 33 33 33 33 33 33 33 33 33 33 33 33 33 33 32 32 32 33 33 33 33 33 33 33 33 33 33 33 33 33 33 33 33 33 33 33 33 33 33 33 33 33 33 33 33 33 33 33 33 33 33 33 33 33 34 34 33 33 33 32 32 32 33 33 33 33 34 33 33 33 33 32 33 33 33 33 33 33 33 33 33 33 33 33 33 33 33 33 33 33 33 33 33 33 33 33 33 33 33 33 33 33 33 33 33 33 33 33 33 33 33 33 33 33 33 33 33 33 33 33 33 33 33 33 33 33 33 33 33 33 33 33 33 33 33 33 33 33 33 33 33 33 33 33 33 33 33 33 33 33 33 33 33 33 33 33 33 33 33 33 33 33 34 33 33 32 33 33 33 33 33 33 33 34 34 33 33 33 33 33 33 33 33 33 33 33 33 33 33 33 32 33 33 33 34 34 33 33 33 33 33 33 33 33 33 33 33 34 34 33 33 33 33 33 33 32 33 33 34 34 33 33 33 35 34 33 33 33 33 33 33 33 33 33 34 34 33 33 33 33 33 33 33 33 33 33 33 34 33 33 33 33 33 33 33 33 33 33 33 33 33 33 33 33 33 33 33 33 33 33 33 33 33 33 33 33 33 33 33 33 33 33 33 33 33 33 33 33 33 33 33 33 33 33 33 33 33 33 33 33 33 33 33 33 33 33 33 33 34 34 33 33 33 33 33 33 33 33 33 33 33 33 33 33 33 33 33 33 33 33 33 33 33 33 33 33 33 33 33 33 33 33 33 33 33 33 33 33 33 33 33 33 33 33 33 33 33 33 33 33 33 33 33 33 33 33 33 33 33 33 32 33 33 33 33 33 33 33 33 33 33 33 33 33 33 33 33 33 33 33 33 33 33 33 34 34 33 33 33 33 33 33 33 33 33 33 33 33 33 33 33 33 33 33 33 33 33 33 33 33 33 33 33 33 33 33 33 33 33 33 33 33 33 33 33 33 33 33 33 33 33 33 33 33 33 33 33 33 33 33 33 33 33 33 33 33 33 33 33 33 33 33 33 33 33 33 33 33 33 33 33 33 33 33 33 33 34 33 33 33 33 33 33 33 33 33 33 33 33 33 33 33 33 33 33 33 33 33 33 33 33 33 33 33 33 33 33 33 33 33 33 34 34 33 33 33 32 33 33 32 32 33 34 33 33 33 33 33 33 33 33 33 33 34 33 33 33 33 33 33 33 33 33 33 33 34 33 33 33 33 33 33 33 33 33 33 33 33 33 33 33 33 33 33 33 33 33 33 33 33 33 33 33 33 33 33 33 33 33 33 33 33 33 33 33 33 33 33 33 33 31 32 33 34 33 33 33 33 33 33 33 34 34 34 34 33 33 32 32 33 33 34 34 34 33 33 33 33 32 32 33 33 33 33 33 33 33 33 33 33 33 33
