29170 29411 29521 29471 29366 29289 29237 29208 36496 36631 36666 36714 36758 36787 36829 36867 36892 36908 36932 36961 36982 37016 37031 37036 37065 37071 37055 37057 37070 37075 37085 37077 37096 37106 37139 37169 37174 37187 37198 37213 37235 37258 37264 37231 37235 37216 32384 32403 32422 32413 32442 32444 32466 32469 32480 32501 32525 32536 32561 32582 32549 32517 32468 32470 32457 32467 32461 32471 32471 32463 32466 32475 32486 32485 32507 32506 32511 32449 32385 32356 32344 32345 32356 32368 32373 32373 32368 32365 32381 32363 32365 32346 32335 32289 32228 32158 32110 32077 32056 32027 32027 31987 31962 31944 31937 31912 31883 31860 31846 31828 31813 31713 31622 31542 31480 31421 31399 31370 31339 31298 31280 31267 31268 31258 31265 31282 31303 31337 31331 31304 31242 31221 31199 31178 31137 31094 31069 31002 30942 30892 30845 30774 30718 30664 30615 30566 30513 30455 30326 30148 30022 29914 29868 29873 29866 29882 29923 29969 30026 30088 30127 30162 30207 30243 30275 30300 30288 30273 30270 30246 30257 30272 30283 30303 30316 30334 30340 30357 30366 30372 30393 30394 30394 30376 30392 30358 30320 30293 30280 30300 30327 30342 30338 30336 30344 30365 30391 30405 30428 30437 30476 30489 30504 30489 30479 30496 30504 30532 30563 30586 30636 30701 30682 30605 30468 30340 30217 30166 30111 30032 29991 29846 29698 29552 29448 29331 29259 29157 29046 28960 28890 28822 28767 28717 28690 28642 28608 28500 28348 28195 28047 27931 27870 27772 27714 27648 27592 27527 27462 27418 27388 27322 27285 27180 27059 26907 26783 26692 26629 26605 26573 26544 26534 26496 26477 26429 26358 26344 26336 26266 26148 26029 25967 25917 25884 25867 25841 25819 25781 25726 25690 25667 25650 25633 25621 25552 25457 25358 25338 25345 25365 25419 25426 25446 25481 25499 25508 25500 25539 25635 25674 25656 25604 25603 25562 25529 25523 25476 25455 25428 25434 25453 25518 25619 25658 25690 25673 25615 25517 25493 25472 25426 25419 25458 25509 25517 25507 25533 25566 25559 25605 25688 25707 25663 25593 25529 25501 25475 25441 25410 25382 25355 25329 25304 25313 25321 25335 25342 25280 25179 25103 25071 25075 25145 25153 25183 25193 25219 25234 25245 25290 25311 25360 25350 25274 25224 25188 25153 25144 25144 25106 25079 25059 25039 25037 25014 24994 24966 24962 24923 24826 24731 24666 24649 24655 24651 24669 24671 24668 24684 24677 24653 24635 24631 24620 24545 24463 24419 24409 24419 24449 24464 24465 24451 24441 24435 24431 24449 24475 24476 24424 24359 24303 24267 24248 24252 24300 24330 24342 24364 24359 24367 24379 24394 24420 24420 24362 24317 24266 24236 24242 24247 24258 24267 24300 24336 24389 24474 24560 24633 24782 24930 25095 25202 25297 25349 25483 25610 25722 25793 25895 25957 26012 26059 26080 26108 26086 26034 25988 25953 25897 25859 25807 25822 25905 25976 26018 26061 26071 26110 26239 26353 26524 26776 27135 27555 28006 28455 28811 29042 29249 29416 29554 29697 29808 29905 30001 30086 30130 30137 30106 30047 29989 29958 29944 29965 29999 30035 30059 30090 30106 30094 30080 30058 30056 30100 30114 30119 30145 30154 30165 30171 30198 30236 30246 30254 30223 30203 30188 30214 30252 30267 30274 30294 30317 30340 30361 30400 30420 30419 30422 30383 30343 30336 30337 30350 30374 30370 30380 30392 30422 30429 30463 30473 30474 30434 30409 30396 30429 30438 30468 30452 30468 30490 30510 30521 30549 30566 30576 30569 30517 30485 30487 30493 30504 30512 30534 30552 30547 30571 30587 30607 30629 30635 30608 30567 30543 30535 30558 30567 30598 30617 30643 30681 30703 30719 30752 30776 30799 30794 30814 30833 30884 30932 30923 30908 30882 30842 30813 30774 30739 30681 30618 30584 30493 30370 30224 30074 29943 29837 29724 29611 29491 29361 29237 29122 29013 28911 28817 28664 28447 28195 27996 27829 27686 27537 27400 27268 27144 27031 26936 26852 26768 26684 26616 26450 26244 26074 25921 25809 25729 25628 25520 25429 25357 25284 25232 25188 25127 25092 25071 24972 24848 24705 24598 24538 24504 24468 24406 24357 24325 24279 24251 24236 24204 24184 24151 24143 24051 23906 23784 23705 23659 23633 23621 23607 23562 23532 23509 23487 23482 23492 23498 23513 23476 23382 23297 23266 23354 23811 24545 25199 25677 26090 26480 26887 27318 27758 28118 28415 28716 28937 29065 29149 29265 29298 29248 29093 28981 28835 28730 28668 28616 28584 28588 28616 28686 28716 28706 28762 28838 28853 28858 28820 28794 28772 28774 28789 28799 28801 28818 28796 28753 28734 28744 28764 28809 28865 28917 28940 28963 29014 29065 29127 29174 29177 29187 29182 29122 29064 28993 28917 28868 28819 28766 28720 28682 28644 28616 28605 28550 28530 28487 28394 28300 28224 28167 28142 28129 28085 28035 27940 27842 27770 27707 27652 27612 27564 27440 27290 27153 26990 26902 26797 26746 26760 26791 26806 26836 26884 26920 27027 27064 27013 26937 26854 26759 26615 26484 26389 26243 26006 25950 26043 26101 26068 25945 25741 25568 25486 25456 25411 25380 25307 25255 25205 25157 25145 25121 25135 25114 25025 24887 24800 24749 24724 24717 24708 24680 24644 24637 24631 24635 24654 24610 24505 24413 24356 24346 24331 24352 24382 24404 24417 24436 24448 24485 24499 24534 24570 24613 24638 24670 24707 24733 24783 24829 24863 24910 24955 24954 24868 24778 24720 24676 24665 24656 24685 24674 24659 24618 24635 24692 24800 24897 24993 25013 24977 24896 24790 24639 24525 24409 24302 24236 24172 24130 24100 24072 24069 24088 24119 24138 24194 24220 24247 24300 24341 24386 24381 24334 24238 24175 24113 24066 24053 24040 24044 24048 24033 24022 24033 24037 24069 24086 24120 24168 24199 24250 24301 24323 24317 24284 24243 24209 24225 24251 24269 24291 24321 24368 24380 24405 24432 24453 24483 24510 24551 24595 24675 24718 24790 24797 24766 24743 24733 24734 24763 24796 24843 24889 24922 24945 24976 25011 25043 25070 25120 25179 25237 25310 25364 25367 25330 25297 25263 25184 25153 25168 25146 25131 25139 25143 25147 25167 25204 25228 25246 25266 25296 25318 25297 25263 25216 25184 25151 25141 25155 25171 25166 25178 25184 25207 25218 25235 25263 25284 25307 25290 25236 25199 25155 25161 25186 25215 25249 25276 25284 25337 25362 25388 25423 25483 25548 25649 25667 25662 25638 25647 25672 25667 25673 25780 25959 26197 26449 26602 26746 26840 26945 27013 27096 27222 27257 27220 27187 27186 27261 27166 26927 26790 26741 26878 27200 27494 27721 27887 28023 28140 28257 28356 28424 28495 28581 28644 28747 28825 28917 28978 29050 29101 29126 29129 29111 29080 29033 29026 29017 29027 29004 28988 28990 28975 29005 28980 28951 28916 28872 28845 28855 28871 28862 28812 28769 28723 28715 28704 28732 28720 28721 28708 28663 28649 28581 28521 28440 28364 28330 28297 28283 28312 28358 28415 28527 28654 28723 28811 28911 29056 29205 29327 29416 29451 29588 29712 29792 29820 29858 29927 30016 30091 30172 30274 30290 30314 30322 30309 30307 30293 30303 30298 30305 30316 30323 30342 30369 30404 30397 30390 30351 30351 30369 30388 30410 30419 30446 30450 30497 30505 30514 30535 30549 30560 30526 30506 30505 30489 30492 30515 30511 30519 30531 30531 30538 30541 30550 30532 30520 30488 30473 30501 30558 30666 30796 30897 31001 31069 31139 31200 31264 31335 31367 31417 31449 31487 31487 31532 31555 31571 31643 31705 31762 31834 31874 31872 31877 31889 31841 31801 31777 31779 31787 31798 31821 31815 31813 31842 31841 31855 31856 31863 31863 31824 31771 31736 31704 31701 31727 31726 31745 31736 31736 31753 31749 31774 31778 31779 31697 31639 31598 31586 31583 31586 31581 31581 31566 31578 31583 31582 31587 31605 31596 31503 31435 31385 31358 31345 31340 31342 31323 31307 31307 31307 31326 31325 31327 31327 31276 31177 31112 31066 31061 31044 31021 31015 30999 30978 30977 30984 30989 30996 30993 30990 30915 30824 30734 30681 30655 30626 30619 30578 30547 30539 30513 30527 30520 30527 30516 30506 30460 30357 30270 30238 30201 30177 30151 30125 30104 30083 30091 30085 30069 30060 30070 30052 30002 29889 29807 29747 29716 29684 29669 29622 29594 29580 29575 29567 29569 29551 29555 29550 29560 29463 29366 29289 29254 29250 29227 29197 29172 29167 29153 29153 29147 29164 29171 29189 29190 29197 29143 29059 29004 28975 28982 28969 29003 29058 29153 29266 29398 29558 29683 29797 29896 30005 30109 30193 30264 30311 30357 30402 30369 30316 30238 30165 30108 30046 29984 29931 29864 29817 29762 29670 29518 29369 29237 29134 29044 28946 28835 28737 28643 28544 28489 28419 28372 28303 28238 28178 28050 27918 27778 27702 27617 27534 27457 27352 27268 27193 27124 27098 27031 27002 26958 26914 26803 26682 26543 26451 26372 26321 26253 26195 26125 26075 26036 25980 25935 25897 25872 25808 25710 25571 25456 25362 25286 25230 25161 25101 25042 24998 24960 24954 24974 24976 24994 24988 24903 24785 24692 24638 24591 24551 24520 24477 24431 24416 24433 24438 24453 24472 24506 24546 24521 24470 24398 24378 24390 24407 24435 24461 24476 24506 24543 24569 24613 24642 24664 24689 24656 24566 24504 24456 24441 24436 24424 24423 24415 24411 24420 24430 24445 24434 24443 24435 24369 24291 24251 24242 24253 24230 24219 24222 24228 24236 24250 24269 24271 24289 24291 24271 24193 24149 24122 24094 24079 24073 24067 24048 24041 24027 24039 24031 24034 24038 24047 24058 23996 23941 23918 23901 23888 23888 23899 23896 23894 23897 23927 23932 23942 23962 23973 23989 23959 23927 23905 23902 23928 23938 23959 23971 23982 24005 24019 24046 24076 24106 24129 24140 24109 24085 24045 24058 24071 24081 24070 24092 24103 24107 24123 24132 24152 24165 24183 24203 24194 24150 24118 24103 24107 24117 24129 24144 24150 24168 24181 24200 24222 24234 24249 24272 24281 24292 24263 24239 24215 24203 24214 24223 24222 24245 24238 24239 24264 24264 24282 24297 24304 24330 24326 24311 24258 24241 24227 24224 24238 24239 24257 24247 24296 24265 24281 24294 24322 24334 24353 24338 24297 24268 24252 24231 24229 24232 24254 24202 24237 24208 24247 24210 24229 24226 24233 24224 24209 24157 24122 24082 24058 24046 24056 24047 24031 24026 24029 24033 24052 24067 24099 24118 24135 24191 24227 24207 24208 24220 24247 24288 24319 24360 24373 24408 24439 24494 24526 24564 24569 24610 24642 24697 24686 24648 24608 24608 24601 24639 24654 24727 24772 24782 24770 24766 24746 24714 24720 24715 24720 24677 24627 24614 24602 24605 24631 24671 24720 24766 24867 24926 25021 25098 25157 25255 25283 25330 25326 25318 25340 25359 25381 25463 25479 25563 25587 25633 25679 25732 25768 25815 25820 25876 25897 25883 25843 25820 25800 25801 25804 25835 25847 25872 25893 25905 25908 25957 25963 25970 25997 26008 26004 25910 25901 25872 25813 25864 25785 25773 25736 25702 25713 25750 25715 25704 25747 25778 25779 25792 25834 26035 26526 27149 27715 28232 28592 28835 29020 29183 29312 29431 29534 29606 29598 29552 29518 29425 29301 29148 28991 28838 28685 28511 28336 28221 28157 28084 27986 27888 27808 27767 27757 27717 27676 27626 27544 27465 27380 27291 27235 27151 27034 26947 26874 26841 26820 26778 26750 26746 26745 26714 26615 26462 26386 26387 26391 26369 26331 26309 26368 26419 26451 26501 26539 26565 26568 26581 26573 26523 26421 26266 26174 26116 26103 26106 26098 26042 26017 26017 26019 25989 26008 26107 26216 26294 26305 26293 26299 26318 26345 26396 26440 26492 26521 26520 26581 26629 26643 26630 26615 26622 26662 26663 26605 26569 26576 26566 26557 26524 26513 26552 26640 26707 26721 26735 26773 26836 26881 26887 26893 26869 26836 26814 26807 26851 26849 26824 26791 26807 26835 26868 26884 26899 26895 26865 26805 26738 26694 26746 26819 26848 26830 26838 26872 26932 26983 27035 27094 27116 27114 27071 27045 27038 27001 26943 26893 26896 26926 26937 26921 26934 26934 26940 26916 26866 26880 26930 26927 26882 26854 26888 26930 26958 26997 27035 27092 27093 27077 27066 27097 27062 26961 26832 26731 26710 26673 26641 26614 26605 26587 26518 26448 26446 26526 26583 26602 26532 26445 26420 26429 26456 26474 26493 26494 26466 26440 26446 26439 26404 26346 26311 26321 26286 26222 26154 26124 26102 26079 26023 25993 26050 26087 26112 26094 26105 26142 26211 26262 26300 26269 26229 26153 26084 26060 26062 26052 26000 25912 25868 25872 25900 25934 25970 25970 25961 25854 25755 25772 25831 25852 25815 25795 25816 25855 25903 25954 25993 26041 26068 26075 26088 26130 26056 25953 25822 25780 25770 25790 25794 25799 25802 25807 25797 25755 25800 25886 25961 26006 25995 25972 25965 25975 25984 26022 26056 26066 26053 26059 26093 26114 26110 26074 26055 26081 26142 26178 26137 26075 26025 25991 25912 25888 25937 26050 26111 26120 26123 26138 26190 26275 26334 26369 26403 26444 26384 26340 26321 26296 26238 26177 26142 26172 26194 26228 26257 26305 26337 26338 26312 26311 26347 26391 26385 26356 26304 26282 26319 26350 26392 26404 26421 26415 26398 26409 26439 26436 26400 26344 26303 26278 26253 26258 26233 26248 26244 26241 26181 26192 26253 26330 26359 26352 26357 26390 26414 26386 26380 26356 26337 26336 26292 26287 26302 26304 26277 26259 26263 26311 26319 26345 26345 26324 26266 26203 26138 26069 26084 26160 26214 26221 26202 26198 26232 26310 26340 26396 26457 26446 26373 26292 26246 26228 26174 26139 26098 26096 26112 26124 26131 26131 26145 26120 26079 26074 26102 26137 26115 26050 26009 26016 26100 26159 26212 26253 26271 26284 26305 26320 26347 26354 26261 26157 26087 26092 26081 26095 26092 26090 26077 26035 26008 26055 26164 26214 26221 26225 26199 26179 26179 26185 26194 26233 26252 26240 26230 26252 26274 26242 26177 26164 26167 26179 26182 26150 26108 26076 26017 25963 25971 26047 26128 26175 26146 26166 26206 26289 26358 26403 26441 26383 26312 26273 26282 26286 26255 26201 26177 26203 26235 26269 26282 26315 26344 26340 26264 26211 26246 26266 26274 26236 26239 26283 26331 26377 26413 26469 26506 26493 26518 26548 26532 26418 26319 26265 26261 26296 26296 26328 26325 26359 26340 26299 26307 26374 26455 26491 26441 26369 26345 26385 26420 26465 26484 26527 26528 26526 26550 26579 26581 26553 26556 26568 26553 26527 26513 26474 26496 26485 26488 26450 26461 26525 26604 26660 26641 26672 26682 26650 26616 26614 26612 26628 26606 26605 26620 26638 26640 26606 26609 26616 26665 26682 26652 26583 26527 26500 26453 26386 26413 26474 26536 26531 26514 26541 26602 26658 26714 26730 26671 26581 26521 26497 26493 26484 26440 26390 26388 26434 26447 26468 26471 26466 26436 26314 26221 26208 26235 26250 26244 26240 26270 26321 26360 26389 26429 26455 26456 26444 26423 26359 26255 26156 26074 26089 26124 26150 26149 26141 26140 26116 26070 26049 26100 26154 26110 26016 25966 25994 26050 26102 26150 26161 26171 26180 26185 26222 26249 26242 26185 26096 26038 26027 26019 26027 26037 26027 25993 25951 25950 26010 26047 26078 26097 26106 26112 26118 26131 26172 26208 26229 26238 26217 26206 26200 26201 26151 26127 26150 26192 26154 26085 26024 25994 25971 25926 25925 25984 26063 26093 26110 26147 26204 26276 26330 26373 26378 26370 26336 26303 26314 26321 26315 26267 26251 26273 26300 26318 26337 26356 26342 26255 26154 26114 26154 26234 26293 26299 26304 26339 26374 26417 26480 26517 26581 26598 26554 26522 26475 26393 26343 26320 26349 26366 26359 26344 26351 26321 26300 26307 26324 26301 26273 26322 26407 26574 26758 26904 26996 27000 26966 26958 26948 26939 26934 26929 26905 26835 26759 26733 26801 26901 27036 27216 27434 27623 27787 27890 27833 27833 27816 27772 27685 27644 27652 27663 27712 27761 27873 28008 28114 28246 28382 28516 28635 28686 28634 28576 28526 28521 28522 28520 28528 28534 28548 28583 28683 28836 28971 29083 29163 29222 29231 29232 29220 29218 29224 29237 29243 29279 29333 29388 29452 29552 29617 29673 29711 29754 29771 29809 29846 29862 29869 29864 29857 29867 29916 29940 29998 30078 30152 30185 30210 30236 30268 30279 30302 30335 30335 30338 30314 30287 30284 30288 30288 30308 30304 30317 30340 30368 30414 30443 30448 30482 30488 30511 30499 30519 30511 30532 30575 30618 30631 30684 30742 30780 30812 30850 30898 30971 31015 31056 31058 31076 31091 31132 31136 31130 31126 31164 31215 31255 31294 31326 31351 31376 31426 31438 31441 31447 31435 31437 31431 31398 31400 31399 31451 31489 31506 31533 31555 31565 31577 31574 31574 31583 31561 31497 31449 31449 31468 31489 31501 31527 31549 31582 31592 31604 31611 31622 31636 31616 31576 31534 31511 31516 31518 31537 31531 31553 31603 31645 31677 31692 31711 31709 31691 31683 31669 31628 31610 31612 31614 31649 31663 31668 31719 31744 31792 31819 31848 31868 31891 31905 31872 31856 31843 31847 31869 31897 31880 31892 31919 31954 31960 31978 31985 32009 32029 32040 32011 31998 31997 32011 32024 32040 32050 32046 32065 32104 32109 32129 32150 32176 32181 32191 32182 32155 32166 32158 32189 32223 32248 32249 32269 32292 32291 32330 32355 32368 32384 32403 32409 32394 32366 32367 32394 32417 32466 32472 32500 32547 32572 32621 32649 32655 32686 32684 32692 32663 32649 32652 32654 32644 32654 32675 32675 32704 32737 32743 32749 32769 32760 32775 32780 32762 32739 32722 32694 32686 32685 32687 32680 32709 32743 32755 32770 32779 32790 32786 32797 32753 32702 32677 32691 32710 32728 32723 32715 32733 32747 32752 32785 32785 32805 32798 32782 32758 32753 32746 32746 32761 32769 32777 32745 32764 32798 32803 32831 32849 32848 32871 32860 32855 32847 32826 32822 32831 32830 32832 32812 32823 32824 32839 32857 32875 32885 32896 32917 32900 32878 32855 32859 32827 32793 32759 32730 32717 32731 32766 32779 32811 32841 32851 32871 32882 32849 32802 32729 32697 32692 32712 32714 32739 32747 32760 32765 32794 32813 32815 32837 32844 32849 32812 32795 32800 32816 32822 32826 32820 32821 32834 32863 32847 32839 32837 32840 32861 32859 32840 32830 32835 32844 32856 32859 32861 32819 32779 32762 32768 32760 32796 32810 32805 32814 32811 32803 32793 32767 32685 32595 32542 32510 32487 32517 32533 32561 32561 32581 32601 32602 32613 32565 32478 32394 32336 32314 32283 32293 32289 32287 32303 32315 32341 32345 32332 32284 32256 32228 32261 32249 32229 32234 32245 32272 32282 32306 32236 32155 32093 32041 31997 32012 32033 32069 32092 32108 32070 32011 31969 31898 31762 31640 31577 31542 31520 31517 31531 31550 31568 31584 31617 31643 31621 31522 31397 31285 31221 31197 31227 31242 31270 31275 31291 31307 31317 31326 31292 31256 31243 31213 31181 31175 31182 31204 31229 31264 31284 31323 31282 31198 31142 31099 31114 31141 31180 31246 31284 31285 31273 31253 31266 31229 31149 31079 31069 31084 31095 31117 31147 31174 31200 31242 31273 31265 31177 31043 30934 30900 30892 30916 30956 31009 31040 31063 31107 31123 31130 31136 31115 31063 31049 31040 31045 31057 31072 31105 31139 31165 31219 31242 31253 31265 31246 31278 31291 31316 31285 31235 31220 31225 31250 31290 31314 31220 31190 31191 31193 31230 31272 31298 31308 31329 31352 31365 31363 31307 31215 31153 31153 31190 31222 31270 31291 31304 31335 31350 31347 31360 31354 31349 31307 31305 31315 31320 31338 31364 31400 31419 31438 31471 31457 31434 31391 31377 31390 31409 31449 31473 31493 31499 31509 31527 31522 31454 31361 31283 31260 31245 31246 31271 31290 31320 31356 31404 31430 31427 31368 31305 31257 31254 31301 31317 31362 31388 31414 31427 31440 31458 31447 31378 31387 31376 31379 31403 31417 31448 31455 31499 31500 31521 31523 31462 31401 31389 31396 31442 31471 31505 31509 31512 31477 31501 31496 31480 31398 31302 31282 31276 31301 31312 31356 31383 31389 31428 31459 31460 31372 31288 31211 31192 31192 31234 31235 31273 31310 31341 31375 31413 31409 31385 31388 31394 31420 31438 31461 31464 31474 31488 31513 31517 31505 31459 31411 31387 31377 31396 31418 31438 31488 31502 31505 31510 31508 31441 31358 31278 31219 31213 31253 31300 31318 31343 31362 31395 31413 31450 31433 31370 31326 31272 31267 31282 31305 31312 31337 31359 31380 31389 31416 31365 31329 31326 31303 31323 31345 31352 31367 31384 31423 31454 31421 31380 31335 31295 31296 31294 31342 31370 31422 31456 31466 31481 31495 31475 31416 31364 31329 31301 31336 31363 31398 31407 31450 31464 31486 31512 31465 31394 31325 31266 31233 31244 31272 31287 31317 31354 31375 31407 31416 31406 31397 31394 31428 31425 31448 31421 31423 31436 31448 31477 31461 31401 31347 31316 31293 31313 31348 31371 31408 31449 31463 31488 31475 31386 31269 31209 31184 31166 31159 31221 31247 31296 31321 31350 31360 31376 31351 31291 31249 31226 31204 31223 31214 31263 31262 31289 31309 31324 31290 31244 31236 31261 31294 31322 31341 31324 31295 31298 31317 31319 31243 31112 31050 31043 31046 31067 31105 31147 31172 31201 31248 31247 31157 31056 30961 30920 30916 30925 30948 30975 30998 31018 31022 31069 31051 31003 30950 30951 30919 30930 30914 30912 30947 30958 30963 30981 30947 30888 30833 30866 30860 30902 30937 30978 31014 31024 31022 31000 30925 30847 30779 30728 30752 30804 30828 30844 30876 30901 30920 30941 30898 30847 30777 30722 30712 30703 30740 30773 30793 30835 30869 30834 30766 30724 30690 30703 30732 30789 30815 30799 30801 30793 30827 30802 30721 30642 30627 30634 30636 30678 30710 30735 30752 30807 30849 30745 30607 30445 30348 30319 30325 30358 30399 30429 30437 30462 30469 30420 30340 30315 30319 30338 30359 30352 30343 30366 30376 30408 30378 30332 30272 30225 30195 30238 30274 30313 30341 30397 30440 30454 30365 30245 30116 30054 30042 30063 30087 30112 30118 30123 30155 30187 30150 30046 30010 29975 29960 29964 29945 29957 29973 30000 30020 30039 29965 29862 29785 29770 29759 29779 29807 29877 29903 29882 29889 29870 29735 29643 29581 29540 29540 29549 29578 29614 29629 29674 29721 29760 29665 29589 29463 29371 29331 29312 29316 29318 29304 29293 29293 29282 29207 29149 29120 29112 29124 29157 29196 29164 29117 29089 29079 29016 28863 28684 28563 28535 28558 28607 28662 28714 28779 28827 28871 28880 28744 28557 28421 28331 28295 28339 28379 28391 28432 28485 28561 28589 28576 28584 28586 28599 28644 28700 28712 28708 28691 28709 28739 28673 28604 28460 28398 28402 28422 28459 28517 28568 28630 28670 28749 28744 28616 28483 28394 28342 28311 28321 28327 28309 28315 28342 28403 28432 28408 28384 28397 28410 28480 28556 28625 28690 28755 28813 28837 28802 28696 28592 28531 28515 28507 28498 28521 28574 28619 28676 28746 28766 28739 28711 28738 28784 28847 28895 28924 28969 29020 29052 29093 29059 28991 28897 28832 28799 28799 28795 28781 28778 28846 28951 29045 29088 29094 29124 29252 29467 29683 29885 30064 30253 30414 30548 30661 30733 30786 30859 30903 30970 31025 31065 31108 31085 31044 30974 30865 30764 30600 30413 30250 30105 29991 29916 29845 29788 29724 29671 29622 29581 29447 29264 29116 28979 28874 28801 28704 28639 28591 28535 28506 28460 28340 28165 27994 27847 27735 27654 27584 27532 27466 27419 27362 27338 27216 27030 26869 26752 26654 26598 26558 26526 26480 26431 26400 26377 26215 26012 25850 25724 25655 25618 25565 25534 25509 25476 25446 25417 25284 25076 24906 24805 24748 24715 24699 24676 24641 24618 24598 24611 24535 24356 24214 24138 24090 24101 24093 24098 24107 24101 24132 24143 24144 24013 23884 23822 23797 23815 23834 23842 23867 23889 23902 23928 23956 23849 23741 23664 23658 23666 23704 23715 23735 23751 23781 23797 23829 23740 23605 23542 23518 23553 23581 23608 23632 23643 23677 23717 23753 23692 23593 23523 23517 23551 23585 23624 23646 23668 23700 23737 23765 23751 23664 23578 23571 23570 23624 23640 23676 23683 23730 23751 23768 23796 23704 23637 23620 23620 23646 23687 23724 23759 23766 23785 23828 23831 23740 23691 23648 23656 23682 23716 23741 23758 23783 23812 23841 23864 23790 23708 23675 23681 23709 23753 23773 23795 23811 23831 23867 23886 23826 23740 23701 23697 23722 23765 23780 23796 23812 23856 23873 23895 23836 23755 23710 23710 23747 23787 23801 23816 23842 23863 23890 23922 23846 23776 23745 23743 23775 23799 23828 23848 23864 23883 23914 23932 23876 23799 23754 23755 23782 23814 23842 23849 23871 23893 23930 23957 23899 23813 23782 23792 23822 23845 23884 23897 23918 23939 23965 23999 23926 23850 23805 23814 23846 23885 23909 23927 23935 23968 23995 24031 23950 23883 23849 23845 23902 23921 23943 23966 23988 24022 24061 24076 24009 23943 23908 23920 23947 23986 24008 24033 24059 24090 24107 24141 24122 24061 24018 24014 24036 24076 24102 24141 24161 24182 24212 24244 24259 24207 24153 24132 24148 24184 24218 24249 24262 24288 24323 24352 24382 24339 24273 24241 24244 24275 24311 24351 24358 24381 24411 24449 24486 24483 24414 24369 24360 24379 24427 24450 24483 24510 24525 24561 24583 24624 24595 24527 24506 24510 24546 24576 24595 24625 24646 24666 24690 24746 24745 24705 24648 24629 24642 24667 24695 24722 24745 24760 24792 24815 24861 24820 24775 24736 24738 24755 24792 24807 24834 24837 24857 24888 24914 24917 24856 24789 24767 24748 24768 24785 24795 24802 24812 24840 24857 24871 24827 24760 24700 24675 24692 24722 24743 24743 24762 24766 24778 24819 24811 24734 24658 24633 24619 24657 24678 24687 24697 24696 24721 24752 24780 24741 24664 24612 24581 24591 24607 24624 24644 24661 24679 24702 24728 24733 24683 24611 24571 24548 24587 24604 24628 24634 24637 24663 24688 24693 24673 24576 24508 24479 24485 24512 24526 24534 24551 24564 24587 24624 24643 24572 24479 24446 24443 24454 24484 24504 24507 24529 24539 24581 24602 24628 24551 24467 24430 24428 24458 24478 24491 24506 24521 24546 24568 24586 24620 24562 24481 24452 24449 24463 24494 24512 24527 24546 24572 24585 24627 24665 24626 24573 24529 24523 24533 24560 24580 24591 24603 24630 24651 24665 24689 24675 24618 24554 24516 24529 24540 24553 24563 24582 24607 24623 24659 24683 24695 24670 24602 24554 24546 24556 24587 24597 24612 24629 24662 24679 24716 24740 24764 24723 24666 24629 24637 24660 24693 24699 24712 24732 24763 24797 24826 24845 24881 24857 24813 24784 24777 24792 24813 24833 24855 24882 24896 24926 24947 24971 24992 24962 24902 24870 24896 24915 24942 24965 24980 24988 25018 25072 25108 25141 25134 25081 25041 25047 25076 25092 25137 25167 25206 25261 25310 25401 25484 25557 25591 25570 25567 25586 25652 25689 25720 25753 25806 25868 25923 25958 25999 26042 26009 25958 25937 25947 25948 25967 25972 25977 25989 26018 26025 26063 26053 26028 25964 25914 25895 25901 25925 25921 25939 25933 25956 25979 26007 26026 26002 25927 25847 25794 25770 25768 25761 25757 25750 25743 25769 25785 25800 25819 25741 25667 25593 25570 25571 25590 25572 25584 25586 25591 25605 25623 25646 25609 25516 25448 25392 25392 25383 25377 25388 25390 25397 25417 25433 25447 25447 25382 25287 25230 25216 25210 25218 25222 25203 25224 25243 25259 25283 25294 25219 25120 25069 25042 25044 25046 25038 25056 25051 25053 25090 25108 25130 25096 24984 24932 24893 24882 24894 24905 24907 24912 24942 24971 24968 24993 25033 24975 24910 24859 24832 24850 24869 24872 24876 24876 24909 24938 24960 24988 25009 24980 24955 24909 24931 24974 25003 25051 25073 25117 25159 25236 25307 25395 25443 25436 25426 25425 25474 25511 25569 25603 25663 25674 25740 25791 25879 25967 26039 26110 26159 26178 26178 26117 26081 26038 26027 26012 25969 25948 25935 25918 25853 25788 25711 25654 25621 25602 25589 25581 25605 25620 25641 25668 25729 25797 25887 25901 25877 25867 25859 25871 25900 25920 25955 26008 26064 26150 26243 26300 26353 26331 26282 26235 26199 26173 26156 26143 26152 26167 26206 26313 26476 26723 27018 27248 27328 27338 27347 27344 27341 27352 27385 27397 27418 27468 27545 27747 28126 29178 29936 30410 30692 30930 31131 31264 31294 31359 31429 31472 31523 31516 31500 31470 31407 31325 31259 31187 31043 30860 30690 30578 30459 30319 30211 30153 30052 29968 29892 29826 29778 29733 29695 29579 29410 29238 29081 28925 28793 28690 28610 28521 28460 28403 28356 28320 28260 28226 28186 28063 27944 27847 27817 27852 27964 28067 28161 28250 28303 28311 28271 28221 28205 28184 28120 27990 27806 27659 27570 27541 27567 27670 27778 27900 28079 28241 28419 28531 28639 28659 28571 28440 28342 28257 28194 28158 28113 28088 28078 28103 28189 28330 28465 28597 28732 28803 28827 28849 28825 28771 28729 28684 28647 28602 28609 28629 28701 28780 28934 29042 29115 29164 29194 29227 29273 29329 29303 29279 29268 29237 29210 29194 29185 29221 29302 29399 29423 29453 29512 29541 29570 29594 29610 29597 29583 29612 29643 29644 29693 29746 29815 29914 29972 29995 30060 30133 30170 30214 30249 30229 30213 30208 30209 30241 30251 30246 30277 30399 30439 30472 30542 30605 30647 30666 30683 30681 30695 30671 30660 30658 30635 30618 30611 30655 30673 30671 30710 30741 30785 30844 30877 30878 30860 30869 30835 30793 30759 30761 30775 30830 30860 30897 30969 31005 31047 31078 31093 31084 31058 30989 30936 30928 30935 31016 31126 31159 31216 31273 31321 31348 31388 31411 31384 31305 31262 31228 31232 31261 31327 31405 31441 31513 31570 31620 31645 31687 31701 31643 31559 31500 31478 31482 31521 31585 31654 31690 31752 31798 31829 31842 31864 31888 31810 31738 31715 31705 31733 31798 31867 31928 31989 32021 32073 32112 32170 32213 32249 32250 32145 32079 32047 32041 32054 32087 32128 32200 32235 32276 32316 32350 32371 32409 32403 32344 32283 32254 32243 32267 32313 32323 32360 32424 32458 32512 32546 32570 32580 32602 32541 32469 32426 32407 32435 32436 32461 32481 32516 32571 32627 32650 32669 32693 32674 32618 32520 32433 32401 32405 32412 32456 32479 32540 32584 32640 32670 32695 32700 32719 32736 32692 32611 32573 32573 32575 32609 32635 32677 32714 32747 32794 32798 32813 32836 32838 32832 32797 32768 32752 32740 32751 32760 32793 32843 32881 32920 32941 32947 32957 32967 32947 32906 32875 32882 32870 32895 32880 32894 32920 32929 32926 32953 32940 32946 32980 32992 32975 32956 32943 32923 32906 32938 32939 32966 32985 32986 33019 33047 33051 33080 33095 33066 33031 33018 33031 33041 33057 33062 33049 33054 33066 33071 33102 33109 33104 33100 33106 33083 33092 33088 33099 33077 33021 32965 32968 32992 33023 33054 33062 33089 33107 33117 33103 33083 33012 32915 32859 32807 32801 32829 32874 32897 32918 32961 32969 32979 33010 33017 33003 32903 32836 32809 32818 32837 32857 32877 32909 32952 32986 32995 33016 33039 33034 32995 32958 32933 32916 32915 32919 32942 32961 32986 32991 33006 33004 33017 33007 32983 32956 32962 32948 32956 32965 32968 32993 32987 32999 33032 33023 33021 33034 33043 33072 33056 33048 33016 32994 33001 32999 33023 33024 33022 33001 32983 32994 33028 33051 33067 33085 33109 33089 33076 33085 33087 33082 33023 33004 33004 33029 33052 33077 33091 33117 33127 33125 33139 33113 33032 32952 32911 32895 32894 32940 32955 32965 33009 33028 33034 33039 33038 33020 32974 32881 32853 32857 32852 32867 32884 32928 32950 32972 32990 33012 33019 32991 32955 32898 32866 32852 32865 32872 32895 32896 32927 32948 32971 32945 32935 32936 32960 32985 32989 32965 32936 32927 32947 32964 32947 32941 32934 32922 32923 32965 32978 32999 33026 33017 33010 32953 32935 32900 32839 32796 32810 32844 32879 32917 32951 32997 33001 33031 33028 33013 32894 32768 32679 32626 32610 32627 32688 32691 32727 32758 32778 32806 32826 32802 32719 32654 32604 32574 32597 32608 32622 32677 32702 32741 32761 32782 32801 32796 32761 32740 32682 32675 32649 32665 32675 32683 32716 32702 32712 32763 32780 32798 32828 32845 32821 32789 32740 32726 32708 32677 32594 32607 32657 32710 32764 32793 32812 32869 32850 32825 32821 32721 32603 32514 32481 32469 32516 32564 32619 32658 32690 32739 32758 32764 32704 32554 32423 32362 32359 32385 32410 32439 32489 32536 32584 32616 32627 32620 32571 32498 32454 32433 32416 32438 32473 32496 32540 32555 32528 32515 32532 32572 32606 32638 32623 32578 32504 32506 32526 32505 32426 32400 32408 32434 32496 32544 32591 32611 32660 32661 32646 32551 32451 32382 32346 32330 32354 32422 32480 32537 32605 32641 32675 32693 32644 32603 32555 32570 32608 32667 32693 32727 32788 32856 32922 32964 32997 33032 33026 33015 32997 33010 33027 33040 33047 33055 33066 33079 33099 33152 33176 33216 33265 33287 33281 33277 33262 33255 33252 33159 33110 33153 33217 33245 33267 33295 33328 33373 33375 33331 33206 33055 32975 32956 32991 33030 33077 33117 33140 33181 33209 33226 33271 33238 33167 33101 33088 33085 33109 33140 33154 33173 33200 33190 33192 33196 33218 33270 33322 33320 33287 33273 33254 33271 33239 33166 33114 33097 33085 33124 33159 33164 33191 33241 33293 33266 33154 32994 32887 32855 32848 32851 32855 32887 32903 32942 32966 32983 32965 32898 32915 32929 32883 32833 32790 32781 32780 32821 32830 32764 32703 32653 32681 32719 32772 32800 32842 32893 32900 32870 32731 32529 32383 32303 32295 32318 32345 32373 32381 32403 32451 32475 32481 32433 32429 32398 32368 32341 32292 32275 32269 32277 32284 32249 32193 32149 32119 32128 32175 32218 32271 32296 32342 32355 32346 32224 32069 31950 31869 31824 31785 31788 31805 31815 31867 31913 31948 31887 31835 31809 31835 31881 31900 31917 31898 31881 31874 31840 31727 31519 31321 31203 31166 31192 31243 31297 31360 31407 31471 31466 31396 31324 31262 31249 31242 31238 31253 31236 31233 31240 31180 30995 30770 30600 30556 30571 30618 30664 30709 30782 30834 30887 30930 30857 30773 30703 30679 30671 30657 30662 30666 30696 30735 30748 30641 30482 30339 30307 30299 30322 30347 30432 30496 30579 30686 30775 30852 30897 30997 31105 31209 31318 31435 31531 31633 31710 31743 31767 31782 31805 31871 31935 32002 32045 32088 32133 32162 32190 32219 32238 32230 32204 32162 32074 31924 31804 31693 31600 31518 31448 31260 30953 30696 30495 30358 30264 30166 30076 29996 29903 29812 29734 29511 29209 28938 28755 28633 28528 28443 28380 28315 28263 28211 28156 27986 27763 27585 27480 27423 27395 27369 27349 27348 27335 27338 27318 27180 27015 26902 26831 26816 26800 26794 26840 26984 27160 27327 27371 27302 27178 27236 27560 27989 28333 28583 28764 28864 28917 29029 29104 29204 29313 29381 29432 29386 29219 29012 28861 28857 28789 28691 28548 28353 28163 28008 27884 27792 27690 27604 27528 27463 27398 27332 27200 27040 26898 26811 26753 26703 26683 26648 26621 26611 26604 26575 26453 26336 26254 26222 26223 26234 26200 26191 26210 26237 26253 26183 26064 25987 25999 26042 26179 26319 26456 26565 26608 26665 26636 26522 26394 26344 26386 26473 26556 26525 26305 26086 26017 26016 26034 26001 26042 26133 26218 26252 26181 26112 26055 26019 25962 25803 25534 25290 25184 25650 26168 26565 26731 26841 26920 26945 26924 26712 26449 26262 26243 26359 26476 26567 26636 26667 26716 26822 26929 26851 26703 26514 26392 26495 26528 26340 25990 25640 25376 25099 24883 24592 24200 23899 23814 23937 24037 24123 24315 24636 25092 25630 26091 26479 26698 26978 27802 28728 29365 29675 29936 30041 29928 29705 29444 29209 28983 28829 28683 28576 28552 28437 28086 27596 27177 26824 26660 26669 26866 26934 26934 26807 26707 26616 26529 26501 26566 26644 26590 26326 26028 25769 25639 25582 25590 25597 25530 25450 25397 25380 25343 25294 25241 25128 24966 24795 24650 24580 24572 24516 24428 24356 24250 24162 24060 23990 23906 23839 23795 23773 23746 23731 23696 23650 23462 23254 23099 22990 22928 22912 22871 22824 22790 22809 22835 22858 22889 22945 23016 23051 23126 23231 23301 23337 23440 23612 23802 24141 24585 25025 25413 25604 25647 25740 25804 25870 25931 25874 25860 25900 26078 26839 27801 28438 28815 28979 28988 28826 28671 28562 28451 28369 28326 28331 28347 28453 28562 28683 28778 28880 28987 29115 29327 29445 29561 29705 29840 29956 30048 30096 30146 30219 30197 30261 30368 30525 30793 31044 31233 31383 31512 31619 31686 31787 31847 31921 31981 32049 32092 32101 32111 32172 32158 32222 32283 32310 32379 32389 32390 32334 32335 32416 32486 32509 32521 32565 32601 32640 32665 32671 32679 32684 32703 32736 32736 32710 32711 32764 32771 32774 32761 32766 32792 32862 32886 32911 32945 32870 32883 32932 32920 32929 32928 32950 32974 32995 33094 33243 33298 33335 33385 33382 33388 33405 33419 33419 33422 33438 33482 33498 33538 33604 33580 33556 33412 33300 33196 33139 33115 33064 33063 33060 33034 32981 32935 32932 32918 32796 32581 32381 32228 32080 31996 31923 31888 31841 31780 31713 31671 31585 31461 31242 31062 30946 30872 30829 30783 30786 30796 30814 30819 30801 30784 30673 30479 30275 30099 29951 29799 29684 29560 29434 29321 29203 29087 29029 28952 28854 28757 28694 28691 28735 28801 28882 28954 29025 29059 29081 29076 28964 28777 28580 28422 28339 28266 28254 28235 28235 28190 28153 28124 28047 27929 27822 27782 27795 27826 27849 27856 27862 27864 27890 27925 27929 27821 27618 27433 27288 27242 27264 27300 27365 27420 27438 27462 27475 27462 27393 27337 27307 27332 27371 27392 27435 27471 27539 27595 27651 27685 27672 27579 27443 27365 27327 27349 27402 27468 27539 27584 27605 27569 27503 27477 27463 27450 27462 27498 27565 27626 27672 27709 27727 27756 27799 27785 27707 27604 27515 27463 27485 27534 27578 27639 27684 27711 27635 27559 27535 27544 27617 27724 27835 27946 28067 28196 28361 28554 28810 28947 29000 28890 28777 28744 28823 28996 29177 29479 30027 30553 30957 31167 31372 31565 31749 31915 32114 32214 32211 32267 32291 32297 32273 32287 32270 32269 32275 32259 32230 32227 32204 32171 32165 32142 32141 32110 32071 32046 32033 32012 32021 32015 32004 32023 32027 32044 32036 32044 32043 32046 32051 32059 32071 32097 32091 32117 32132 32183 32321 32602 32893 33167 33425 33625 33804 33955 34055 34124 34171 34150 34109 34074 34087 34064 34045 34032 33986 33866 33765 33724 33723 33691 33641 33595 33522 33451 33284 33113 32958 32766 32572 32343 32148 32011 31895 31800 31723 31564 31309 30997 30704 30537 30410 30320 30219 30133 30071 30061 30015 29989 29891 29737 29545 29377 29175 28929 28740 28605 28501 28440 28382 28317 28162 27889 27608 27420 27306 27262 27267 27301 27325 27360 27393 27430 27458 27361 27270 27192 27131 27037 26941 26886 26828 26838 26837 26822 26779 26654 26468 26369 26349 26372 26442 26540 26644 26718 26828 26922 27000 27071 27104 27105 27057 27005 26937 26906 26900 26965 26997 26989 27001 27006 26950 26905 26907 26919 26958 26998 27079 27156 27234 27336 27404 27466 27504 27513 27479 27344 27267 27242 27260 27305 27332 27336 27319 27306 27291 27261 27218 27186 27185 27250 27308 27368 27375 27368 27352 27397 27447 27483 27555 27587 27589 27564 27565 27536 27491 27407 27326 27267 27219 27151 27090 27033 27018 27055 27094 27168 27238 27293 27337 27381 27411 27411 27398 27290 27194 27124 27103 27087 27091 27072 27052 27013 26975 26912 26842 26752 26720 26707 26762 26840 26924 26985 27038 27082 27140 27131 27066 26918 26756 26638 26589 26586 26604 26621 26626 26613 26583 26510 26402 26301 26217 26191 26274 26428 26551 26616 26702 26760 26797 26840 26824 26695 26531 26402 26379 26399 26464 26515 26515 26505 26507 26471 26379 26341 26316 26321 26354 26458 26579 26686 26763 26837 26906 26951 26923 26817 26641 26522 26457 26476 26544 26580 26585 26569 26499 26461 26404 26383 26370 26366 26378 26465 26600 26719 26846 26905 26974 27004 27042 27020 26863 26710 26630 26612 26658 26693 26696 26657 26596 26517 26496 26465 26420 26390 26456 26589 26722 26803 26885 26932 26933 26965 26973 26966 26826 26644 26527 26473 26469 26501 26576 26637 26739 26859 26980 27126 27277 27384 27465 27591 27744 27891 28058 28245 28459 28653 28888 29085 29203 29233 29159 29071 29000 28950 28914 28841 28783 28692 28572 28473 28450 28487 28550 28546 28457 28360 28280 28249 28230 28213 28154 28093 28048 27890 27769 27703 27635 27570 27483 27422 27409 27406 27359 27306 27304 27314 27350 27426 27490 27521 27494 27466 27452 27446 27469 27504 27532 27500 27418 27347 27313 27322 27332 27257 27129 26980 26852 26785 26802 26849 26930 27013 27088 27125 27173 27256 27294 27290 27230 27184 27212 27198 27132 27036 26986 26984 27021 27019 27026 26977 26815 26625 26534 26501 26535 26588 26678 26744 26818 26858 26884 26932 27002 27020 26979 26843 26650 26523 26493 26519 26579 26592 26597 26549 26535 26515 26527 26513 26500 26561 26656 26753 26797 26825 26828 26840 26874 26944 26999 26979 26914 26782 26694 26634 26644 26673 26701 26707 26675 26652 26652 26657 26695 26760 26841 26869 26860 26818 26792 26809 26836 26869 26898 26873 26819 26749 26705 26719 26724 26687 26619 26570 26535 26518 26502 26508 26502 26509 26530 26591 26680 26736 26789 26798 26782 26759 26798 26800 26763 26683 26641 26626 26651 26682 26712 26700 26671 26576 26493 26446 26425 26460 26518 26558 26621 26656 26707 26714 26747 26772 26798 26742 26616 26523 26478 26448 26439 26429 26419 26413 26415 26514 26716 27003 27318 27630 27878 28096 28293 28468 28655 28888 29150 29375 29610 29816 29986 30111 30196 30230 30283 30374 30463 30506 30552 30570 30439 30294 30186 30138 30133 30085 29990 29894 29806 29765 29725 29672 29604 29542 29507 29426 29324 29231 29163 29121 29038 28932 28810 28700 28592 28495 28456 28420 28411 28439 28469 28481 28500 28525 28493 28416 28304 28242 28225 28205 28137 28028 27961 27935 27931 27932 27924 27870 27742 27547 27414 27359 27321 27309 27341 27382 27446 27510 27585 27626 27672 27716 27779 27794 27648 27488 27381 27330 27340 27363 27351 27326 27308 27277 27256 27276 27353 27363 27330 27248 27149 27121 27119 27112 27116 27118 27125 27122 27086 26995 26902 26874 26863 26794 26676 26588 26520 26444 26385 26354 26394 26453 26505 26552 26614 26713 26806 26912 26966 26979 26947 26950 26955 26934 26855 26793 26752 26744 26777 26794 26819 26844 26852 26824 26734 26667 26643 26634 26672 26706 26757 26814 26850 26877 26928 26963 26984 26990 26969 26883 26782 26692 26630 26605 26611 26603 26619 26644 26682 26702 26739 26750 26777 26795 26808 26811 26793 26833 26893 26955 26998 27055 27097 27101 27084 27105 27121 27121 27016 26917 26838 26822 26798 26804 26799 26787 26749 26690 26653 26709 26812 26894 26953 26968 27022 27076 27125 27208 27282 27324 27347 27381 27421 27443 27432 27461 27523 27556 27533 27459 27413 27342 27279 27237 27299 27374 27474 27563 27621 27688 27768 27852 27936 27974 27968 27931 27932 27943 27908 27897 27902 27953 27992 28025 28043 28041 28028 28033 28052 28088 28106 28112 28103 28142 28196 28287 28340 28413 28472 28585 28698 28802 28868 28899 28909 28894 28866 28824 28818 28804 28795 28781 28750 28799 28846 28878 28871 28883 28942 29018 29153 29216 29240 29230 29196 29208 29236 29201 29099 29028 28990 29008 29048 29045 29065 29053 29064 29049 28985 28906 28865 28841 28852 28856 28877 28845 28864 28895 28949 29016 29066 29132 29143 29091 28984 28859 28805 28807 28790 28797 28801 28763 28715 28706 28730 28730 28738 28819 28943 29069 29120 29136 29131 29073 29072 29099 29095 29070 29066 29114 29186 29224 29257 29258 29233 29180 29056 28898 28812 28711 28596 28552 28611 28755 28879 28984 29053 29113 29131 29189 29209 29151 28965 28791 28685 28642 28625 28627 28604 28554 28467 28397 28395 28443 28462 28505 28515 28442 28359 28324 28302 28291 28288 28289 28296 28299 28200 28097 28034 27995 27987 27976 27930 27787 27597 27410 27297 27238 27246 27271 27277 27295 27324 27356 27397 27432 27457 27435 27349 27259 27123 27008 26920 26878 26849 26844 26837 26801 26779 26739 26692 26672 26712 26704 26637 26598 26598 26611 26629 26667 26719 26739 26795 26885 26949 26933 26874 26828 26812 26792 26764 26758 26785 26799 26810 26806 26843 26861 26905 26991 27122 27252 27335 27388 27393 27332 27210 27091 27073 27119 27158 27160 27119 27109 27128 27142 27188 27225 27254 27216 27100 26988 26962 27001 27034 27074 27109 27148 27161 27202 27262 27305 27348 27432 27513 27529 27429 27291 27220 27203 27247 27281 27287 27277 27293 27272 27266 27309 27384 27465 27535 27560 27566 27569 27585 27612 27638 27624 27650 27675 27656 27584 27535 27522 27533 27560 27544 27469 27378 27293 27223 27194 27204 27213 27221 27222 27238 27279 27318 27360 27389 27385 27321 27274 27231 27170
31 32 37 33 33 33 33 34 33 33 33 33 34 33 32 32 34 31 32 33 33 34 33 34 33 33 33 32 35 35 33 32 32 33 33 33 33 33 33 32 34 34 32 33 33 32 33 32 31 30 30 30 32 35 36 35 33 32 31 31 32 33 34 34 34 34 32 32 32 32 33 32 33 33 32 32 32 32 32 33 33 33 33 32 33 32 32 32 33 32 33 33 33 33 32 33 33 32 32 32 32 33 32 31 32 33 34 33 32 32 33 32 32 32 32 33 34 32 33 32 32 32 32 32 33 31 33 35 33 31 32 33 32 32 29 31 34 32 32 33 34 32 31 31 30 32 35 32 31 31 32 34 32 31 30 32 35 32 31 31 32 34 32 28 29 31 33 33 34 35 36 36 36 35 36 34 33 35 32 34 34 33 33 33 32 31 31 31 30 33 35 36 37 37 36 35 33 31 29 30 30 31 31 35 34 33 32 31 28 27 26 25 27 28 35 44 45 43 41 38 33 29 27 27 29 29 32 35 41 38 33 29 27 27 29 29 32 35 39 39 36 35 34 31 28 25 24 25 28 32 35 38 39 25 25 27 30 33 37 40 39 37 35 32 29 27 25 25 26 30 33 35 39 38 39 38 33 30 34 35 39 39 35 31 32 31 30 27 26 27 28 30 31 35 38 38 36 36 34 31 28 26 26 35 38 38 36 36 34 31 28 26 26 27 30 35 40 41 38 38 37 34 30 26 25 25 25 28 36 31 29 28 27 27 28 30 31 34 36 37 37 37 38 36 36 36 33 31 29 27 27 28 28 34 35 34 31 30 33 33 31 31 30 29 30 31 31 33 32 32 32 32 32 33 33 33 33 32 32 32 32 32 32 33 33 33 33 32 31 31 31 33 34 35 33 32 32 31 30 30 30 31 32 33 32 31 31 31 31 31 32 33 33 33 32 31 31 31 30 31 31 34 32 31 31 31 32 32 31 31 32 33 32 31 31 31 32 32 30 31 31 31 32 32 35 34 33 33 32 30 28 29 30 32 35 34 33 33 32 30 28 29 30 32 33 34 33 34 33 32 33 33 32 31 33 32 32 33 33 35 34 35 35 33 31 31 32 27 31 31 32 33 33 33 33 36 43 46 40 34 27 26 27 33 33 33 33 34 35 35 33 31 30 32 32 33 33 34 34 34 34 34 34 34 33 32 34 33 34 34 34 34 34 34 33 32 34 33 33 33 33 33 33 33 32 32 32 32 33 33 33 33 33 31 32 33 34 34 34 33 33 33 33 33 33 32 32 33 33 34 33 33 34 33 33 33 33 33 33 33 33 33 32 32 31 31 31 31 31 30 30 33 31 32 34 33 34 34 34 34 33 31 33 32 34 33 34 34 34 34 33 31 33 33 33 33 32 33 35 35 33 32 32 33 33 33 33 32 32 32 33 33 33 33 33 33 32 32 32 33 33 32 32 32 32 32 32 32 32 32 32 32 32 32 33 33 32 32 32 32 33 32 32 32 33 32 33 32 32 32 32 32 32 32 32 32 32 32 32 32 32 32 32 32 32 32 32 32 32 31 31 31 32 32 32 32 32 32 31 31 31 31 34 36 36 36 33 33 31 30 28 28 30 30 31 31 31 32 32 33 32 31 33 32 32 31 32 34 32 30 30 31 32 33 33 32 32 33 32 31 30 28 29 26 29 29 31 32 33 34 31 32 31 26 29 29 31 32 33 34 31 32 31 30 29 30 32 32 34 33 32 31 32 32 32 31 30 30 28 28 30 32 33 32 31 29 27 27 27 28 31 35 37 41 38 33 29 25 22 19 16 15 20 48 44 58 44 34 31 31 29 30 32 32 33 32 32 31 31 30 30 31 30 30 30 30 30 32 31 30 31 31 31 31 31 31 31 31 30 31 31 31 30 30 31 31 32 32 32 31 31 31 31 30 31 31 32 32 32 31 31 31 31 31 31 31 31 31 31 31 31 31 31 31 32 32 32 30 31 28 29 33 38 42 43 40 35 33 31 31 31 32 32 32 32 32 31 30 29 29 29 29 28 29 29 31 31 31 31 32 31 31 32 34 33 32 31 30 30 30 31 31 31 31 31 30 31 32 30 29 31 31 30 31 31 30 31 32 32 32 32 32 32 31 30 30 32 33 33 32 31 31 29 32 32 32 31 29 29 28 29 30 30 31 31 31 31 31 31 33 36 41 46 43 41 37 33 30 30 31 30 29 27 28 29 31 31 32 32 32 31 32 32 33 33 33 33 32 31 31 31 31 31 33 33 33 32 31 31 31 31 31 31 31 30 29 31 32 31 31 30 31 32 33 35 34 33 32 32 31 32 32 30 29 30 30 31 32 31 31 30 31 30 29 32 31 31 32 33 34 32 34 34 31 31 31 32 32 31 32 31 31 31 31 31 31 31 32 31 32 32 32 32 31 31 31 32 31 32 32 32 32 32 31 31 32 31 30 31 34 33 35 32 32 32 33 34 32 30 29 30 29 31 33 32 32 32 32 31 30 32 31 31 34 34 31 31 33 32 30 32 34 34 32 32 33 33 33 33 34 32 32 32 32 33 33 32 32 32 32 33 32 32 32 32 33 32 32 32 33 32 32 32 32 32 33 32 32 32 33 32 32 32 32 32 32 32 32 32 32 32 32 32 32 32 33 33 33 32 32 33 32 33 31 32 33 33 33 33 32 33 33 35 35 34 34 35 32 32 32 33 34 34 33 33 34 33 34 32 33 34 34 33 32 32 33 33 33 33 34 31 32 32 32 32 33 33 33 33 34 31 32 32 32 32 33 33 33 33 33 33 32 33 33 33 33 32 33 33 33 34 33 33 34 34 34 33 33 34 33 33 33 33 33 33 33 33 33 33 33 33 33 33 33 33 33 33 33 33 33 33 33 33 33 33 33 33 33 33 33 33 33 33 33 33 33 33 33 33 33 34 33 33 33 33 33 33 33 33 34 34 33 33 33 33 33 33 33 33 33 33 33 33 33 33 33 33 33 33 33 33 33 33 33 33 33 33 33 33 33 33 33 33 33 33 33 33 32 32 32 32 31 31 33 34 35 36 34 34 33 32 33 33 32 33 32 35 38 33 31 33 33 33 32 32 33 33 33 31 32 34 33 32 32 32 33 33 33 33 33 33 32 32 32 32 32 33 32 32 33 33 33 33 32 32 32 32 32 32 32 32 32 32 33 32 32 33 32 32 32 32 32 32 32 32 33 33 33 32 33 32 33 32 32 32 32 32 32 32 32 33 32 32 32 32 32 32 31 32 33 32 32 31 32 32 32 32 31 32 33 32 32 31 33 32 32 33 32 32 32 32 31 31 32 32 32 32 32 32 31 32 32 33 33 32 33 33 33 33 33 32 32 33 32 33 32 32 32 32 32 32 33 33 32 32 32 33 32 32 32 33 33 33 32 32 32 33 32 32 32 32 32 33 33 33 33 32 32 32 32 32 32 33 33 33 33 32 32 32 32 32 32 32 32 32 32 32 32 32 32 32 32 32 32 32 32 32 32 32 32 32 32 32 32 32 32 32 32 32 32 32 32 32 32 32 32 32 32 32 32 32 32 32 32 32 32 32 32 32 32 32 32 32 32 32 32 32 32 32 32 32 32 32 32 32 32 32 32 32 32 32 32 32 32 32 32 32 32 32 32 32 32 32 32 32 32 32 32 32 32 32 32 32 32 32 32 32 32 32 32 32 32 32 32 32 32 32 32 32 32 33 32 32 32 33 33 32 32 33 32 33 33 33 33 33 32 33 33 33 33 32 33 33 32 32 33 32 32 33 32 32 33 32 31 32 32 32 32 32 34 34 32 31 31 32 33 33 32 32 33 33 33 33 32 32 33 33 33 32 32 32 32 32 33 33 32 32 32 32 33 33 33 33 32 33 32 32 33 32 33 32 33 33 32 31 32 32 32 32 32 32 33 33 32 32 32 32 33 33 32 33 33 33 32 32 33 33 36 40 38 34 28 24 26 25 26 31 34 34 34 37 36 34 34 34 34 33 33 34 34 37 36 34 34 34 34 33 33 34 41 38 30 30 33 35 32 30 29 28 28 30 33 36 35 34 30 28 26 25 26 27 29 32 38 41 36 34 36 37 35 31 30 30 30 31 34 38 42 32 29 26 27 29 31 31 32 37 39 36 31 33 36 36 32 30 31 31 32 34 37 41 43 37 31 30 32 32 33 35 39 43 41 34 30 34 38 36 31 27 25 25 25 27 31 34 39 40 37 29 31 31 33 36 42 44 37 33 35 39 36 33 27 24 23 23 25 30 33 38 40 37 34 35 32 34 38 43 42 37 34 34 36 36 31 27 25 24 25 28 31 35 40 38 32 32 35 36 33 28 31 35 40 38 32 32 35 36 33 32 31 31 32 34 36 41 42 37 33 35 37 35 31 27 41 42 35 31 33 35 34 32 29 31 32 32 34 40 44 41 37 37 38 36 33 27 24 23 24 33 34 35 33 32 30 31 32 34 36 40 45 43 36 32 32 35 36 32 29 26 25 25 29 32 34 35 34 31 27 25 25 27 30 34 39 37 31 32 34 34 32 30 29 31 32 34 38 43 41 31 28 25 23 24 28 33 38 39 35 32 35 37 36 33 30 30 31 35 37 39 42 41 35 33 24 24 24 29 34 40 40 34 31 34 37 37 34 32 32 31 31 34 40 47 43 35 34 37 39 31 31 34 40 47 43 35 34 37 39 36 30 25 22 20 24 28 30 36 41 41 36 37 37 37 36 42 44 40 36 38 40 39 34 29 26 24 23 25 29 32 39 42 36 29 31 33 34 33 31 42 39 31 30 34 38 36 33 30 28 26 26 27 29 33 40 41 34 31 32 34 34 32 31 31 42 38 32 31 33 34 33 31 30 31 31 32 36 41 43 37 32 34 37 38 35 30 27 23 24 28 30 36 37 35 33 31 30 30 35 39 44 41 34 34 38 40 38 32 28 25 23 24 28 32 39 36 32 30 31 31 32 35 40 45 41 33 34 39 40 36 30 25 22 21 26 32 37 43 39 33 27 24 21 24 28 35 41 43 35 31 34 36 37 33 30 31 31 32 37 42 42 39 33 30 25 25 28 31 38 41 36 30 31 34 36 33 31 31 32 31 36 42 44 39 32 32 36 38 36 30 36 41 41 35 31 36 39 36 31 29 30 30 32 36 40 41 36 32 32 35 37 34 29 26 40 41 36 32 32 35 37 34 29 26 25 23 23 26 33 39 43 38 36 36 35 33 28 27 28 36 29 30 33 35 33 29 27 25 25 26 30 34 39 39 34 32 33 34 33 29 29 31 31 34 37 38 33 29 26 25 25 29 32 36 39 36 29 31 34 33 33 31 31 32 32 34 39 42 41 33 31 31 32 32 33 37 41 42 38 31 30 35 36 34 29 26 24 25 27 31 37 42 41 32 30 29 30 32 36 41 42 39 35 37 36 32 28 25 25 28 31 33 34 36 35 31 33 37 37 32 34 38 39 35 35 40 42 38 33 29 28 27 27 29 30 34 36 32 32 36 37 33 32 33 32 35 33 32 34 36 35 33 32 33 32 32 33 36 40 38 35 35 38 40 36 31 28 26 25 31 33 37 37 34 32 31 31 31 32 35 39 37 35 37 41 40 35 31 30 29 27 27 28 30 35 33 33 34 39 46 55 59 50 38 26 20 23 27 34 49 59 54 44 36 34 32 31 32 46 49 59 54 44 36 34 32 31 32 46 63 67 54 39 26 20 18 22 32 49 57 49 39 34 37 41 28 21 20 24 34 47 55 50 42 39 35 32 34 48 63 68 55 41 29 24 23 28 45 64 30 47 63 64 50 35 26 21 22 30 54 63 54 41 34 34 30 30 45 64 68 51 37 26 21 34 30 30 45 64 68 51 37 26 21 22 25 46 59 56 43 38 39 37 33 45 62 68 56 39 58 52 41 34 28 24 27 53 70 71 52 36 26 20 19 29 55 63 50 36 32 32 30 35 57 23 40 66 65 51 41 33 29 26 36 62 70 61 40 30 28 27 29 47 68 62 43 35 30 27 28 27 29 47 68 62 43 35 30 27 24 32 54 67 60 43 31 24 24 27 38 61 63 48 38 67 49 34 25 21 21 26 64 73 58 39 33 34 33 37 59 75 66 45 32 23 20 21 37 63 39 59 71 65 48 36 26 22 23 41 65 61 44 35 32 30 28 43 64 68 55 40 28 21 18 29 30 33 50 67 64 45 30 22 19 19 36 60 59 46 35 32 30 28 37 64 71 55 38 28 35 32 30 28 37 64 71 55 38 28 22 22 22 41 57 56 44 36 32 29 30 47 62 63 46 62 55 38 32 30 29 34 54 66 61 41 28 21 19 22 38 58 60 44 32 30 30 29 38 51 18 36 62 59 42 30 29 30 31 40 58 69 58 41 29 24 23 23 38 56 57 46 37 33 30 23 22 28 50 59 53 41 34 31 27 30 46 61 64 51 35 26 21 22 29 50 58 50 40 35 54 37 27 26 27 28 35 49 55 46 35 30 34 35 43 61 68 58 38 27 23 22 26 47 64 31 52 67 69 50 33 26 21 22 30 54 62 56 43 36 33 33 34 50 66 72 61 42 30 26 33 32 40 60 70 69 51 35 27 26 29 40 60 62 52 42 41 38 34 35 50 64 61 46 32 66 52 40 35 34 31 34 56 73 66 48 34 26 22 25 34 60 69 57 41 35 35 32 30 49 27 30 42 56 54 46 39 36 31 29 40 62 70 57 37 25 21 20 27 49 65 58 42 36 35 23 20 22 38 60 63 49 38 36 34 32 34 56 74 71 52 37 28 24 23 30 59 64 54 41 79 62 44 37 29 26 26 39 60 64 56 45 39 36 34 35 62 73 70 49 31 22 19 21 37 37 35 49 68 74 60 39 27 24 25 31 58 67 57 44 40 38 34 32 44 72 78 62 39 25 39 36 32 34 61 77 73 49 31 22 17 20 29 52 63 52 42 35 30 28 29 58 75 72 54 59 65 53 41 38 38 34 31 48 65 66 55 38 27 21 22 30 48 62 59 44 33 31 33 31 23 17 17 24 45 64 59 45 37 37 41 36 43 60 66 60 41 27 23 21 27 40 57 62 55 50 33 25 21 24 32 49 61 60 51 42 35 30 25 31 60 70 68 47 34 25 22 24 32 52 31 36 53 65 59 42 27 19 19 26 40 59 63 54 46 41 36 30 32 53 67 66 47 30 23 50 39 31 31 37 42 54 67 66 54 41 35 30 28 28 38 50 55 45 37 29 26 26 38 57 44 55 51 40 33 26 25 30 49 63 57 43 29 19 18 25 35 47 56 52 46 39 34 29 28 20 16 19 30 53 60 55 43 36 30 26 28 41 57 59 47 34 23 19 21 28 50 59 54 46 56 56 42 27 19 20 26 29 46 53 51 40 34 33 29 32 44 58 62 49 33 25 20 22 31 37 51 63 57 41 28 23 20 25 39 54 56 51 43 41 36 31 34 47 60 56 43 31 23 20 41 34 32 29 31 43 62 64 51 37 24 22 26 36 50 55 52 44 36 33 29 31 44 58 58 38 53 58 51 42 37 32 28 30 43 58 59 47 32 20 16 20 30 50 61 56 41 32 29 27 16 23 39 57 61 48 35 29 28 27 30 45 60 61 46 31 21 20 22 33 56 61 49 37 32 54 37 24 19 19 25 54 64 54 39 33 30 29 27 40 65 70 56 37 26 23 21 21 43 68 28 48 67 69 54 34 25 22 21 28 55 64 54 40 34 30 29 28 42 64 70 56 37 25 20 30 29 32 56 68 66 46 30 21 21 24 35 57 63 51 38 32 31 30 31 52 69 70 52 32 61 43 34 30 29 29 45 61 70 61 41 26 20 23 27 48 65 58 42 34 31 29 29 35 64 25 38 64 64 50 39 33 30 28 29 47 63 66 55 36 24 21 23 30 50 61 54 43 35 28 24 21 23 30 50 61 54 43 35 28 25 25 32 60 65 61 44 29 21 19 24 37 57 55 49 58 70 61 41 24 16 18 28 37 49 54 51 43 37 30 27 27 42 62 66 55 41 25 18 19 33 31 29 31 47 66 71 62 42 28 20 19 22 40 61 57 46 36 33 31 27 31 51 65 67 57 46 36 33 31 27 31 51 65 67 55 35 25 20 18 26 37 56 57 48 37 31 27 27 29 23 20 20 27 35 49 53 48 41 32 29 28 26 28 34 48 56 55 55 44 34 26 20 18 22 38 31 31 33 33 36 36 38 42 47 47 45 45 42 35 30 26 22 23 28 34 38 38 40 40 28 23 22 25 32 36 38 39 41 40 39 35 33 31 32 31 30 31 35 39 37 35 34 35 38 30 32 38 40 37 34 31 34 33 32 32 32 33 32 32 33 33 31 32 33 33 32 32 32 32 33 32 32 33 33 33 32 32 32 33 31 32 32 32 33 32 32 32 32 32 32 32 32 32 32 32 32 32 33 33 32 32 32 32 32 32 32 32 32 32 32 32 32 32 32 32 33 33 33 33 32 33 33 32 32 32 32 32 32 32 32 32 32 32 32 32 32 32 32 32 32 32 32 33 32 32 33 32 32 32 32 33 32 32 32 33 32 32 32 32 33 32 32 32 32 32 33 32 33 32 33 32 32 32 32 33 32 32 33 32 32 32 33 33 32 32 32 32 32 33 32 32 32 32 32 32 32 32 33 32 32 32 32 32 32 32 32 32 32 32 32 32 32 32 32 33 32 32 33 32 32 32 32 32 32 32 32 32 32 32 32 32 32 32 32 32 32 32 32 33 33 33 32 32 32 32 32 32 32 32 32 32 33 33 32 32 32 32 32 32 32 32 32 32 32 32 32 32 32 32 32 32 32 32 32 32 32 32 32 32 32 32 32 32 32 32 32 32 32 32 32 32 32 32 32 32 32 32 32 32 32 32 32 32 32 32 32 33 32 32 32 32 33 32 32 32 32 32 33 32 32 32 32 32 32 32 32 32 32 32 32 32 32 33 33 32 32 32 32 32 32 32 32 32 32 32 32 32 32 32 32 32 32 32 32 32 32 32 32 32 32 33 32 32 32 32 33 32 32 32 32 33 32 32 32 32 33 33 32 32 32 32 32 32 32 32 32 33 32 32 32 32 32 32 32 32 32 32 32 32 32 33 32 32 33 32 32 32 32 32 32 32 32 32 32 32 32 33 32 32 32 32 32 32 32 32 32 33 32 32 32 32 32 32 32 32 32 32 32 32 32 32 32 33 32 32 32 32 32 32 33 33 32 32 32 32 32 32 32 32 32 32 32 33 32 32 32 32 32 32 32 33 32 32 32 32 32 32 32 32 32 32 32 32 32 32 32 32 32 32 32 32 33 32 32 32 32 32 32 32 32 32 33 32 32 32 33 33 32 32 33 33 33 33 32 32 33 32 32 32 32 32 32 32 32 32 33 33 32 33 32 32 33 32 32 33 33 33 33 33 32 32 32 32 32 32 32 32 32 32 32 32 32 32 32 32 32 32 32 32 32 32 32 32 32 32 32 32 32 32 32 32 32 32 32 32 32 32 32 32 32 32 32 32 32 32 32 33 32 32 32 33 32 32 32 33 33 32 32 32 33 32 32 33 32 32 32 33 32 32 32 32 32 32 32 32 33 32 32 32 32 32 32 32 32 32 32 32 32 32 32 32 31 32 32 32 32 32 32 32 32 32 32 32 32 32 32 32 32 32 32 32 32 32 32 33 32 32 32 32 32 32 31 32 32 32 32 32 32 32 32 32 32 33 32 32 33 31 32 32 32 32 32 32 32 32 32 32 32 32 32 32 32 32 32 32 32 32 32 32 32 32 32 32 32 32 32 32 32 32 32 32 32 32 32 32 32 32 32 32 32 32 32 32 32 32 32 32 32 32 32 32 32 32 32 32 32 32 32 32 32 32 32 32 32 32 32 33 32 32 32 32 32 32 32 32 32 32 32 32 32 32 32 32 31 32 32 32 32 32 32 32 32 32 32 32 32 33 33 33 31 32 32 32 32 32 32 31 32 33 32 32 32 33 32 32 31 33 33 33 32 32 33 32 33 32 33 32 32 33 32 32 32 33 32 32 33 32 32 33 32 32 32 32 33 32 33 32 32 32 32 32 32 32 32 32 33 33 32 32 33 32 33 32 33 32 32 32 33 32 32 32 33 32 32 33 32 33 30 31 32 31 27 30 31 31 32 27 27 29 32 31 27 30 31 31 32 27 27 29 33 34 34 35 35 36 37 39 39 32 30 32 34 36 35 39 44 46 45 39 33 28 24 22 24 28 33 36 37 40 42 43 42 39 37 34 31 32 37 45 30 30 30 35 42 47 49 47 41 36 32 29 29 33 44 56 61 55 43 31 22 20 24 32 46 60 60 49 37 26 19 21 28 40 50 53 46 38 33 32 29 30 43 58 63 53 38 26 20 21 36 32 29 28 39 56 65 56 42 32 27 25 26 39 62 62 51 42 34 31 26 37 60 64 60 60 64 47 37 33 31 30 41 60 65 58 44 33 26 25 28 52 66 55 41 36 34 33 30 45 37 63 62 47 39 35 35 30 35 57 72 65 47 32 23 23 25 47 63 56 42 36 30 26 30 23 24 33 56 57 46 33 28 32 35 56 71 71 55 38 27 26 27 42 64 60 45 43 41 36 20 20 24 55 66 54 43 37 36 31 42 65 69 55 35 25 23 23 52 66 57 45 37 36 30 23 21 33 64 63 50 40 36 34 27 42 75 86 64 37 24 25 21 30 67 70 51 37 31 30 33 29 27 21 51 68 59 48 37 33 29 37 69 78 63 39 28 26 26 31 63 72 56 45 40 50 31 23 21 22 46 72 64 49 47 47 40 39 57 69 60 43 30 23 22 27 63 73 56 44 51 36 26 23 21 43 73 66 49 42 39 33 32 58 75 69 47 32 25 23 26 58 71 59 45 61 39 25 25 27 41 69 64 50 45 38 32 26 37 65 71 56 34 21 19 24 43 68 64 50 78 70 43 23 18 20 30 61 66 52 39 34 34 31 37 64 74 63 41 27 22 22 29 53 63 70 72 51 33 24 21 23 39 62 60 47 35 31 31 26 50 69 70 53 34 22 21 22 38 60 32 55 67 62 44 30 23 24 27 52 63 53 42 36 32 28 34 58 70 61 43 28 24 25 30 29 30 54 68 68 48 26 20 20 24 50 69 58 45 36 27 24 25 54 70 64 46 31 22 21 25 23 37 64 70 56 38 25 20 22 42 65 55 42 36 30 30 29 49 70 73 52 30 20 19 34 30 27 53 64 59 48 35 26 22 23 39 64 61 44 37 35 33 32 52 67 67 52 35 25 45 36 30 27 41 64 65 54 40 30 29 29 43 60 54 46 42 39 34 37 57 66 60 46 32 43 40 37 33 46 64 64 53 38 29 27 32 44 62 59 51 42 36 33 33 50 67 64 53 40 50 41 35 31 31 45 60 63 52 36 28 26 31 50 64 56 46 41 38 34 38 58 67 60 43 51 46 36 32 30 51 75 75 57 37 25 23 26 44 62 58 47 40 41 39 39 53 63 60 47 58 47 40 41 39 39 53 63 60 47 35 28 29 36 59 66 59 48 41 37 36 51 68 70 55 64 56 46 43 40 39 53 65 60 48 35 28 27 33 56 60 55 45 38 35 34 43 62 70 59 69 59 45 40 40 38 38 53 67 63 36 26 25 27 52 65 59 43 36 37 36 36 58 72 63 63 51 38 36 37 33 44 68 70 53 35 25 23 25 47 66 61 44 38 32 29 28 47 61 59 60 59 46 42 36 31 30 45 56 53 44 30 23 24 34 57 59 49 45 41 30 26 29 51 56 51 49 43 40 35 33 43 57 58 49 42 41 44 36 35 47 60 58 50 37 33 48 65 65 49 56 60 55 44 33 38 57 69 58 41 31 28 28 42 60 55 44 35 30 31 31 48 62 62 46 60 50 38 31 29 27 38 59 69 59 38 24 20 21 35 59 60 49 37 31 29 26 32 52 65 40 67 68 51 39 34 29 27 32 59 73 70 48 30 22 21 24 43 64 59 47 38 32 30 28 25 19 17 21 48 71 67 47 36 32 30 28 30 52 67 68 55 36 24 18 20 24 39 61 59 63 45 30 21 18 22 29 53 63 55 40 30 26 27 28 34 53 62 61 46 29 22 19 24 36 28 27 26 28 34 48 58 61 54 38 25 21 22 29 39 42 45 45 44 39 33 31 31 30 32 34 28 24 22 26 31 35 41 47 45 41 35 32 29 30 29 29 31 37 46 44 43 39 32 28 29 29 31 37 46 44 43 39 32 28 25 24 27 32 35 38 41 37 33 32 32 34 34 33 31 42 36 30 25 25 29 35 38 38 40 36 34 33 34 36 34 31 31 34 33 32 42 42 29 34 32 32 33 33 32 32 32 33 33 32 32 33 32 31 31 32 32 32 32 33 33 32 33 33 32 32 32 33 32 33 32 32 33 32 33 32 32 32 32 32 33 33 32 33 33 33 33 33 32 32 32 32 32 32 33 33 32 37 34 45 46 37 27 22 20 23 25 28 30 31 33 36 36 34 32 32 31 31 31 31 32 33 31 31 31 31 30 31 31 30 30 30 30 30 30 31 31 31 31 30 30 30 30 30 30 31 31 31 31 30 30 30 30 30 29 28 28 29 29 28 27 28 28 26 26 32 32 31 30 32 37 35 37 37 37 35 36 37 34 34 35 33 33 34 35 36 37 38 35 30 33 33 34 33 31 31 29 31 31 30 30 32 32 33 33 29 30 31 32 34 29 30 31 32 33 30 31 31 34 31 29 30 32 32 34 30 30 32 31 32 32 32 33 33 34 33 33 29 28 29 34 34 32 32 32 35 35 33 32 30 35 32 34 36 37 37 32 31 30 28 30 31 33 33 31 32 30 30 31 31 32 31 30 30 31 33 33 31 32 33 30 31 33 35 35 34 34 32 32 31 30 31 33 35 35 34 34 32 32 31 30 30 32 32 32 31 30 30 30 31 30 31 31 32 34 30 30 28 28 28 29 29 28 30 35 38 43 45 44 40 36 31 31 27 22 22 24 27 26 25 24 22 21 23 24 27 31 30 28 25 23 24 24 30 37 46 47 42 41 41 38 36 38 36 34 48 44 41 41 39 37 36 37 35 35 34 31 33 33 33 33 33 32 31 31 32 32 33 32 33 32 29 35 32 31 32 31 35 29 32 32 35 38 34 29 26 31 31 31 30 30 32 33 37 38 31 35 36 37 36 32 28 27 28 32 30 33 32 35 35 33 29 31 33 34 32 30 32 30 31 29 31 32 34 34 30 31 31 30 32 33 37 33 33 27 26 36 41 42 40 47 45 44 44 45 29 28 26 25 25 26 27 30 34 36 38 37 34 34 33 31 32 31 29 27 27 29 30 31 31 49 45 37 33 35 36 36 34 38 37 37 32 34 39 40 38 34 33 33 34 36 40 42 46 42 37 32 33 34 35 38 40 45 45 42 47 49 45 38 33 32 30 28 29 31 35 38 35 40 43 40 43 43 44 39 40 49 51 46 39 35 32 28 26 27 29 34 33 34 41 41 37 33 33 35 37 43 45 43 39 36 33 31 28 30 31 37 38 34 40 42 38 34 33 34 35 39 47 45 44 42 38 34 33 34 35 39 47 45 44 38 40 46 47 45 41 37 33 32 31 30 32 37 35 39 40 45 47 49 48 46 52 54 53 46 40 35 33 30 30 28 28 30 27 27 25 23 22 28 49 32 33 33 34 34 33 33 32 32 32 33 34 34 33 34 33 33 33 34 33 35 33 34 34 35 34 34 33 34 34 35 34 34 35 35 34 32 31 32 33 33 33 33 34 36 34 32 32 33 33 22 21 23 20 23 29 33 51 61 56 43 35 35 38 42 46 46 47 44 44 54 61 60 49 40 36 36 41 45 45 43 44 43 44 46 48 45 47 41 40 49 53 50 46 42 37 34 34 33 32 53 53 48 44 41 35 34 34 32 34 34 33 39 41 39 37 37 38 39 44 47 47 46 39 44 31 32 33 37 39 36 41 43 39 34 32 34 36 41 48 49 50 40 40 46 46 42 38 33 30 44 44 41 36 33 34 37 44 47 48 46 42 49 53 50 45 40 37 31 29 30 34 39 36 40 42 38 33 30 29 32 36 38 37 44 47 46 39 36 37 39 43 46 43 44 37 36 42 43 41 46 46 37 36 42 40 34 29 29 33 41 47 50 51 45 40 49 52 47 40 35 34 32 31 32 38 34 35 38 41 48 49 47 42 38 47 52 48 42 37 34 30 30 31 32 37 34 36 44 46 34 30 30 31 32 37 34 36 44 46 41 35 35 38 42 47 47 45 41 38 48 51 49 42 38 33 33 41 43 39 36 35 39 43 48 48 47 45 41 46 49 46 40 36 34 34 36 33 34 37 35 38 38 42 46 49 47 42 46 48 44 38 33 31 32 37 42 40 39 32 36 37 35 32 33 40 40 41 35 34 37 37 33 32 33 34 39 46 51 49 48 42 51 56 52 45 39 35 33 31 33 31 28 25 24 26 30 31 33 36 37 35 33 32 31 29 24 19 19 22 31 41 55 58 56 29 34 39 47 48 47 56 57 49 40 29 21 20 20 25 28 36 37 41 45 44 39 34 33 35 32 37 38 44 45 42 36 33 33 35 39 45 48 48 40 40 46 47 42 38 34 30 26 26 31 37 34 34 34 36 44 48 51 41 38 45 44 40 36 33 29 29 31 32 36 39 36 43 42 37 49 45 39 45 50 49 44 37 34 32 28 29 32 35 35 40 46 44 37 29 28 31 36 45 47 40 46 44 37 29 28 31 36 45 47 47 42 39 47 51 49 44 36 30 26 23 25 29 34 34 36 41 46 46 47 43 41 49 51 51 45 38 32 28 29 32 32 34 35 35 43 44 41 38 36 42 45 49 50 45 38 33 30 31 33 36 41 40 38 42 41 37 35 34 35 38 43 44 46 44 39 36 34 34 36 39 45 45 47 41 42 47 47 41 39 40 41 43 44 44 37 29 23 24 25 28 34 40 43 41 41 36 29 23 19 17 16 18 24 32 43 57 56 53 50 43 34 28 27 27 49 48 43 37 30 26 25 27 32 37 37 36 42 44 40 35 33 33 34 38 45 49 49 40 41 33 33 34 36 42 47 51 44 38 44 48 46 40 36 33 29 27 30 34 39 35 37 41 40 37 46 45 37 43 49 46 43 38 36 32 30 30 33 37 40 37 42 44 44 41 36 37 37 36 39 48 43 38 35 33 31 31 32 35 33 34 38 39 39 37 37 39 42 41 45 46 45 40 36 42 38 41 41 43 46 46 43 38 39 46 49 48 43 39 36 31 29 27 26 30 32 32 37 40 40 42 44 41 40 37 42 45 45 41 36 34 29 25 22 21 24 31 35 34 36 37 40 40 37 36 41 34 36 40 41 38 34 32 31 28 29 33 35 38 31 28 31 34 35 36 35 37 36 36 40 28 33 35 36 36 35 37 36 39 42 45 42 36 38 41 39 34 30 29 27 26 27 31 38 40 34 36 35 38 43 47 42 40 46 47 42 37 34 31 27 27 29 32 37 32 31 36 39 37 35 43 37 43 45 44 38 33 30 27 27 30 31 34 34 31 36 41 39 35 32 32 35 35 42 47 36 41 39 35 32 32 35 35 42 47 49 41 35 42 44 41 37 33 31 27 25 28 30 34 37 32 32 33 36 41 46 41 43 48 48 42 35 31 28 27 30 33 38 34 30 37 38 37 33 31 37 30 31 31 31 26 22 21 23 26 34 40 46 37 33 38 36 29 22 19 22 25 31 41 51 38 33 25 19 21 24 27 36 47 49 39 41 44 43 37 30 25 21 19 23 28 36 40 35 39 29 34 41 45 45 37 38 47 48 41 35 32 30 30 31 33 35 38 35 40 42 40 36 34 34 42 46 44 41 37 34 32 30 31 31 34 34 30 38 40 38 34 34 34 36 37 45 51 51 38 38 34 34 34 36 37 45 51 51 38 37 42 45 44 41 38 33 31 32 34 34 31 30 30 34 31 38 50 57 48 41 43 45 42 37 34 29 26 22 24 28 36 40 36 37 38 35 31 29 30 37 41 46 45 42 38 33 22 19 26 36 41 43 38 41 43 38 32 29 29 31 36 44 46 48 40 36 30 29 31 34 41 45 49 45 38 47 49 45 40 36 32 28 25 27 32 38
