48158 48163 48160 48159 48158 48154 48160 48155 48155 48160 34546 34675 34721 34714 34696 34692 34732 34825 35116 35397 35043 34901 34805 34773 34739 34683 34614 34555 34496 34444 34397 34340 34263 34194 34101 33963 33823 33688 33568 33458 33347 33256 33235 33244 33247 33252 33233 33181 33170 33136 33116 33118 33105 33112 33104 33108 33127 33099 33093 33107 33101 33099 33104 33055 33116 33199 33293 33389 33502 33584 33705 33820 33873 33928 33983 34026 34056 34043 34076 34092 34161 34187 34190 34243 34254 34268 34259 34295 34306 34317 34305 34268 34189 34112 34068 34040 34008 34002 33961 33955 33944 33928 33919 33933 34018 34093 34108 34169 34215 34196 34196 34163 34156 34183 34209 34202 34212 34252 34260 34251 34233 34258 34312 34421 34517 34569 34598 34604 34662 34717 34755 34838 34892 34914 34974 35056 35108 35138 35135 35142 35135 35143 35113 35120 35218 35119 35077 35093 35104 35132 35105 35047 34992 34963 34955 35039 35143 35149 35142 35165 35154 35110 35058 35021 34971 34929 34897 34897 34880 34871 34803 34754 34731 34731 34744 34770 34688 34582 34475 34365 34198 34085 33968 33832 33740 33628 33534 33454 33385 33292 33165 32962 32761 32660 32581 32508 32402 32318 32441 32551 32676 32802 32953 33087 33182 33229 33212 33240 33239 33233 33244 33313 33379 33429 33489 33531 33576 33661 33743 33841 33944 34031 34106 34164 34209 34268 34312 34377 34400 34418 34450 34481 34502 34517 34506 34534 34556 34546 34569 34549 34591 34611 34652 34683 34702 34720 34723 34704 34672 34670 34665 34666 34662 34682 34703 34707 34707 34718 34732 34752 34773 34772 34795 34811 34843 34855 34839 34802 34782 34782 34778 34784 34801 34806 34816 34822 34822 34849 34874 34876 34902 34917 34923 34940 34953 34969 34967 34943 34911 34890 34894 34890 34890 34907 34904 34902 34919 34938 34950 34963 34978 35000 35016 35018 35035 35045 35064 35058 35014 34994 34962 34954 34974 34981 34984 34972 34995 34986 35014 35007 35032 35032 35044 35075 35073 35075 35095 35118 35137 35118 35067 35047 35043 35050 35046 35062 35075 35069 35098 35085 35105 35115 35146 35141 35165 35185 35199 35217 35225 35217 35172 35132 35118 35135 35147 35136 35140 35137 35146 35151 35168 35173 35203 35212 35239 35242 35258 35280 35278 35305 35296 35291 35233 35198 35198 35216 35204 35232 35229 35227 35226 35228 35240 35260 35285 35312 35320 35339 35337 35358 35361 35372 35351 35334 35300 35303 35290 35289 35307 35309 35317 35327 35319 35350 35356 35376 35389 35414 35427 35429 35462 35487 35489 35475 35449 35421 35422 35418 35430 35434 35460 35458 35468 35469 35484 35506 35506 35529 35538 35536 35552 35572 35592 35596 35571 35540 35535 35515 35516 35523 35528 35533 35536 35541 35535 35558 35571 35596 35607 35618 35621 35638 35651 35668 35661 35640 35605 35584 35590 35594 35611 35606 35611 35614 35619 35631 35638 35669 35675 35684 35712 35713 35728 35741 35765 35745 35716 35686 35692 35692 35693 35703 35699 35708 35707 35726 35720 35745 35755 35761 35765 35795 35801 35800 35792 35761 35730 35730 35714 35715 35722 35744 35733 35734 35751 35755 35765 35792 35799 35810 35830 35849 35857 35868 35877 35866 35825 35795 35805 35779 35795 35799 35790 35817 35811 35818 35818 35833 35848 35879 35869 35879 35902 35893 35919 35916 35907 35860 35850 35833 35834 35823 35824 35832 35837 35838 35856 35863 35870 35880 35886 35898 35894 35911 35915 35916 35903 35866 35827 35794 35803 35796 35779 35794 35780 35776 35781 35777 35782 35797 35807 35824 35854 35882 35917 35922 35917 35883 35859 35830 35805 35821 35821 35818 35824 35840 35864 35890 35898 35913 35913 35918 35922 35939 35949 35906 35869 35836 35817 35803 35817 35795 35801 35788 35809 35811 35834 35829 35839 35863 35864 35889 35892 35918 35928 35882 35835 35782 35792 35773 35793 35795 35797 35802 35808 35824 35843 35852 35883 35869 35902 35917 35930 35945 35922 35886 35845 35826 35810 35828 35817 35824 35833 35850 35860 35861 35885 35895 35906 35913 35932 35955 35966 35980 35962 35919 35866 35841 35870 35855 35873 35871 35880 35890 35893 35919 35931 35944 35967 35978 35990 35999 36016 36037 36005 35953 35912 35897 35880 35884 35884 35887 35913 35907 35921 35921 35950 35964 35967 35990 35992 36016 36035 36050 36056 36059 36023 35963 35924 35911 35904 35891 35902 35907 35914 35916 35919 35945 35938 35952 35972 35976 36003 36003 36019 36050 36070 36067 36086 36051 36000 35950 35940 35925 35931 35935 35954 35963 35968 35970 35991 35998 36002 36004 36037 36058 36073 36079 36088 36109 36119 36116 36079 36032 36008 36006 36015 36022 36033 36034 36038 36034 36053 36056 36076 36098 36105 36116 36143 36152 36179 36184 36177 36142 36108 36094 36080 36081 36088 36111 36106 36117 36108 36117 36144 36159 36166 36187 36194 36205 36220 36221 36257 36260 36265 36243 36186 36144 36137 36136 36144 36135 36149 36155 36146 36160 36163 36179 36198 36218 36233 36241 36260 36262 36270 36296 36314 36296 36266 36221 36192 36193 36189 36187 36184 36203 36219 36212 36215 36228 36244 36247 36276 36277 36279 36301 36304 36313 36331 36332 36327 36281 36247 36242 36246 36255 36236 36247 36256 36254 36265 36278 36284 36282 36305 36302 36332 36336 36349 36359 36374 36368 36305 36274 36268 36274 36273 36281 36282 36297 36294 36307 36315 36317 36339 36365 36374 36370 36393 36407 36411 36419 36430 36384 36341 36313 36322 36304 36303 36319 36301 36316 36320 36338 36336 36349 36369 36375 36389 36395 36415 36421 36440 36445 36405 36356 36341 36330 36326 36335 36338 36332 36345 36353 36537 36562 36550 36523 36484 36456 36448 36441 36437 36448 36444 36448 36430 36444 36458 36458 36469 36482 36491 36488 36500 36502 36516 36520 36485 36405 36380 36357 36333 36338 36337 36330 36305 36303 36304 36309 36314 36331 36340 36339 36356 36356 36368 36380 36390 36353 36291 36231 36208 36191 36181 36181 36178 36171 36156 36168 36168 36186 36208 36204 36215 36232 36238 36254 36266 36288 36285 36217 36155 36133 36117 36114 36108 36108 36109 36100 36113 36121 36122 36147 36175 36186 36198 36202 36235 36253 36258 36228 36166 36117 36084 36079 36085 36097 36099 36091 36084 36115 36129 36128 36145 36161 36183 36188 36194 36219 36229 36253 36239 36162 36100 36063 36063 36060 36027 36042 36042 36055 36049 36055 36086 36119 36115 36146 36149 36174 36205 36210 36216 36219 36169 36107 36090 36057 36064 36047 36054 36071 36087 36089 36109 36111 36118 36133 36130 36144 36162 36160 36175 36194 36172 36129 36092 36038 36029 36023 36016 36026 36050 36056 36042 36049 36033 36064 36091 36104 36128 36138 36141 36160 36134 36092 36029 36016 35997 35991 35990 35998 36000 35994 36010 36027 36026 36060 36091 36116 36149 36173 36203 36233 36245 36240 36176 36133 36109 36080 36087 36086 36082 36086 36072 36074 36084 36099 36098 36111 36109 36141 36140 36166 36164 36189 36204 36175 36097 36063 36044 36023 36002 36027 36001 36016 36031 36081 36093 36126 36140 36168 36209 36218 36234 36237 36250 36241 36195 36147 36130 36146 36137 36133 36139 36141 36137 36158 36169 36175 36193 36190 36210 36222 36229 36237 36253 36274 36283 36232 36195 36149 36140 36129 36128 36126 36118 36124 36114 36131 36131 36155 36179 36195 36215 36233 36249 36267 36279 36282 36273 36235 36196 36177 36176 36165 36161 36177 36168 36173 36166 36166 36182 36204 36208 36231 36245 36254 36281 36298 36316 36305 36270 36232 36196 36210 36206 36221 36225 36228 36221 36213 36216 36234 36256 36281 36300 36306 36325 36350 36369 36376 36357 36315 36280 36264 36250 36244 36244 36244 36254 36239 36241 36257 36264 36282 36292 36298 36325 36309 36325 36347 36318 36274 36231 36203 36207 36191 36179 36180 36192 36181 36199 36199 36190 36207 36221 36245 36244 36260 36284 36295 36294 36286 36237 36192 36174 36164 36150 36138 36148 36158 36146 36162 36173 36177 36193 36215 36218 36210 36259 36263 36271 36262 36203 36166 36126 36126 36115 36114 36110 36114 36109 36108 36129 36125 36147 36155 36157 36185 36193 36191 36224 36235 36222 36153 36085 36012 35987 35969 35950 35945 35931 35935 35924 35928 35935 35946 35954 35981 36009 36014 36040 36046 36053 36058 36043 35960 35859 35807 35754 35720 35683 35670 35661 35650 35649 35686 35718 35733 35751 35771 35794 35804 35820 35834 35854 35871 35811 35725 35664 35664 35651 35649 35654 35637 35657 35646 35637 35653 35653 35671 35698 35709 35729 35737 35748 35685 35602 35517 35476 35454 35435 35434 35434 35435 35423 35426 35448 35473 35497 35511 35527 35549 35564 35598 35615 35600 35518 35424 35354 35317 35280 35265 35249 35246 35224 35242 35245 35253 35281 35290 35315 35327 35354 35361 35382 35408 35398 35293 35193 35112 35059 35029 35012 35010 35001 34990 34999 35010 35012 35046 35059 35076 35107 35123 35158 35167 35187 35195 35134 35018 34938 34909 34870 34856 34867 34864 34852 34844 34851 34864 34911 34921 34949 34976 34994 35038 35046 35073 35042 34951 34871 34805 34787 34773 34774 34776 34811 34795 34804 34819 34860 34881 34901 34942 34955 34983 34998 35036 35060 35086 35033 34953 34840 34775 34774 34741 34720 34741 34720 34725 34733 34727 34764 34784 34812 34825 34854 34879 34906 34916 34941 34962 34981 34900 34787 34714 34674 34638 34621 34626 34619 34619 34610 34616 34621 34648 34668 34696 34722 34737 34756 34780 34796 34822 34844 34842 34752 34658 34606 34564 34554 34541 34545 34540 34537 34548 34545 34550 34575 34589 34615 34637 34671 34687 34719 34736 34726 34625 34542 34482 34461 34452 34463 34457 34446 34432 34435 34436 34454 34463 34491 34520 34524 34554 34583 34602 34628 34650 34613 34507 34420 34340 34312 34290 34282 34283 34279 34265 34257 34264 34285 34309 34329 34330 34372 34383 34419 34427 34459 34460 34377 34283 34198 34183 34142 34133 34137 34115 34115 34118 34112 34134 34147 34149 34162 34180 34200 34200 34224 34229 34171 34052 33951 33894 33860 33842 33837 33817 33804 33792 33782 33782 33809 33825 33837 33856 33881 33904 33920 33947 33917 33819 33717 33629 33606 33563 33556 33546 33529 33541 33528 33537 33545 33578 33592 33615 33648 33673 33706 33724 33768 33735 33630 33527 33456 33426 33404 33393 33387 33373 33365 33351 33388 33386 33428 33446 33468 33501 33522 33539 33575 33610 33634 33570 33470 33376 33323 33309 33274 33261 33262 33250 33247 33268 33270 33297 33326 33351 33374 33407 33440 33477 33511 33551 33583 33536 33428 33367 33306 33289 33291 33294 33285 33278 33268 33288 33306 33334 33361 33389 33425 33451 33478 33504 33542 33566 33514 33424 33362 33338 33327 33327 33336 33317 33319 33321 33328 33348 33365 33393 33432 33467 33516 33558 33574 33605 33651 33683 33594 33488 33415 33380 33358 33325 33326 33332 33317 33316 33331 33340 33376 33389 33422 33458 33481 33510 33552 33585 33597 33573 33487 33396 33339 33292 33298 33273 33270 33258 33258 33263 33266 33277 33324 33339 33355 33410 33422 33466 33502 33539 33570 33538 33429 33347 33291 33267 33265 33251 33244 33241 33239 33252 33259 33276 33307 33346 33367 33402 33419 33465 33501 33528 33488 33400 33299 33261 33231 33230 33223 33232 33219 33224 33253 33267 33293 33312 33347 33381 33406 33442 33481 33515 33553 33554 33453 33333 33276 33236 33191 33186 33196 33186 33189 33189 33212 33223 33254 33288 33311 33339 33360 33395 33416 33447 33475 33411 33278 33186 33136 33122 33101 33068 33080 33031 33036 33032 33035 33057 33078 33120 33144 33172 33205 33224 33272 33308 33329 33237 33111 33042 33006 32978 32973 32970 32972 32966 32978 32996 33023 33049 33101 33145 33164 33213 33244 33282 33331 33341 33235 33143 33090 33074 33055 33061 33073 33071 33064 33082 33084 33127 33155 33183 33216 33276 33314 33344 33394 33434 33399 33277 33176 33115 33108 33072 33068 33055 33067 33058 33076 33087 33120 33146 33184 33233 33263 33303 33343 33388 33395 33308 33189 33119 33087 33066 33042 33054 33062 33051 33064 33086 33113 33161 33202 33233 33282 33333 33384 33422 33468 33504 33460 33367 33288 33249 33223 33224 33212 33238 33231 33238 33247 33267 33290 33330 33360 33383 33424 33475 33529 33551 33488 33371 33293 33250 33210 33202 33201 33208 33212 33202 33209 33229 33271 33307 33340 33373 33400 33443 33481 33522 33495 33370 33247 33184 33142 33118 33088 33085 33085 33082 33083 33090 33111 33149 33185 33213 33245 33292 33329 33359 33383 33305 33185 33086 33047 33002 32999 32982 32993 32978 32974 32991 33002 33030 33070 33084 33108 33134 33177 33207 33248 33191 33063 32973 32900 32882 32864 32865 32859 32853 32852 32859 32890 32910 32951 32992 33030 33063 33101 33150 33203 33240 33237 33122 32985 32919 32872 32846 32823 32823 32804 32804 32800 32822 32841 32875 32903 32931 32967 33006 33062 33075 33025 32896 32773 32727 32672 32642 32635 32650 32648 32659 32698 32721 32735 32752 32784 32823 32845 32896 32872 32744 32601 32518 32468 32422 32415 32399 32393 32382 32388 32419 32441 32471 32508 32556 32584 32622 32279 32274 32262 32270 32286 32318 32344 32389 32424 32466 32495 32539 32584 32595 32488 32342 32242 32219 32194 32216 32208 32218 32206 32214 32248 32288 32319 32376 32433 32486 32540 32599 32641 32700 32695 32594 32469 32407 32396 32398 32417 32421 32430 32443 32455 32485 32528 32562 32609 32654 32702 32749 32801 32851 32894 32832 32710 32598 32543 32531 32537 32541 32537 32540 32540 32547 32583 32609 32651 32693 32731 32795 32834 32880 32884 32800 32657 32595 32558 32542 32551 32548 32565 32543 32540 32554 32602 32610 32663 32704 32746 32795 32838 32867 32864 32770 32614 32495 32449 32408 32388 32381 32370 32355 32352 32357 32390 32410 32428 32442 32464 32497 32548 32581 32603 32480 32335 32244 32208 32200 32193 32207 32212 32212 32227 32271 32308 32351 32403 32454 32531 32540 32618 32644 32607 32471 32355 32319 32302 32288 32304 32290 32292 32290 32309 32333 32375 32409 32464 32506 32555 32603 32663 32649 32538 32410 32337 32294 32266 32260 32249 32251 32237 32245 32267 32286 32322 32359 32397 32436 32471 32520 32565 32549 32450 32334 32274 32254 32239 32245 32236 32248 32242 32268 32278 32326 32358 32413 32445 32495 32531 32580 32619 32616 32531 32446 32394 32381 32392 32378 32412 32403 32404 32404 32452 32466 32501 32544 32585 32622 32671 32711 32752 32775 32717 32614 32538 32503 32485 32476 32485 32488 32488 32503 32517 32547 32571 32619 32661 32712 32758 32796 32838 32889 32918 32890 32799 32746 32720 32708 32684 32687 32690 32692 32687 32696 32718 32723 32761 32784 32819 32846 32883 32908 32962 32928 32820 32724 32661 32631 32616 32583 32599 32588 32582 32571 32603 32612 32637 32659 32699 32735 32762 32790 32828 32865 32865 32764 32657 32596 32591 32570 32539 32541 32544 32564 32579 32607 32640 32683 32718 32725 32756 32808 32839 32886 32944 32941 32859 32754 32713 32693 32667 32663 32672 32642 32644 32634 32644 32665 32702 32735 32761 32800 32814 32873 32902 32946 32933 32854 32771 32729 32725 32730 32753 32765 32783 32793 32806 32823 32871 32910 32950 32985 33021 33062 33095 33158 33163 33095 32989 32948 32921 32923 32922 32927 32946 32932 32936 32953 32988 33018 33037 33089 33115 33135 33170 33206 33164 33060 32944 32884 32834 32814 32813 32789 32776 32767 32758 32770 32775 32813 32828 32857 32876 32902 32949 32977 32970 32844 32730 32667 32628 32621 32605 32620 32605 32608 32613 32631 32659 32693 32730 32765 32810 32837 32870 32921 32928 32842 32721 32640 32611 32581 32572 32566 32560 32545 32550 32563 32576 32587 32625 32639 32667 32693 32716 32756 32783 32749 32609 32519 32441 32422 32377 32378 32350 32334 32303 32277 32270 32283 32283 32293 32313 32335 32348 32370 32379 32321 32193 32090 32007 31969 31942 31935 31924 31897 31894 31907 31903 31911 31909 31935 31969 31992 32028 32052 32084 32068 31953 31810 31735 31683 31664 31655 31631 31628 31617 31622 31635 31661 31679 31723 31768 31809 31859 31881 31921 31942 31939 31853 31725 31667 31652 31658 31696 31738 31804 31867 31925 32008 32089 32191 32278 32373 32483 32587 32710 32803 32901 32986 33030 32992 32975 32972 32991 33018 33059 33089 33106 33155 33191 33229 33275 33317 33353 33399 33429 33468 33518 33563 33607 33636 33653 33601 33549 33537 33531 33525 33539 33547 33545 33564 33576 33617 33645 33665 33720 33765 33810 33851 33892 33939 33987 33956 33935 33910 33921 33947 33974 34003 34036 34051 34069 34103 34150 34193 34217 34266 34302 34339 34378 34424 34463 34517 34512 34484 34484 34508 34540 34575 34599 34625 34639 34653 34680 34737 34764 34792 34845 34873 34922 34964 34994 35024 34970 34911 34886 34885 34888 34894 34909 34929 34943 34977 35015 35061 35090 35138 35172 35206 35248 35284 35326 35356 35324 35249 35218 35208 35205 35217 35248 35294 35352 35400 35425 35482 35504 35547 35573 35604 35622 35641 35596 35522 35518 35524 35534 35574 35610 35639 35671 35687 35699 35722 35749 35764 35791 35806 35819 35853 35864 35846 35784 35735 35731 35717 35726 35743 35747 35756 35759 35768 35779 35814 35824 35853 35860 35878 35900 35911 35924 35849 35767 35728 35704 35702 35698 35694 35694 35694 35689 35698 35718 35711 35736 35762 35767 35782 35800 35822 35835 35785 35689 35627 35581 35574 35564 35566 35566 35582 35575 35578 35586 35608 35630 35661 35676 35701 35724 35741 35768 35768 35688 35615 35563 35539 35540 35541 35540 35563 35568 35580 35603 35621 35644 35658 35679 35711 35729 35746 35779 35799 35779 35696 35624 35607 35610 35606 35620 35637 35631 35635 35646 35659 35673 35692 35715 35738 35755 35779 35797 35745 35665 35596 35560 35543 35544 35559 35564 35559 35556 35581 35588 35633 35664 35713 35732 35750 35785 35802 35833 35821 35728 35646 35612 35598 35608 35605 35623 35620 35635 35641 35657 35661 35706 35732 35757 35773 35804 35833 35848 35801 35724 35649 35605 35615 35605 35626 35640 35638 35649 35649 35664 35687 35715 35729 35768 35785 35824 35829 35859 35793 35708 35640 35614 35613 35612 35626 35647 35637 35645 35664 35671 35705 35720 35749 35783 35804 35804 35834 35850 35757 35670 35606 35577 35581 35586 35596 35592 35596 35606 35597 35624 35653 35671 35690 35711 35732 35775 35798 35766 35657 35581 35541 35533 35542 35540 35561 35565 35566 35575 35589 35611 35635 35661 35680 35695 35728 35753 35763 35725 35621 35541 35473 35467 35458 35456 35460 35477 35453 35479 35484 35509 35520 35543 35571 35584 35602 35628 35655 35655 35550 35443 35386 35334 35328 35327 35333 35327 35316 35312 35325 35343 35353 35378 35400 35431 35449 35472 35490 35527 35518 35427 35326 35245 35212 35193 35188 35198 35198 35185 35181 35180 35197 35230 35256 35281 35291 35318 35357 35368 35391 35371 35281 35161 35123 35083 35087 35094 35093 35094 35093 35096 35122 35142 35155 35183 35213 35237 35265 35293 35315 35331 35371 35291 35177 35081 35023 35006 34988 34981 34984 34991 34982 35002 35007 35039 35076 35079 35111 35153 35164 35189 35221 35248 35267 35216 35107 34990 34954 34919 34903 34900 34887 34909 34892 34912 34932 34958 34972 35007 35042 35075 35100 35132 35158 35181 35210 35199 35105 35005 34957 34930 34926 34934 34932 34942 34939 34957 34985 34993 35021 35058 35073 35102 35148 35165 35192 35221 35258 35218 35118 35045 35027 35026 35031 35044 35049 35063 35060 35084 35105 35146 35158 35201 35206 35269 35280 35304 35333 35358 35395 35366 35279 35201 35148 35145 35136 35137 35147 35164 35161 35172 35199 35220 35254 35284 35300 35345 35380 35400 35419 35450 35470 35453 35371 35285 35249 35219 35221 35245 35239 35237 35248 35256 35285 35300 35333 35355 35389 35406 35439 35466 35490 35518 35534 35489 35422 35364 35340 35338 35363 35364 35382 35401 35390 35394 35430 35454 35472 35502 35520 35532 35565 35591 35628 35609 35537 35446 35406 35373 35352 35362 35373 35382 35378 35388 35396 35410 35431 35453 35501 35518 35543 35566 35582 35594 35591 35524 35418 35375 35356 35362 35348 35354 35343 35356 35374 35399 35410 35444 35461 35483 35507 35530 35543 35573 35598 35598 35496 35414 35384 35360 35344 35346 35371 35368 35377 35379 35389 35424 35449 35467 35500 35517 35538 35558 35590 35602 35559 35495 35437 35404 35403 35404 35431 35425 35430 35451 35460 35465 35492 35524 35557 35577 35605 35624 35648 35674 35675 35581 35493 35444 35420 35399 35398 35404 35413 35395 35391 35403 35433 35447 35475 35489 35519 35543 35549 35590 35622 35631 35560 35469 35400 35376 35363 35352 35361 35360 35353 35374 35382 35385 35422 35451 35470 35480 35498 35345 35364 35381 35412 35435 35456 35475 35512 35528 35551 35583 35596 35558 35460 35347 35301 35260 35258 35250 35253 35247 35239 35241 35270 35307 35319 35352 35358 35387 35412 35431 35461 35475 35407 35307 35201 35171 35152 35127 35117 35130 35112 35116 35131 35147 35168 35186 35212 35237 35259 35277 35300 35340 35354 35302 35199 35121 35086 35070 35072 35071 35076 35074 35077 35082 35095 35139 35172 35188 35214 35245 35274 35285 35306 35249 35139 35078 35033 35015 35014 35014 35032 35036 35055 35063 35095 35120 35138 35182 35209 35233 35260 35280 35307 35340 35279 35179 35110 35075 35064 35052 35046 35063 35073 35063 35079 35124 35156 35174 35208 35224 35252 35266 35299 35330 35351 35305 35198 35122 35081 35082 35082 35090 35096 35098 35107 35136 35138 35172 35194 35230 35268 35308 35325 35360 35380 35380 35330 35260 35203 35188 35192 35230 35236 35249 35252 35266 35284 35304 35329 35355 35373 35398 35424 35440 35436 35355 35263 35208 35191 35170 35171 35190 35179 35198 35205 35226 35241 35293 35321 35354 35373 35401 35438 35459 35420 35341 35279 35250 35253 35229 35270 35297 35305 35323 35332 35345 35379 35394 35429 35448 35458 35476 35407 35290 35223 35195 35178 35181 35200 35210 35194 35203 35212 35231 35249 35282 35273 35296 35327 35337 35263 35147 35039 34997 34992 34982 34987 35006 35002 35005 35007 35025 35061 35109 35133 35150 35174 35199 35208 35108 34969 34859 34802 34766 34745 34735 34740 34757 34749 34767 34782 34803 34814 34862 34879 34895 34812 34645 34554 34483 34466 34460 34469 34464 34486 34501 34502 34508 34557 34589 34630 34666 34694 34616 34470 34352 34286 34276 34285 34280 34297 34308 34314 34340 34371 34404 34442 34483 34525 34564 34502 34358 34231 34144 34136 34135 34150 34151 34157 34173 34174 34208 34234 34271 34306 34353 34385 34382 34274 34122 34024 33994 34009 34035 34071 34102 34108 34088 34087 34122 34119 34150 34174 34196 34195 34096 33925 33819 33761 33753 33738 33743 33717 33690 33714 33721 33736 33761 33805 33827 33864 33884 33811 33683 33586 33549 33561 33583 33612 33627 33637 33648 33688 33747 33798 33856 33894 33959 34023 34044 34019 33935 33909 33907 33945 33981 34025 34050 34068 34111 34140 34181 34217 34257 34295 34328 34371 34374 34331 34249 34210 34227 34248 34295 34333 34358 34385 34407 34438 34491 34527 34558 34590 34617 34622 34625 34578 34517 34483 34498 34530 34563 34572 34593 34601 34601 34646 34690 34698 34739 34768 34802 34817 34769 34708 34667 34678 34691 34728 34745 34730 34727 34790 34842 34873 34909 34938 34985 35019 35057 35052 35025 35012 34991 35046 35050 35054 35083 35130 35165 35196 35223 35279 35312 35358 35368 35398 35441 35454 35474 35504 35553 35565 35600 35650 35676 35675 35731 35770 35799 35837 35860 35889 35901 35918 35932 35950 35963 35974 35957 35956 35979 35976 35984 36007 36033 36070 36082 36097 36107 36127 36145 36130 36116 36130 36140 36179 36205 36223 36263 36264 36322 36327 36335 36347 36346 36354 36361 36359 36328 36302 36296 36308 36306 36279 36250 36249 36254 36245 36232 36229 36244 36252
33 33 33 33 33 33 33 33 33 33 33 33 33 33 33 33 33 33 33 33 33 33 33 33 33 33 33 33 32 33 33 33 33 33 33 33 34 33 33 33 33 34 34 34 33 33 34 35 35 35 35 34 32 32 32 32 32 32 33 32 32 32 35 35 35 34 33 33 32 34 33 34 33 32 33 33 33 34 34 34 33 32 32 32 33 32 34 34 32 30 29 31 31 34 34 35 35 32 34 34 32 32 32 34 33 33 32 33 33 33 33 33 33 32 33 33 32 33 33 33 32 33 33 33 33 33 33 33 32 33 33 33 32 32 33 33 33 33 33 33 33 33 32 33 41 43 39 51 37 34 33 33 33 33 33 34 33 33 33 33 33 32 34 34 34 34 33 34 34 34 32 32 32 31 31 31 36 31 34 31 33 35 36 35 33 33 32 32 32 32 33 35 33 33 34 33 34 33 32 34 33 33 33 32 31 30 32 33 34 33 32 33 33 33 32 32 32 33 33 34 34 33 34 33 32 32 32 33 33 33 33 33 33 33 33 33 32 33 33 33 33 33 33 33 33 33 33 33 33 33 33 33 33 33 33 33 33 33 33 33 33 33 33 33 33 33 32 33 33 33 33 33 33 33 33 33 33 33 33 33 33 33 33 33 33 33 33 33 33 33 33 33 33 33 33 33 33 33 33 33 33 33 33 33 33 33 33 33 33 33 33 33 33 33 33 33 33 33 33 33 33 33 33 33 33 33 33 33 33 33 33 33 33 33 33 33 33 33 33 33 33 33 33 33 33 33 33 33 33 33 33 33 33 33 33 33 33 33 33 33 33 33 33 33 33 33 33 33 33 33 33 33 33 33 33 33 33 33 33 33 33 33 33 33 33 33 33 33 33 33 33 33 33 33 33 33 33 33 33 33 33 33 33 33 33 33 33 33 33 33 33 33 33 33 33 33 33 33 33 33 33 33 33 33 33 33 33 33 33 33 33 33 33 33 33 33 33 33 33 33 33 33 33 33 33 33 33 33 33 33 33 33 33 33 33 33 33 33 33 33 33 33 33 33 33 33 33 33 33 33 33 33 33 33 33 33 33 33 33 33 33 33 33 33 33 33 33 33 33 33 33 33 33 33 33 33 33 33 33 33 33 33 33 33 33 33 33 33 33 33 33 33 33 33 33 33 33 33 33 33 33 33 33 33 33 33 33 33 33 33 33 33 33 33 33 33 33 33 33 33 33 33 33 33 33 33 33 33 33 33 33 33 33 33 33 33 33 33 33 33 33 33 33 33 33 33 33 33 33 33 33 33 33 33 33 33 33 33 32 33 33 33 33 33 33 33 33 33 33 33 32 33 33 33 33 33 33 33 33 33 33 33 33 33 33 33 33 33 33 33 33 33 33 33 33 33 32 33 33 33 33 33 33 33 33 33 33 33 33 33 33 33 33 33 33 33 32 33 33 33 33 32 33 33 33 33 33 33 33 33 33 33 33 33 33 33 33 33 33 33 33 33 33 33 33 33 33 33 33 33 33 33 33 33 33 33 33 33 33 33 33 33 33 33 33 33 33 33 33 33 33 33 33 33 33 33 33 33 33 33 33 33 33 33 33 33 33 33 33 33 33 33 33 33 33 33 33 33 33 33 33 33 33 33 33 33 33 33 33 33 33 33 33 33 33 33 33 33 33 33 33 33 33 33 33 33 33 33 33 33 33 33 33 33 33 33 33 33 33 33 33 33 33 33 33 33 33 33 33 33 33 33 33 33 33 33 33 33 33 33 33 33 33 33 33 33 33 33 33 33 33 33 33 33 33 33 33 33 33 33 33 33 33 33 33 33 33 33 33 33 33 33 33 33 33 33 33 33 33 33 33 33 33 33 33 33 33 33 33 33 33 33 33 33 33 33 33 33 33 33 33 33 33 33 33 33 33 33 33 33 33 33 33 33 33 33 33 33 33 33 33 33 33 33 33 33 33 33 33 33 33 33 33 33 33 33 33 33 33 33 33 33 33 33 33 33 33 33 33 33 33 33 33 33 33 33 33 33 33 33 33 33 33 33 33 33 33 33 33 33 33 33 33 33 33 33 33 33 33 33 33 33 33 33 33 33 33 33 33 33 33 33 33 33 33 33 33 33 33 33 33 33 33 33 33 33 33 33 33 33 33 33 33 33 33 33 33 33 33 33 33 33 33 33 33 33 33 33 33 33 33 33 33 33 33 33 33 33 33 33 33 33 33 33 33 33 33 33 33 33 33 33 33 33 33 33 33 33 33 33 33 33 33 33 33 33 33 33 33 33 33 33 33 33 33 33 33 33 33 33 33 33 33 33 33 33 33 33 33 33 33 33 33 33 33 33 33 33 33 33 33 33 33 33 33 33 33 33 33 33 33 33 33 33 33 33 33 33 33 33 33 33 33 32 33 33 33 33 33 33 33 33 33 33 33 33 33 33 33 33 33 33 33 33 33 33 33 33 33 33 33 33 33 32 32 33 33 33 33 33 33 33 33 33 33 33 33 33 32 32 33 33 33 32 32 33 33 33 33 33 33 33 33 33 32 33 33 33 33 33 33 33 32 33 33 33 33 33 33 33 33 33 33 33 33 33 33 33 33 33 33 33 33 33 33 33 33 33 33 33 32 33 33 33 33 33 32 32 33 33 33 33 33 33 33 33 33 33 33 33 33 32 32 33 33 33 32 33 33 33 33 33 33 33 32 33 33 33 33 32 33 32 33 33 33 32 33 32 33 33 33 33 33 33 33 33 33 33 33 33 33 33 33 32 32 33 33 33 33 33 33 33 33 33 33 32 33 33 33 33 33 33 33 33 33 33 33 33 33 33 33 33 33 33 33 33 32 32 33 33 33 33 33 33 33 33 33 33 33 33 33 33 33 33 33 33 33 33 33 33 33 33 33 33 33 33 33 33 33 33 33 33 33 33 33 33 33 33 33 33 33 33 33 33 33 33 33 33 33 33 33 33 33 33 33 33 33 33 33 33 32 32 33 33 32 33 33 33 32 33 33 33 33 33 33 33 32 33 33 33 33 33 33 32 33 32 33 33 33 32 33 33 33 33 33 33 33 33 33 33 33 33 33 33 33 33 33 32 33 33 33 33 33 33 33 33 33 33 33 33 33 33 33 33 33 33 33 33 33 33 33 33 33 33 33 33 32 33 33 33 33 33 33 33 33 32 33 33 33 33 33 32 32 33 33 33 33 33 33 33 33 32 33 33 33 33 33 32 32 33 33 33 33 33 33 32 33 33 33 33 33 33 33 33 33 33 33 33 33 33 33 33 32 33 33 33 33 33 33 33 33 33 33 33 33 33 33 33 33 33 33 33 33 33 33 33 33 33 33 33 33 33 33 33 33 33 33 32 33 33 33 33 33 33 33 33 33 33 33 33 33 33 32 33 33 33 33 33 33 33 33 33 33 33 33 33 33 33 33 33 33 33 33 33 33 33 33 33 33 33 33 33 33 33 33 33 33 33 33 33 33 33 33 32 33 33 33 33 33 33 33 33 33 33 33 33 32 33 33 33 33 33 33 33 33 33 33 33 32 32 32 33 33 33 33 33 33 33 32 33 33 33 33 33 33 33 33 33 33 33 33 33 33 33 33 33 33 32 33 33 33 33 33 33 33 33 33 32 32 33 32 33 33 33 33 32 32 33 33 32 33 32 33 33 33 33 33 33 32 33 32 32 33 33 32 33 32 33 33 33 33 33 32 32 33 33 33 33 33 33 33 33 33 33 33 33 33 33 33 33 33 33 33 33 33 33 33 33 33 33 33 33 33 33 33 33 33 33 33 33 33 33 32 33 32 33 33 33 32 32 32 33 33 33 33 33 33 33 33 33 33 33 33 33 33 33 33 33 33 33 33 33 33 33 33 33 33 33 33 33 33 33 33 33 33 33 33 33 33 33 33 33 33 33 33 33 33 33 33 33 33 33 33 33 33 33 33 33 33 33 33 33 33 33 33 33 33 33 33 33 33 33 33 33 33 33 33 32 33 33 33 33 33 33 33 33 33 33 33 33 33 33 33 33 33 33 33 33 33 33 33 33 33 33 33 33 33 32 33 33 33 33 33 33 33 33 33 33 33 33 33 33 33 33 33 33 33 33 33 33 33 33 33 33 33 33 33 33 33 33 33 33 33 33 33 33 33 33 33 33 33 33 33 33 33 33 33 33 33 33 33 33 33 33 33 33 33 32 33 33 33 33 33 33 33 33 33 33 33 33 33 33 33 33 33 33 33 33 33 33 33 33 33 33 32 33 33 33 33 33 33 33 33 33 33 33 33 33 33 33 33 33 33 33 33 33 33 33 33 33 33 33 33 33 33 33 33 33 33 33 33 33 33 33 33 33 33 33 33 33 33 33 33 33 33 33 33 33 33 33 33 33 33 33 33 33 33 33 33 33 33 33 33 33 33 33 33 33 33 33 33 33 33 33 33 33 33 33 33 33 33 33 33 33 33 33 33 33 33 33 33 33 33 33 33 33 33 33 33 33 33 33 33 33 33 33 33 33 33 33 33 33 33 33 33 33 33 33 33 33 33 33 33 33 33 33 33 33 33 33 33 33 33 33 33 33 33 33 33 33 33 33 33 33 33 33 33 33 33 33 33 33 33 33 33 33 33 33 33 33 33 33 33 33 33 33 33 33 33 33 33 33 33 33 33 33 33 33 33 33 33 33 33 32 33 33 33 33 32 33 33 32 32 32 33 33 33 33 33 33 33 32 33 33 33 33 32 32 32 32 32 32 33 32 32 32 32 33 32 33 33 33 33 32 32 33 33 33 33 33 33 33 33 32 32 32 32 32 33 33 33 32 33 32 33 33 33 33 33 33 33 33 33 33 33 33 33 33 33 33 33 32 33 32 33 33 33 32 33 32 33 33 32 32 33 33 33 33 33 33 33 33 32 33 33 32 33 33 33 33 32 33 32 33 33 33 33 32 32 32 33 33 33 33 32 32 33 33 33 32 33 33 33 33 33 33 33 33 33 33 33 33 33 33 33 33 33 33 33 33 33 32 32 33 33 33 33 33 33 32 33 33 33 33 32 33 33 33 33 32 33 33 33 33 33 33 33 33 33 33 33 33 33 33 33 33 33 33 33 33 32 33 32 33 32 33 33 33 33 32 32 33 33 33 32 33 33 33 32 33 33 33 33 33 33 33 32 33 33 33 32 33 33 33 32 33 32 32 32 33 33 32 33 33 32 33 33 33 33 32 33 33 33 33 33 32 32 33 33 33 33 33 33 33 33 33 33 33 33 32 33 32 33 33 32 33 33 33 33 33 33 33 32 33 33 33 33 33 33 33 32 32 33 33 32 32 33 32 32 32 33 33 32 32 33 33 32 33 33 33 33 33 33 32 32 33 33 33 33 33 33 33 33 33 33 33 33 33 33 33 33 33 33 33 33 32 33 33 33 33 33 33 33 33 32 32 33 32 32 32 32 33 33 33 33 32 33 33 33 33 33 33 33 33 33 33 33 33 33 33 33 33 32 32 33 33 32 33 33 32 32 32 33 33 33 33 32 33 33 33 33 33 33 33 33 33 33 33 32 32 32 32 33 33 33 33 33 33 33 33 32 32 33 33 33 33 33 33 32 33 32 33 33 33 33 33 32 33 33 32 33 32 33 32 32 33 32 32 32 33 32 33 33 32 32 33 33 33 33 33 32 33 33 32 33 33 33 33 33 32 33 33 33 33 33 33 32 32 33 33 33 33 32 32 32 33 33 32 33 33 33 32 33 33 33 33 33 33 33 32 33 32 32 32 32 32 32 33 33 33 33 32 32 33 32 33 33 33 33 33 33 33 33 33 33 32 33 33 32 33 33 33 33 32 33 33 33 33 33 33 32 33 33 33 33 33 33 33 33 33 33 33 33 33 33 33 33 33 33 33 33 33 33 33 33 33 33 33 33 33 33 33 33 33 33 33 33 32 33 32 32 32 33 33 33 33 33 33 33 33 32 32 33 33 33 33 32 33 33 33 32 33 33 32 33 33 33 33 33 32 33 33 33 33 33 33 33 33 33 33 33 33 33 33 33 33 33 32 33 33 33 32 33 33 32 33 34 33 32 32 33 33 33 33 33 33 33 33 33 33 33 33 33 33 33 33 33 33 33 33 33 33 33 33 33 33 33 33 33 33 33 33 33 33 33 33 33 33 33 33 33 33 33 33 33 33 33 33 33 33 33 33 33 33 33 33 33 33 33 33 33 33 33 33 33 33 33 33 33 33 33 33 33 33 33 33 33 33 33 33 33 33 33 33 33 33 33 33 33 33 33 33 33 33 33 33 33 33 33 33 33 33 33 33 33 33 33 33 33 33 33 33 33 33 33 33 33 33 33 33 33 33 33 33 33 33 33 33 33 33 33 33 33 33 33 33 33 33 33 33 33 33 33 33 33 33 33 33 33 33 33 33 33 33 33 33 33 33 33 33 33 33 33 33 33 33 33 33 33 33 33 33 33 33 33 33 33 33 33 33 33 33 33 33 33 33 33 33 33 33 33 33 33 33 33 33 33 33 33 33 33 33 33 33 33 33 33 33 33 33 33 33 33 33 33 33 33 33 33 33 33 33 33 33 33 33 33 33 33 33 33 33 33 33 33 33 33 33 33 33 33 33 33 33 33 33 33 33 33 33 33 33 33 33 33 33 33 33 33 33 33 33 33 33 33 33 33 33 33 33 33 33 33 33 33 33 33 33 33 33 33 33 33 33 33 33 33 33 33 33 33 33 33 33 33 33 33 33 33 33 33 33 33 33 33 33 33 33 33 33 33 33 33 33 33 33 33 33 33 33 33 33 33 33 33 33 33 33 33 33 33 33 33 33 33 33 33 33 33 33 33 33 33 33 33 33 33 33 33 33 33 33 33 33 33 33 33 33 33 33 33 33 33 33 33 33 33 33 33 33 33 33 33 33 33 33 33 33 33 33 33 33 33 33 33 33 33 33 33 33 33 33 33 33 33 33 33 33 33 33 33 33 33 33 33 33 33 33 33 33 33 33 33 33 33 33 33 33 33 33 33 33 33 33 33 33 33 33 33 33 33 33 33 33 33 33 33 33 33 33 33 33 33 33 33 33 33 33 33 33 33 33 33 33 33 33 33 33 33 33 33 33 33 33 33 33 33 33 33 33 33 33 33 33 33 33 33 33 33 33 33 33 33 33 33 33 33 33 33 33 33 33 33 33 33 33 33 33 33 33 33 33 33 33 33 33 33 33 33 33 33 33 33 33 33 33 33 33 33 33 33 33 33 33 33 33 33 33 33 33 33 33 33 33 33 33 33 33 33 33 33 33 33 33 33 33 33 33 33 33 33 33 33 33 33 33 33 33 33 33 33 33 33 33 33 33 33 33 33 33 33 33 33 33 33 33 33 33 33 33 33 33 33 33 33 33 33 33 33 33 33 33 33 33 33 33 33 33 33 33 33 33 33 33 33 33 33 33 33 33 33 33 33 33 33 33 33 33 33 33 33 33 33 33 33 33 33 33 33 33 33 33 33 33 33 33 33 33 33 33 33 33 33 33 33 33 33 33 33 33 33 33 33 33 33 33 33 33 33 33 33 33 33 33 33 33 33 33 33 33 33 33 33 33 33 33 33 33 33 33 33 33 33 33 33 33 33 33 33 33 33 33 33 33 33 33 33 33 33 33 33 33 33 33 33 33 33 33 33 33 33 33 33 33 33 33 33 33 33 33 33 33 33 33 33 33 33 33 33 33 33 33 33 33 33 33 33 33 33 33 33 33 33 33 33 33 33 33 33 33 33 33 33 33 33 33 33 33 33 33 33 33 33 33 33 33 33 33 33 33 33 33 32 32 33 33 33 33 33 33 33 33 33 33 33 33 33 33 33 33 33 33 33 32 33 33 33 32 33 32 33 33 33 33 33 33 33 33 33 33 32 33 33 32 33 33 33 33 33 33 33 33 33 33 33 33 33 33 33 33 33 33 32 33 32 33 33 33 33 32 33 33 33 33 32 33 33 33 33 33 33 33 33 33 33 33 33 33 33 33 33 33 33 33 33 33 33 33 33 33 33 33 33 33 33 33 33 33 33 33 33 33 33 33 33 33 33 33 33 33 33 32 33 33 33 33 33 33 33 33 33 33 33 33 33 33 33 33 33 33 33 32 33 33 33 33 33 33 33 33 33 33 33 33 33 33 33 33 33 33 33 33 33 33 33 33 33 32 32 32 32 33 33 33 33 33 33 33 33 33 33 33 33 33 33 32 33 33 33 33 33 33 33 33 33 33 33 33 33 33 33 33 33 33 33 33 33 33 33 33 33 32 32 33 33 33 33 33 32 32 32 33 33 33 32 32 32 33 33 33 33 32 33 33 33 33 33 33 32 32 33 33 33 33 33 33 33 33 33 33 33 33 33 33 33 33 28 32 33 33 32 31 34 33 33 33 33 33 33 33 33 31 32 33 33 32 32 32 33 33 32 33 33 32 32 33 33 33 33 33 32 32 33 32 33 33 32 33 33 33 33 33 33 33 33 33 33 33 32 32 32 33 33 32 33 32 32 33 33 33 32 32 33 32 33 33 33 33 33 33 33 33 32 33 32 33 33 33 34 33 33 33 32 33 32 32 32 32 32 36 37 44 49 26 29 43 26 31 33 33 33 33 33 33
