19918 19921 19931 19946 29013 31369 31303 31277 31305 31293 31334 31342 31375 31398 31427 31434 31406 31414 31420 31429 31410 31421 31361 31232 31082 31007 30959 30912 30905 30904 30883 30845 30856 30859 30857 30907 30884 30919 30939 30933 30891 30731 30614 30544 30504 30470 30475 30472 30439 30424 30400 30416 30408 30446 30449 30475 30514 30562 30561 30442 30330 30260 30236 30230 30234 30255 30242 30213 30217 30190 30182 30199 30209 30214 30248 30254 30183 30068 29968 29898 29884 29910 29909 29923 29917 29927 29937 29958 29994 30016 30040 30086 30127 30122 30030 29908 29823 29795 29807 29811 29833 29833 29846 29849 29854 29888 29941 29998 30015 30054 30102 30023 29931 29862 29816 29835 29856 29882 29940 29935 29988 30035 30052 30113 30171 30194 30239 30296 30298 30205 30108 30069 30055 30066 30100 30108 30127 30128 30142 30165 30187 30233 30258 30298 30350 30340 30301 30199 30161 30125 30143 30151 30192 30209 30219 30249 30264 30290 30330 30364 30405 30463 30420 30309 30253 30214 30223 30234 30234 30266 30270 30303 30329 30354 30359 30410 30444 30465 30470 30423 30335 30281 30269 30273 30281 30317 30336 30360 30387 30425 30454 30508 30563 30576 30608 30607 30545 30478 30411 30406 30402 30409 30438 30461 30472 30475 30506 30523 30559 30604 30631 30635 30605 30516 30465 30448 30415 30439 30456 30466 30489 30512 30544 30552 30600 30633 30657 30708 30715 30658 30606 30590 30572 30600 30621 30647 30678 30694 30720 30746 30790 30823 30868 30893 30940 30967 30950 30915 30872 30836 30826 30840 30852 30867 30892 30896 30908 30934 30951 31000 31003 31014 31006 31004 30951 30895 30850 30821 30828 30832 30805 30844 30855 30856 30879 30888 30918 30952 30981 31008 31008 31000 30931 30833 30747 30652 30593 30521 30474 30445 30438 30422 30420 30450 30473 30491 30531 30537 30540 30476 30392 30300 30236 30201 30181 30226 30228 30248 30200 30170 30195 30228 30281 30303 30321 30339 30310 30250 30220 30187 30197 30224 30256 30265 30281 30300 30304 30337 30382 30423 30448 30499 30522 30525 30456 30386 30349 30333 30343 30373 30411 30431 30421 30438 30482 30501 30532 30588 30633 30672 30661 30616 30559 30541 30577 30592 30606 30640 30636 30651 30674 30690 30739 30759 30787 30812 30825 30734 30654 30603 30598 30596 30633 30635 30665 30655 30683 30711 30739 30770 30817 30858 30850 30765 30690 30631 30598 30577 30606 30613 30611 30604 30632 30642 30638 30681 30702 30715 30648 30580 30516 30490 30473 30483 30503 30519 30516 30536 30550 30568 30592 30608 30658 30635 30558 30484 30454 30445 30434 30466 30462 30491 30508 30533 30543 30554 30617 30618 30609 30527 30458 30421 30390 30373 30383 30420 30433 30427 30451 30484 30510 30553 30582 30606 30603 30518 30468 30432 30410 30401 30431 30441 30453 30489 30492 30499 30547 30571 30609 30617 30653 30600 30558 30483 30464 30455 30451 30469 30483 30503 30493 30519 30558 30572 30610 30638 30665 30669 30633 30573 30510 30499 30475 30485 30500 30531 30535 30547 30547 30577 30634 30641 30674 30700 30723 30735 30704 30651 30588 30561 30562 30538 30540 30537 30556 30562 30602 30613 30645 30677 30701 30724 30765 30791 30834 30852 30803 30739 30699 30676 30677 30679 30683 30711 30704 30714 30745 30769 30794 30831 30858 30892 30929 30936 30962 30945 30892 30869 30848 30844 30839 30866 30883 30909 30932 30956 30981 30999 31044 31053 31076 31118 31160 31174 31204 31178 31150 31086 31060 31048 31060 31066 31075 31080 31093 31109 31136 31151 31187 31212 31230 31264 31278 31302 31338 31372 31374 31312 31251 31214 31193 31168 31191 31187 31207 31206 31201 31222 31240 31242 31274 31296 31328 31352 31354 31376 31427 31402 31347 31281 31220 31215 31197 31191 31198 31197 31188 31202 31211 31205 31238 31262 31269 31293 31315 31346 31362 31399 31386 31347 31258 31155 31117 31067 31061 31040 31040 31046 31020 31039 31063 31091 31142 31143 31172 31201 31227 31242 31271 31324 31297 31237 31130 31078 31040 31045 31025 31030 31028 31026 31022 31056 31048 31082 31101 31124 31164 31174 31199 31220 31226 31148 31027 30966 30903 30896 30879 30879 30876 30865 30855 30858 30902 30913 30948 30954 31010 31030 31059 31087 31097 31016 30882 30833 30790 30769 30775 30779 30821 30822 30817 30821 30837 30864 30879 30900 30926 30943 30960 30897 30774 30654 30577 30513 30461 30451 30447 30434 30418 30405 30438 30464 30495 30505 30515 30532 30569 30585 30499 30366 30245 30180 30100 30074 30037 30048 30067 30045 30064 30080 30106 30143 30170 30209 30246 30280 30302 30229 30121 30015 29954 29952 29904 29955 29961 29951 29955 29991 30006 30023 30072 30091 30136 30183 30216 30259 30212 30120 30011 29930 29901 29889 29906 29921 29916 29937 29939 29959 29992 30028 30072 30100 30148 30197 30233 30252 30184 30088 30023 29984 29987 29981 30011 30021 30043 30043 30081 30114 30137 30178 30254 30275 30324 30371 30421 30402 30344 30266 30200 30198 30185 30201 30230 30245 30273 30280 30306 30347 30393 30437 30472 30516 30554 30590 30647 30665 30663 30594 30528 30517 30499 30518 30546 30540 30559 30564 30609 30628 30663 30708 30729 30758 30809 30850 30893 30922 30965 30996 30959 30890 30852 30833 30851 30853 30864 30886 30894 30912 30926 30947 30973 31023 31049 31084 31118 31145 31162 31208 31241 31275 31224 31160 31122 31117 31123 31144 31164 31165 31187 31190 31191 31218 31249 31263 31299 31318 31349 31402 31395 31398 31357 31296 31253 31245 31246 31247 31251 31269 31276 31272 31293 31296 31321 31346 31381 31420 31422 31461 31461 31488 31458 31373 31322 31286 31260 31270 31260 31268 31250 31250 31257 31273 31290 31300 31330 31357 31379 31398 31420 31434 31453 31403 31293 31214 31193 31139 31149 31124 31117 31114 31127 31120 31139 31148 31163 31181 31211 31247 31259 31299 31301 31325 31295 31180 31098 31046 31006 30983 30976 30966 30953 30938 30938 30957 30953 30991 30989 31008 31020 31039 31046 31078 31100 31045 30928 30855 30809 30776 30765 30780 30774 30770 30759 30783 30778 30821 30848 30855 30892 30923 30948 30980 31008 30957 30852 30759 30739 30721 30708 30729 30730 30752 30765 30775 30832 30851 30885 30938 30973 30999 31051 31071 31105 31049 30969 30908 30869 30842 30868 30871 30887 30902 30907 30908 30943 30958 30983 30982 30990 31032 31043 31066 31020 30935 30870 30835 30823 30819 30805 30809 30805 30809 30831 30850 30857 30887 30911 30921 30939 30932 30972 30963 30918 30792 30720 30685 30654 30636 30617 30627 30641 30650 30652 30665 30704 30727 30762 30792 30827 30859 30894 30911 30880 30801 30745 30714 30702 30709 30716 30727 30765 30776 30803 30828 30868 30900 30929 30967 30984 31014 31062 31086 31037 30969 30903 30847 30861 30843 30832 30831 30821 30810 30805 30811 30849 30874 30893 30949 30974 31008 31035 31083 31094 31047 31026 31028 31009 31048 31050 31068 31096 31143 31192 31250 31287 31308 31361 31384 31444 31492 31514 31562 31513 31453 31436 31457 31477 31514 31533 31553 31569 31559 31599 31611 31615 31667 31681 31690 31725 31729 31763 31724 31662 31623 31622 31629 31633 31630 31646 31647 31674 31693 31700 31718 31744 31768 31792 31796 31811 31764 31710 31644 31646 31618 31611 31612 31632 31652 31630 31634 31645 31635 31690 31687 31716 31741 31754 31720 31662 31640 31651 31666 31724 31753 31789 31815 31849 31886 31910 31943 31981 31992 32019 32020 32011 31941 31911 31888 31890 31880 31873 31869 31888 31900 31908 31900 31929 31911 31922 31945 31947 31908 31826 31753 31709 31661 31612 31595 31606 31589 31596 31591 31585 31588 31607 31595 31592 31621 31618 31535 31436 31358 31309 31262 31245 31226 31221 31222 31230 31217 31216 31225 31242 31263 31283 31282 31305 31266 31163 31104 31051 31018 31002 30997 31012 31011 31009 31003 31021 31065 31068 31113 31122 31167 31167 31207 31178 31086 31026 30971 30961 30951 30956 30950 30977 30990 31006 31018 31020 31063 31104 31139 31158 31186 31221 31227 31170 31098 31090 31089 31078 31091 31112 31137 31145 31156 31178 31203 31224 31244 31260 31305 31335 31371 31372 31339 31291 31247 31228 31229 31272 31276 31291 31296 31328 31331 31366 31388 31413 31455 31476 31508 31511 31476 31417 31379 31374 31369 31384 31393 31416 31416 31436 31442 31489 31489 31516 31532 31568 31577 31579 31542 31475 31448 31453 31449 31439 31453 31473 31461 31499 31498 31519 31548 31551 31574 31614 31627 31639 31590 31537 31498 31452 31453 31455 31479 31487 31471 31487 31493 31497 31531 31556 31570 31593 31619 31627 31608 31521 31480 31439 31443 31431 31436 31435 31429 31433 31437 31453 31475 31489 31503 31547 31544 31574 31595 31580 31490 31434 31400 31378 31377 31393 31375 31393 31389 31385 31395 31420 31445 31466 31478 31512 31527 31544 31572 31510 31423 31399 31362 31349 31366 31380 31382 31371 31364 31377 31394 31415 31429 31449 31481 31505 31537 31562 31560 31534 31482 31436 31411 31406 31421 31417 31451 31437 31423 31446 31459 31466 31496 31517 31539 31577 31573 31593 31618 31593 31562 31508 31490 31474 31490 31488 31522 31503 31544 31512 31552 31572 31592 31597 31611 31627 31647 31671 31689 31681 31658 31589 31575 31555 31555 31568 31570 31557 31574 31568 31579 31615 31631 31631 31638 31674 31686 31707 31730 31729 31724 31673 31626 31612 31617 31606 31615 31623 31621 31622 31632 31648 31648 31669 31693 31680 31722 31733 31744 31755 31762 31741 31686 31642 31614 31612 31615 31601 31614 31613 31607 31600 31611 31635 31640 31654 31657 31689 31679 31718 31741 31738 31721 31660 31626 31634 31631 31628 31652 31662 31651 31666 31675 31683 31687 31682 31694 31719 31716 31731 31735 31685 31630 31585 31546 31553 31546 31536 31569 31559 31555 31538 31557 31566 31589 31601 31633 31624 31639 31677 31616 31555 31478 31438 31411 31408 31395 31387 31385 31382 31364 31379 31382 31390 31408 31429 31447 31457 31458 31483 31429 31376 31318 31302 31306 31309 31299 31319 31316 31327 31321 31336 31357 31393 31406 31425 31447 31460 31513 31499 31444 31382 31331 31308 31309 31308 31313 31314 31310 31310 31305 31324 31340 31352 31379 31399 31433 31470 31493 31481 31401 31327 31286 31252 31226 31239 31231 31212 31184 31181 31172 31193 31223 31211 31241 31248 31258 31282 31312 31326 31264 31179 31121 31095 31068 31066 31047 31064 31055 31047 31057 31069 31088 31115 31129 31160 31184 31217 31237 31261 31286 31252 31187 31122 31106 31068 31069 31078 31069 31072 31036 31058 31060 31066 31096 31103 31129 31159 31175 31187 31220 31243 31195 31132 31097 31051 31044 31040 31056 31068 31066 31071 31084 31106 31128 31147 31172 31201 31237 31233 31256 31255 31285 31285 31225 31156 31097 31113 31116 31137 31127 31132 31124 31157 31167 31167 31201 31211 31223 31250 31269 31298 31331 31339 31342 31293 31229 31199 31191 31193 31202 31192 31217 31218 31228 31247 31262 31285 31306 31341 31364 31382 31406 31426 31461 31457 31414 31355 31334 31341 31314 31350 31353 31346 31346 31368 31392 31400 31416 31438 31467 31491 31474 31501 31522 31489 31427 31368 31323 31338 31316 31305 31300 31288 31304 31289 31307 31307 31340 31359 31403 31425 31442 31451 31473 31442 31379 31321 31279 31261 31240 31254 31246 31228 31244 31221 31240 31237 31266 31262 31290 31306 31324 31343 31332 31250 31180 31138 31113 31125 31132 31156 31131 31148 31150 31155 31161 31201 31209 31226 31246 31268 31295 31308 31282 31197 31135 31093 31085 31094 31081 31096 31072 31071 31064 31086 31095 31126 31131 31153 31177 31217 31209 31155 31080 31002 30987 30964 30968 30961 30942 30954 30958 30917 30947 30947 30969 30989 31008 31007 31041 31059 31044 30954 30877 30839 30837 30804 30832 30828 30817 30808 30811 30835 30860 30885 30887 30919 30942 30968 31002 31017 30998 30915 30870 30818 30842 30809 30828 30829 30822 30843 30864 30872 30903 30911 30932 30965 30995 31028 31050 31066 31060 31000 30965 30946 30945 30985 30975 31012 30990 31019 31033 31052 31076 31117 31132 31183 31198 31227 31268 31296 31313 31256 31214 31219 31208 31225 31227 31221 31215 31207 31214 31229 31256 31293 31294 31315 31335 31349 31358 31327 31259 31238 31223 31233 31248 31248 31239 31235 31257 31276 31265 31293 31302 31323 31329 31364 31373 31372 31341 31267 31249 31259 31254 31269 31286 31276 31300 31317 31319 31343 31358 31380 31417 31432 31471 31485 31493 31438 31406 31387 31397 31400 31414 31410 31421 31419 31430 31445 31459 31476 31514 31513 31539 31563 31582 31554 31496 31494 31476 31494 31525 31530 31531 31551 31573 31583 31598 31612 31638 31639 31674 31699 31703 31691 31611 31569 31538 31494 31486 31485 31477 31476 31457 31457 31464 31451 31469 31494 31505 31527 31540 31523 31493 31441 31396 31379 31353 31359 31351 31329 31337 31322 31331 31339 31354 31349 31374 31383 31416 31421 31452 31408 31341 31269 31261 31253 31238 31250 31238 31239 31256 31262 31291 31309 31338 31362 31394 31401 31419 31443 31439 31383 31327 31300 31263 31251 31256 31280 31276 31277 31278 31304 31315 31328 31358 31369 31394 31407 31445 31474 31477 31451 31381 31354 31338 31325 31332 31339 31338 31343 31347 31359 31351 31373 31391 31427 31452 31465 31503 31535 31554 31544 31500 31458 31436 31439 31413 31449 31455 31444 31446 31456 31449 31497 31527 31538 31553 31565 31595 31625 31657 31661 31675 31657 31630 31610 31631 31631 31645 31675 31669 31682 31705 31710 31727 31768 31778 31826 31834 31835 31849 31865 31849 31838 31794 31779 31783 31789 31793 31809 31817 31807 31822 31825 31854 31865 31897 31889 31910 31938 31932 31906 31863 31829 31833 31830 31827 31827 31833 31832 31835 31827 31855 31876 31898 31916 31949 31962 31986 31994 31962 31927 31910 31928 31907 31910 31916 31961 31933 31952 31951 31954 31957 31982 32008 32013 32037 32026 32027 31969 31929 31909 31914 31897 31917 31915 31908 31910 31917 31941 31944 31966 31972 31989 32002 32007 32033 32005 31992 31969 31957 31942 31947 31941 31964 31956 31978 31983 31992 31996 32019 32028 32040 32044 32064 32044 32014 31985 31965 31972 31974 31966 31994 31989 31974 31974 31977 32009 32016 32007 32038 32053 32061 32050 32006 31995 31970 31953 31954 31977 31974 31964 31986 31985 31979 32007 32021 32024 32047 32038 32059 32059 32032 32007 31990 31994 31979 31989 31991 31991 31999 31995 32005 32018 32031 32033 32052 32078 32094 32113 32116 32092 32070 32030 32033 32048 32040 32058 32055 32040 32055 32076 32080 32095 32108 32144 32132 32143 32163 32157 32150 32126 32122 32104 32134 32112 32141 32140 32143 32154 32163 32182 32193 32213 32225 32245 32237 32248 32265 32246 32235 32214 32221 32201 32207 32193 32201 32209 32208 32229 32235 32225 32245 32246 32271 32273 32296 32309 32319 32313 32313 32299 32261 32251 32259 32253 32276 32251 32244 32278 32271 32279 32300 32315 32293 32314 32336 32344 32347 32372 32361 32331 32315 32300 32295 32280 32270 32269 32261 32264 32271 32265 32279 32283 32304 32305 32321 32341 32364 32351 32349 32327 32291 32279 32266 32256 32258 32283 32267 32243 32263 32267 32263 32274 32281 32286 32292 32282 32300 32296 32259 32219 32199 32183 32171 32172 32162 32151 32147 32166 32170 32152 32175 32170 32192 32184 32210 32214 32208 32155 32115 32100 32066 32059 32034 32033 32044 32020 31997 31988 31997 32000 31999 31980 32000 31989 32002 31998 31925 31887 31837 31805 31791 31777 31774 31759 31743 31748 31733 31747 31749 31758 31773 31755 31768 31791 31782 31726 31651 31597 31592 31549 31535 31505 31502 31487 31463 31473 31458 31475 31488 31483 31506 31515 31510 31542 31550 31542 31500 31432 31418 31390 31404 31389 31397 31378 31353 31359 31380 31375 31395 31408 31432 31440 31468 31473 31475 31479 31435 31376 31318 31297 31274 31270 31275 31269 31269 31268 31272 31295 31304 31329 31346 31351 31376 31401 31406 31432 31450 31400 31332 31284 31258 31263 31238 31256 31264 31254 31234 31255 31274 31279 31290 31302 31315 31344 31379 31380 31398 31354 31304 31253 31228 31234 31209 31195 31208 31213 31202 31200 31217 31228 31258 31256 31278 31298 31315 31338 31352 31356 31283 31219 31201 31197 31179 31169 31184 31169 31167 31162 31163 31184 31207 31235 31207 31247 31267 31284 31298 31308 31261 31215 31141 31138 31135 31148 31130 31119 31119 31128 31113 31141 31138 31170 31179 31207 31232 31229 31260 31269 31223 31144 31120 31113 31098 31103 31109 31109 31087 31087 31106 31105 31129 31167 31177 31195 31215 31231 31252 31245 31184 31132 31114 31089 31112 31114 31117 31103 31099 31117 31115 31120 31146 31169 31190 31198 31212 31229 31227 31181 31128 31103 31071 31087 31092 31079 31089 31080 31068 31088 31121 31125 31132 31158 31170 31211 31214 31217 31147 31091 31065 31049 31067 31079 31074 31070 31073 31081 31101 31092 31113 31130 31153 31170 31158 31185 31149 31081 31022 30991 30985 30974 30988 30992 30968 30964 30973 30967 30994 30999 31027 31042 31034 31077 31073 31022 30974 30910 30883 30894 30888 30892 30897 30887 30884 30878 30905 30913 30932 30953 30982 30996 30993 31024 30957 30888 30847 30837 30834 30874 30862 30863 30881 30875 30881 30920 30939 30961 30985 31000 31037 31070 31056 31024 30963 30930 30906 30932 30943 30942 30940 30954 30948 30955 30983 30981 31019 31046 31061 31073 31095 31016 30974 30946 30937 30952 30943 30957 30935 30941 30953 30973 30986 31003 31022 31043 31076 31078 31042 30966 30918 30908 30905 30898 30890 30912 30899 30897 30911 30920 30955 30976 31001 31009 31033 31008 30946 30892 30861 30830 30814 30827 30829 30830 30823 30843 30867 30865 30878 30904 30940 30966 30970 30922 30869 30826 30787 30776 30766 30769 30772 30763 30786 30786 30800 30837 30845 30879 30889 30919 30929 30890 30823 30760 30737 30717 30697 30708 30728 30715 30722 30746 30751 30776 30783 30809 30826 30858 30892 30891 30863 30786 30739 30711 30669 30695 30687 30684 30689 30708 30716 30737 30755 30787 30790 30809 30851 30880 30905 30924 30929 30874 30826 30794 30765 30759 30765 30782 30800 30794 30810 30812 30844 30873 30906 30924 30934 30967 30987 31015 31037 31014 30958 30928 30896 30893 30912 30915 30926 30927 30931 30966 30974 31002 31012 31051 31074 31100 31123 31158 31178 31177 31125 31076 31051 31009 30985 30993 30999 31009 30997 31018 31014 31034 31091 31097 31138 31168 31189 31234 31261 31308 31289 31241 31199 31184 31162 31160 31171 31174 31186 31174 31188 31213 31216 31243 31277 31293 31318 31342 31365 31384 31386 31318 31285 31266 31263 31247 31255 31255 31272 31261 31268 31287 31318 31329 31337 31346 31393 31399 31426 31442 31464 31429 31394 31348 31333 31327 31316 31330 31326 31327 31315 31334 31347 31379 31385 31400 31432 31443 31479 31503 31530 31531 31523 31448 31440 31396 31379 31381 31372 31383 31400 31396 31399 31394 31424 31447 31434 31468 31465 31507 31506 31545 31548 31497 31459 31428 31437 31431 31425 31425 31439 31438 31447 31467 31479 31483 31505 31537 31529 31554 31573 31620 31613 31566 31529 31534 31519 31487 31511 31533 31512 31530 31553 31547 31577 31602 31619 31644 31652 31686 31705 31716 31702 31682 31657 31652 31656 31667 31672 31685 31675 31684 31700 31729 31740 31753 31754 31774 31777 31804 31765 31687 31673 31657 31659 31653 31644 31655 31654 31655 31685 31687 31692 31708 31726 31739 31772 31759 31735 31687 31649 31652 31646 31675 31651 31669 31675 31672 31703 31730 31732 31770 31769 31804 31790 31759 31716 31698 31680 31701 31703 31708 31689 31691 31680 31698 31712 31707 31728 31751 31735 31728 31686 31654 31628 31608 31609 31644 31625 31641 31656 31641 31649 31669 31692 31708 31730 31711 31676 31625 31602 31606 31588 31590 31589 31605 31603 31611 31616 31632 31611 31668 31658 31711 31679 31652 31619 31577 31596 31582 31586 31595 31594 31605 31622 31624 31632 31652 31671 31676 31669 31697 31709 31678 31638 31650 31609 31597 31622 31630 31634 31614 31641 31632 31668 31689 31708 31712 31742 31751 31775 31758 31718 31691 31676 31640 31625 31617 31639 31611 31598 31615 31623 31643 31655 31654 31684 31717 31723 31727 31699 31713 31698 31699 31709 31731 31739 31760 31760 31798 31805 31826 31838 31854 31887 31888 31907 31935 31943 31954 31928 31908 31899 31885 31888 31906 31925 31932 31941 31930 31953 31980 31966 31988 32014 32008 32033 32046 32083 32096 32093 32067 32062 32048 32041 32032 32027 32060 32028 32036 32048 32040 32060 32075 32111 32101 32143 32162 32153 32186 32198 32192 32177 32147 32141 32137 32122 32128 32150 32141 32150 32147 32181 32180 32189 32196 32210 32230 32255 32243 32282 32296 32301 32340 32302 32292 32253 32256 32216 32223 32208 32228 32212 32205 32206 32218 32217 32228 32232 32259 32258 32271 32273 32286 32289 32305 32327 32324 32289 32271 32254 32237 32227 32213 32240 32231 32220 32223 32234 32230 32250 32261 32276 32283 32292 32306 32321 32323 32340 32362 32340 32314 32271 32246 32250 32247 32252 32241 32230 32242 32238 32215 32234 32232 32247 32272 32282 32288 32289 32306 32320 32326 32292 32263 32218 32214 32213 32205 32211 32191 32194 32183 32183 32186 32188 32196 32198 32218 32222 32236 32236 32242 32253 32195 32161 32132 32099 32092 32107 32089 32105 32072 32070 32051 32051 32060 32064 32070 32087 32083 32095 32111 32122 32098 32034 31986 31947 31939 31914 31916 31885 31876 31869 31873 31861 31878 31883 31875 31887 31881 31890 31898 31917 31899 31832 31769 31743 31713 31709 31702 31728 31708 31694 31676 31703 31703 31711 31730 31716 31730 31733 31761 31756 31697 31659 31605 31588 31550 31549 31544 31544 31533 31520 31512 31510 31516 31527 31538 31546 31555 31571 31582 31559 31498 31437 31392 31380 31365 31338 31356 31348 31325 31337 31321 31352 31346 31358 31360 31382 31373 31399 31367 31286 31213 31176 31149 31129 31113 31125 31119 31099 31096 31093 31115 31127 31120 31148 31158 31152 31128 31052 30999 30963 30943 30925 30937 30928 30901 30900 30901 30912 30915 30906 30921 30943 30932 30947 30933 30851 30794 30710 30684 30651 30659 30645 30658 30654 30654 30682 30699 30719 30730 30774 30791 30806 30821 30789 30711 30655 30639 30610 30614 30623 30611 30615 30635 30653 30659 30671 30697 30705 30717 30779 30806 30802 30743 30675 30636 30603 30604 30606 30601 30605 30595 30601 30636 30636 30651 30690 30733 30758 30774 30791 30838 30839 30788 30699 30700 30662 30667 30679 30683 30679 30697 30709 30687 30701 30722 30711 30721 30729 30757 30780 30768 30731 30669 30663 30660 30660 30701 30730 30724 30754 30781 30806 30832 30861 30887 30927 30965 30988 30987 30977 30906 30855 30843 30843 30828 30846 30851 30836 30846 30874 30893 30891 30934 30982 30998 31022 31042 31078 31070 31008 30958 30932 30922 30900 30912 30932 30917 30929 30956 30976 30988 31000 31039 31060 31080 31111 31147 31173 31192 31161 31116 31095 31054 31036 31051 31048 31065 31085 31079 31098 31137 31159 31166 31188 31223 31256 31264 31307 31334 31354 31338 31278 31245 31208 31218 31206 31222 31246 31240 31248 31236 31260 31285 31310 31344 31361 31379 31426 31431 31440 31477 31483 31458 31398 31387 31343 31364 31360 31372 31380 31380 31391 31397 31426 31453 31451 31482 31503 31519 31546 31566 31606 31626 31626 31572 31525 31498 31511 31505 31514 31503 31502 31514 31544 31543 31542 31585 31611 31611 31647 31682 31687 31705 31724 31738 31713 31664 31652 31633 31625 31619 31652 31645 31666 31657 31656 31669 31683 31698 31727 31728 31767 31780 31803 31816 31841 31837 31785 31755 31742 31734 31729 31738 31734 31735 31756 31750 31771 31782 31793 31805 31817 31850 31853 31868 31889 31910 31924 31892 31824 31822 31817 31810 31812 31810 31801 31795 31825 31838 31834 31841 31853 31893 31904 31930 31927 31945 31964 31986 31928 31881 31850 31826 31811 31828 31821 31804 31794 31808 31817 31836 31851 31850 31867 31877 31890 31903 31936 31951 31912 31872 31832 31798 31797 31775 31763 31778 31763 31776 31764 31766 31782 31788 31794 31797 31839 31835 31855 31860 31858 31829 31764 31716 31704 31698 31696 31677 31672 31665 31650 31652 31665 31660 31689 31677 31711 31716 31743 31739 31761 31716 31667 31626 31597 31598 31582 31595 31574 31581 31590 31581 31602 31599 31604 31627 31630 31655 31689 31685 31697 31693 31625 31584 31542 31524 31516 31508 31507 31506 31500 31499 31506 31520 31546 31542 31553 31573 31585 31596 31622 31610 31567 31514 31486 31450 31442 31452 31432 31450 31439 31447 31452 31467 31488 31502 31503 31531 31542 31551 31582 31596 31585 31538 31496 31456 31443 31434 31450 31451 31460 31467 31473 31483 31477 31512 31516 31538 31567 31572 31612 31642 31657 31654 31614 31564 31559 31569 31564 31573 31585 31581 31588 31590 31626 31652 31649 31660 31679 31720 31742 31762 31764 31763 31733 31695 31686 31678 31682 31686 31694 31716 31715 31714 31740 31730 31739 31765 31775 31799 31808 31839 31851 31839 31813 31776 31746 31737 31723 31723 31743 31750 31743 31751 31753 31789 31802 31815 31828 31849 31854 31875 31891 31906 31896 31847 31815 31803 31773 31792 31796 31797 31791 31794 31796 31796 31819 31831 31868 31867 31870 31900 31906 31935 31957 31956 31931 31890 31861 31828 31833 31814 31819 31823 31816 31814 31818 31826 31838 31864 31881 31878 31906 31917 31923 31941 31968 31950 31889 31862 31833 31805 31804 31797 31794 31800 31807 31803 31813 31821 31835 31850 31866 31906 31889 31910 31939 31947 31973 31987 31962 31910 31903 31876 31871 31877 31875 31890 31875 31877 31903 31901 31900 31924 31938 31953 31953 31962 31963 32003 32012 32047 32036 32011 31988 31996 31989 32004 32017 32038 32048 32075 32076 32095 32108 32131 32137 32159 32175 32195 32211 32234 32249 32243 32212 32183 32168 32155 32169 32169 32172 32160 32169 32181 32200 32201 32232 32246 32273 32264 32296 32316 32305 32347 32333 32309 32275 32237 32228 32197 32217 32222 32190 32198 32213 32199 32221 32217 32251 32242 32267 32278 32310 32318 32341 32326 32317 32287 32258 32224 32237 32219 32225 32208 32220 32208 32228 32235 32222 32227 32243 32258 32251 32269 32292 32246 32187 32155 32133 32115 32092 32091 32087 32080 32090 32076 32086 32085 32100 32105 32112 32109 32138 32144 32151 32101 32054 31986 31956 31928 31914 31915 31912 31895 31893 31889 31889 31905 31911 31918 31929 31922 31959 31975 31970 31941 31876 31803 31736 31748 31733 31735 31731 31724 31703 31727 31745 31760 31784 31817 31837 31864 31903 31936 31969 31954 31904 31864 31855 31851 31870 31873 31867 31859 31872 31893 31903 31899 31926 31946 31950 31982 31994 32004 31993 31946 31863 31827 31817 31795 31791 31811 31788 31783 31780 31790 31794 31799 31814 31844 31842 31881 31873 31860 31821 31743 31673 31629 31614 31593 31600 31594 31593 31570 31585 31588 31587 31616 31629 31666 31688 31737 31765 31788 31727 31646 31569 31553 31535 31539 31548 31567 31544 31554 31570 31564 31596 31608 31619 31663 31669 31713 31726 31716 31671 31587 31540 31529 31523 31530 31528 31546 31515 31540 31543 31571 31599 31618 31632 31674 31693 31702 31726 31687 31599 31543 31513 31506 31507 31522 31513 31526 31513 31537 31538 31559 31592 31604 31622 31651 31665 31698 31695 31638 31521 31492 31458 31464 31479 31470 31462 31478 31480 31489 31498 31513 31548 31575 31587 31609 31639 31636 31563 31460 31383 31348 31346 31345 31359 31360 31342 31330 31336 31368 31374 31419 31425 31461 31470 31485 31520 31433 31321 31257 31218 31186 31188 31196 31199 31164 31176 31178 31188 31214 31244 31247 31277 31289 31326 31336 31296 31180 31084 31044 31040 31043 31022 31038 31031 31004 31005 31037 31044 31070 31102 31104 31133 31163 31178 31197 31126 31011 30953 30911 30916 30915 30928 30912 30909 30914 30925 30947 30976 31006 31040 31068 31088 31105 31157 31191 31087 30977 30893 30833 30790 30794 30786 30759 30738 30715 30708 30694 30683 30670 30648 30645 30658 30681 30679 30638 30521 30380 30305 30241 30205 30170 30174 30145 30127 30138 30135 30155 30177 30204 30234 30250 30292 30318 30358 30332 30236 30120 30075 30047 30052 30051 30094 30064 30078 30093 30115 30146 30199 30223 30264 30304 30338 30373 30394 30318 30198 30129 30111 30115 30146 30163 30150 30155 30160 30179 30213 30224 30277 30304 30354 30380 30417 30370 30260 30175 30120 30102 30100 30127 30135 30120 30140 30154 30175 30193 30246 30287 30309 30328 30387 30361 30267 30135 30062 30044 30031 30031 30027 30037 30035 30046 30068 30087 30124 30143 30189 30223 30248 30264 30180 30058 29977 29913 29899 29899 29885 29892 29880 29876 29901 29952 29954 29987 30045 30064 30126 30143 30127 30026 29936 29876 29858 29850 29869 29883 29886 29900 29907 29934 29982 30026 30043 30083 30110 30163 30205 30151 30031 29973 29925 29902 29911 29941 29953 29958 29974 30000 30035 30054 30111 30159 30188 30243 30306 30330 30312 30219 30135 30108 30080 30082 30114 30130 30128 30156 30164 30197 30234 30278 30320 30363 30413 30441 30458 30398 30287 30234 30190 30197 30211 30210 30219 30240 30236 30262 30291 30328 30369 30391 30450 30485 30542 30543 30444 30369 30320 30270 30263 30262 30297 30290 30310 30312 30352 30379 30416 30482 30491 30544 30576 30618 30633 30589 30489 30423 30398 30363 30386 30406 30410 30427 30446 30472 30489 30540 30574 30610 30650 30680 30737 30776 30808 30797 30704 30656 30627 30611 30615 30625 30648 30652 30668 30705 30720 30742 30784 30839 30878 30915 30936 30985 31019 30966 30892 30844 30836 30817 30830 30834 30865 30862 30873 30907 30937 30955 30998 31024 31059 31090 31130 31172 31171 31099 31028 31002 30975 30945 30957 30964 30974 31001 30981 31018 31050 31073 31111 31139 31178 31203 31231 31268 31279 31221 31145 31105 31091 31072 31093 31086 31108 31138 31133 31160 31165 31200 31256 31277 31290 31318 31377 31394 31412 31392 31333 31275 31264 31253 31258 31273 31282 31289 31287 31302 31319 31340 31357 31389 31412 31427 31445 31484 31485 31404 31329 31284 31255 31241 31242 31216 31209 31222 31225 31219 31242 31267 31265 31291 31324 31339 31352 31380 31350 31290 31208 31168 31142 31150 31144 31137 31158 31161 31157 31168 31181 31221 31254 31265 31301 31337 31343 31376 31305 31262 31205 31192 31191 31184 31194 31188 31217 31228 31228 31247 31264 31307 31325 31346 31398 31397 31418 31372 31295 31235 31234 31222 31226 31237 31235 31231 31228 31233 31261 31275 31317 31336 31352 31382 31405 31367 31310 31238 31182 31166 31150 31170 31170 31173 31157 31175 31173 31198 31231 31249 31263 31292 31309 31325 31259 31180 31131 31096 31086 31081 31072 31096 31103 31108 31116 31134 31160 31185 31226 31244 31273 31312 31310 31238 31204 31167 31149 31141 31145 31159 31175 31178 31195 31232 31231 31277 31291 31336 31353 31408 31434 31468 31405 31355 31322 31325 31314 31301 31317 31335 31337 31347 31383 31394 31418 31433 31466 31477 31532 31541 31521 31444 31425 31386 31396 31404 31394 31398 31430 31436 31454 31464 31487 31502 31553 31553 31574 31611 31638 31585 31525 31489 31480 31473 31473 31477 31497 31495 31523 31528 31555 31558 31593 31628 31641 31674 31689 31719 31673 31620 31600 31575 31569 31565 31583 31591 31596 31595 31595 31630 31649 31665 31695 31719 31740 31763 31785 31790 31736 31692 31670 31657 31659 31660 31658 31681 31681 31685 31697 31722 31736 31739 31770 31802 31828 31836 31851 31829 31767 31753 31726 31724 31723 31721 31743 31742 31749 31742 31766 31777 31795 31815 31835 31863 31878 31927 31927 31902 31821 31803 31773 31803 31789 31812 31802 31789 31792 31806 31837 31862 31876 31889 31910 31937 31953 32002 31958 31918 31862 31840 31830 31828 31836 31833 31829 31847 31840 31855 31859 31885 31907 31906 31932 31946 31962 31957 31894 31820 31814 31792 31807 31797 31805 31794 31808 31801 31818 31830 31827 31848 31873 31897 31903 31925 31878 31808 31751 31715 31703 31713 31699 31692 31666 31667 31673 31670 31685 31694 31707 31732 31767 31768 31769 31726 31650 31586 31563 31547 31546 31526 31535 31533 31533 31529 31531 31537 31555 31590 31574 31608 31622 31610 31527 31482 31425 31398 31386 31396 31383 31376 31384 31382 31374 31399 31413 31419 31424 31451 31461 31424 31355 31297 31270 31246 31231 31243 31224 31219 31197 31218 31228 31253 31263 31286 31302 31317 31336 31296 31235 31162 31117 31113 31109 31118 31103 31094 31091 31089 31103 31132 31161 31165 31174 31229 31212 31159 31112 31046 31045 31023 31014 31033 31032 31016 31046 31070 31061 31096 31116 31117 31173 31182 31153 31098 31057 31030 31030 31015 31057 31043 31053 31068 31076 31098 31114 31153 31159 31207 31232 31217 31189 31131 31115 31102 31111 31109 31131 31133 31146 31159 31178 31231 31245 31258 31279 31315 31341 31338 31295 31263 31251 31233 31245 31250 31272 31276 31285 31301 31317 31343 31343 31392 31405 31425 31448 31420 31372 31350 31342 31343 31332 31361 31377 31381 31389 31395 31437 31471 31473 31497 31522 31539 31579 31554 31508 31481 31440 31452 31447 31447 31487 31479 31505 31499 31513 31543 31553 31595 31614 31635 31656 31679 31663 31606 31569 31556 31546 31548 31570 31582 31603 31618 31616 31650 31676 31697 31720 31752 31791 31817 31842 31843 31826 31779 31780 31766 31768 31782 31788 31797 31783 31800 31775 31794 31794 31809 31831 31851 31859 31855 31817 31772 31751 31729 31718 31734 31733 31736 31747 31753 31766 31760 31781 31815 31815 31861 31870 31880 31869 31836 31798 31771 31769 31776 31775 31797 31786 31800 31817 31824 31840 31860 31890 31923 31948 31954 31977 31934 31900 31854 31848 31836 31844 31823 31827 31826 31830 31836 31852 31870 31870 31888 31907 31908 31945 31954 31959 31914 31898 31875 31866 31876 31868 31883 31880 31880 31893 31888 31924 31942 31951 31963 31988 32021 32023 32027 32006 31993 31956 31958 31954 31953 31962 31968 31968 31980 32002 32011 32015 32045 32059 32079 32103 32113 32142 32157 32150 32098 32091 32084 32076 32088 32079 32094 32117 32108 32126 32139 32150 32168 32172 32192 32196 32228 32228 32221 32174 32144 32123 32123 32123 32125 32130 32131 32120 32137 32150 32147 32170 32176 32207 32208 32225 32218 32205 32154 32109 32072 32084 32085 32067 32049 32043 32074 32076 32092 32069 32090 32090 32120 32129 32150 32152 32146 32103 32054 32023 32029 31998 32011 32023 32026 31999 31991 32000 32009 32040 32027 32072 32080 32090 32107 32089 32025 31979 31949 31906 31903 31894 31885 31884 31886 31880 31873 31895 31879 31899 31902 31897 31927 31943 31908 31861 31788 31749 31701 31679 31682 31681 31655 31631 31627 31636 31625 31625 31650 31653 31672 31676 31701 31716 31684 31615 31546 31507 31473 31455 31453 31444 31432 31425 31424 31419 31440 31447 31477 31477 31494 31511 31532 31557 31570 31506 31447 31389 31376 31362 31356 31359 31358 31356 31340 31336 31364 31369 31394 31405 31435 31464 31467 31486 31500 31455 31394 31357 31320 31332 31323 31335 31317 31319 31334 31348 31364 31384 31384 31401 31438 31467 31475 31504 31532 31514 31466 31415 31359 31357 31358 31339 31345 31363 31350 31360 31344 31359 31389 31416 31435 31441 31479 31498 31519 31553 31533 31488 31425 31396 31389 31381 31367 31366 31371 31364 31381 31394 31403 31418 31436 31450 31467 31514 31521 31541 31582 31586 31533 31487 31442 31438 31441 31416 31431 31440 31434 31432 31432 31453 31467 31476 31498 31521 31539 31551 31565 31591 31538 31484 31436 31422 31424 31427 31424 31409 31418 31408 31419 31453 31468 31477 31492 31514 31541 31575 31576 31617 31582 31516 31454 31441 31411 31392 31407 31398 31400 31403 31386 31397 31434 31417 31439 31442 31474 31486 31500 31513 31535 31490 31428 31371 31348 31335 31322 31318 31321 31321 31309 31320 31346 31346 31355 31384 31415 31415 31443 31476 31492 31479 31429 31365 31341 31316 31301 31304 31298 31294 31290 31299 31301 31309 31338 31352 31363 31365 31413 31404 31417 31371 31302 31244 31230 31214 31224 31220 31216 31223 31222 31211 31246 31256 31263 31295 31304 31333 31337 31369 31380 31347 31259 31221 31194 31152 31155 31155 31154 31161 31160 31157 31178 31172 31208 31226 31248 31262 31284 31301 31308 31264 31193 31136 31108 31094 31097 31082 31094 31102 31071 31097 31093 31127 31152 31162 31172 31198 31229 31232 31251 31214 31147 31119 31088 31073 31065 31067 31082 31087 31075 31080 31097 31120 31140 31150 31186 31198 31229 31253 31255 31192 31136 31077 31051 31052 31051 31065 31049 31050 31061 31084 31101 31119 31147 31182 31213 31212 31258 31253 31280 31245 31202 31145 31127 31083 31093 31090 31075 31101 31101 31119 31114 31163 31178 31204 31210 31235 31248 31287 31307 31317 31274 31207 31177 31161 31145 31146 31131 31146 31144 31137 31147 31168 31174 31212 31221 31248 31267 31292 31322 31320 31268 31243 31186 31179 31164 31162 31180 31174 31183 31198 31197 31217 31253 31270 31277 31344 31349 31364 31399 31437 31387 31331 31292 31254 31257 31233 31247 31252 31250 31246 31266 31261 31283 31301 31353 31350 31388 31404 31412 31446 31450 31411 31357 31327 31298 31296 31319 31313 31303 31289 31304 31323 31333 31345 31362 31380 31397 31399 31409 31417 31418 31364 31307 31270 31246 31223 31218 31204 31210 31206 31209 31213 31228 31246 31260 31277 31302 31329 31341 31323 31295 31252 31200 31206 31185 31193 31191 31183 31204 31219 31239 31233 31255 31280 31308 31337 31362 31387 31378 31291 31244 31218 31192 31190 31186 31183 31161 31165 31171 31185 31201 31206 31244 31254 31268 31310 31327 31305 31236 31182 31143 31129 31130 31104 31130 31118 31118 31119 31145 31147 31179 31207 31212 31265 31273 31303 31279 31219 31184 31149 31127 31126 31104 31114 31131 31128 31142 31150 31158 31184 31210 31231 31260 31285 31277 31224 31147 31118 31099 31088 31103 31106 31110 31107 31138 31144 31160 31193 31219 31236 31277 31299 31323 31265 31208 31172 31123 31123 31115 31128 31134 31127 31140 31163 31172 31186 31216 31229 31256 31288 31310 31304 31254 31201 31165 31147 31141 31138 31155 31161 31164 31165 31192 31204 31224 31261 31272 31299 31325 31349 31336 31288 31249 31222 31203 31216 31205 31218 31228 31230 31240 31274 31276 31300 31313 31365 31387 31411 31435 31436 31385 31362 31334 31325 31319 31331 31332 31328 31345 31342 31355 31372 31405 31412 31444 31453 31485 31493 31456 31435 31392 31391 31392 31389 31373 31409 31418 31425 31441 31460 31483 31516 31530 31549 31568 31596 31606 31587 31523 31517 31488 31481 31464 31477 31504 31510 31508 31529 31525 31547 31571 31596 31602 31640 31660 31685 31687 31662 31624 31578 31561 31545 31544 31562 31564 31561 31556 31581 31586 31623 31639 31648 31675 31701 31717 31741 31770 31753 31701 31675 31641 31636 31625 31645 31635 31657 31649 31665 31665 31687 31694 31728 31748 31773 31804 31811 31842 31863 31823 31790 31770 31750 31765 31767 31778 31776 31794 31806 31799 31817 31826 31865 31853 31895 31911 31923 31936 31948 31927 31887 31849 31818 31827 31842 31847 31837 31849 31852 31856 31858 31902 31911 31919 31921 31964 31987 32003 32008 31963 31929 31875 31857 31832 31823 31817 31821 31819 31823 31829 31832 31844 31847 31876 31895 31902 31908 31946 31936 31902 31876 31799 31768 31756 31760 31762 31735 31746 31721 31730 31733 31749 31754 31770 31777 31800 31828 31809 31850 31840 31786 31744 31695 31660 31643 31642 31641 31648 31640 31630 31623 31622 31645 31647 31657 31686 31701 31721 31715 31686 31617 31553 31559 31521 31513 31525 31514 31512 31505 31512 31539 31528 31550 31549 31591 31593 31612 31622 31588 31496 31437 31407 31389 31383 31359 31360 31365 31344 31370 31351 31376 31378 31394 31410 31442 31455 31462 31417 31354 31288 31244 31232 31234 31238 31241 31224 31231 31223 31243 31266 31276 31309 31325 31344 31376 31374 31341 31260 31220 31175 31170 31154 31160 31157 31150 31176 31158 31159 31187 31204 31203 31246 31253 31276 31239 31158 31110 31076 31077 31063 31051 31052 31067 31076 31063 31098 31103 31130 31165 31192 31198 31225 31225 31162 31115 31066 31039 31015 31019 31014 31018 31025 31033 31037 31081 31085 31109 31127 31154 31159 31210 31217 31179 31116 31068 31049 31039 31033 31043 31075 31073 31069 31093 31104 31124 31159 31169 31204 31231 31269 31277 31265 31199 31160 31137 31130 31147 31149 31165 31162 31169 31187 31204 31221 31255 31268 31270 31319 31351 31365 31309 31247 31197 31185 31184 31208 31200 31216 31238 31237 31241 31286 31304 31323 31347 31386 31410 31435 31443 31380 31317 31289 31288 31287 31277 31287 31290 31300 31301 31308 31333 31357 31385 31407 31415 31452 31482 31506 31484 31431 31366 31358 31340 31338 31331 31351 31367 31380 31377 31386 31410 31441 31456 31483 31496 31528 31554 31592 31557 31493 31445 31431 31426 31409 31427 31433 31430 31448 31443 31478 31512 31512 31538 31550 31576 31600 31616 31602 31556 31509 31468 31480 31486 31487 31491 31511 31512 31499 31527 31564 31590 31593 31600 31628 31635 31657 31680 31644 31593 31535 31497 31496 31500 31502 31514 31519 31509 31525 31538 31557 31578 31592 31611 31640 31658 31661 31681 31633 31562 31528 31494 31485 31511 31505 31502 31500 31496 31516 31534 31545 31568 31594 31634 31648 31672 31681 31691 31680 31615 31584 31553 31550 31553 31568 31576 31581 31587 31572 31578 31617 31623 31636 31627 31665 31662 31616 31563 31507 31490 31484 31492 31495 31467 31482 31482 31497 31509 31526 31553 31552 31570 31593 31601 31636 31568 31506 31431 31393 31376 31357 31358 31360 31320 31316 31323 31318 31342 31336 31369 31361 31369 31384 31375 31305 31232 31180 31138 31115 31114 31106 31109 31120 31105 31123 31122 31146 31172 31177 31203 31240 31263 31217 31169 31084 31057 31010 30998 31020 31003 30968 30975 30964 30967 30977 31007 31021 31052 31040 31068 31045 31001 30916 30858 30831 30815 30828 30839 30836 30849 30846 30859 30883 30918 30926 30956 30984 31021 31047 31036 30998 30927 30878 30865 30862 30882 30887 30898 30896 30910 30918 30937 30963 30994 31015 31052 31077 31099 31112 31051 30982 30949 30926 30934 30956 30957 30945 30956 30947 30957 30986 31011 31023 31066 31075 31113 31104 31038 30974 30937 30915 30908 30914 30911 30894 30904 30915 30930 30964 30970 30998 31043 31070 31107 31095 31014 30931 30900 30885 30879 30876 30885 30898 30877 30906 30901 30933 30960 31011 31056 31087 31106 31087 31040 31001 31001 30996 31027 31040 31034 31076 31060 31078 31090 31119 31139 31182 31220 31253 31270 31262 31205 31177 31119 31103 31102 31117 31129 31123 31120 31122 31130 31150 31183 31189 31203 31214 31266 31259 31229 31149 31116 31078 31076 31083 31076 31090 31087 31099 31089 31109 31124 31169 31186 31203 31227 31249 31215 31185 31104 31073 31033 31048 31035 31041 31044 31040 31046 31077 31105 31113 31151 31181 31201 31233 31269 31265 31229 31158 31135 31129 31137 31148 31140 31169 31146 31161 31191 31187 31220 31244 31260 31290 31291 31330 31291 31262 31195 31189 31183 31193 31200 31216 31229 31251 31258 31271 31289 31330 31336 31380 31414 31428 31463 31425 31384 31332 31319 31326 31330 31340 31341 31344 31353 31362 31369 31404 31432 31425 31474 31488 31507 31550 31545 31492 31445 31423 31409 31412 31420 31453 31445 31442 31447 31478 31489 31513 31515 31533 31557 31580 31608 31626 31621 31567 31526 31510 31516 31511 31521 31552 31550 31552 31566 31583 31605 31621 31626 31656 31678 31709 31717 31747 31754 31713 31672 31656 31638 31635 31646 31676 31667 31674 31677 31693 31706 31728 31755 31758 31776 31770 31810 31802 31769 31705 31690 31667 31659 31668 31670 31667 31678 31676 31682 31674 31693 31725 31753 31776 31800 31827 31833 31825 31790 31723 31691 31664 31670 31662 31655 31660 31645 31662 31649 31647 31663 31682 31706 31704 31723 31751 31751 31729 31676 31636 31610 31583 31589 31608 31607 31602 31604 31610 31619 31621 31635 31653 31681 31688 31721 31747 31711 31647 31610 31579 31552 31544 31526 31529 31509 31489 31499 31510 31523 31529 31545 31570 31594 31610 31606 31578 31521 31476 31414 31410 31386 31405 31393 31390 31381 31374 31398 31404 31402 31429 31440 31426 31431 31444 31428 31373 31317 31250 31226 31217 31195 31209 31200 31205 31200 31225 31243 31254 31286 31295 31345 31354 31380 31418 31419 31348 31297 31243 31238 31232 31244 31220 31223 31225 31219 31244 31251 31291 31295 31322 31333 31361 31383 31377 31307 31252 31199 31173 31155 31167 31162 31179 31173 31179 31183 31200 31214 31243 31265 31261 31294 31340 31348 31317 31255 31207 31141 31111 31092 31092 31104 31115 31111 31107 31130 31128 31161 31185 31210 31236 31267 31271 31320 31304 31235 31159 31125 31098 31086 31094 31094 31088 31086 31095 31107 31131 31147 31181 31197 31231 31279 31300 31319 31327 31297 31211 31155 31157 31128 31130 31151 31153 31166 31163 31176 31189 31226 31219 31272 31305 31316 31332 31362 31384 31342 31294 31234 31218 31206 31222 31229 31240 31214 31249 31238 31252 31253 31300 31297 31317 31342 31371 31384 31366 31302 31261 31210 31211 31198 31205 31222 31215 31221 31228 31247 31255 31275 31299 31336 31360 31376 31404 31404 31364 31303 31262 31211 31209 31194 31198 31217 31214 31223 31224 31232 31239 31265 31286 31299 31333 31362 31386 31411 31356 31305 31260 31223 31207 31205 31205 31220 31234 31222 31235 31237 31253 31291 31297 31334 31347 31363 31400 31425 31404 31361 31313 31266 31263 31249 31255 31264 31275 31252 31257 31289 31310 31324 31341 31371 31409 31412 31428 31445 31422 31370 31310 31287 31282 31288 31292 31290 31306 31295 31306 31332 31336 31376 31389 31408 31418 31450 31472 31482 31478 31420 31366 31352 31319 31303 31307 31321 31330 31303 31322 31347 31368 31369 31410 31418 31437 31460 31500 31508 31540 31495 31435 31401 31384 31379 31373 31378 31374 31368 31382 31388 31398 31421 31411 31471 31464 31499 31508 31557 31561 31590 31545 31490 31460 31451 31422 31430 31455 31463 31462 31447 31471 31481 31504 31534 31560 31567 31582 31601 31638 31625 31601 31541 31520 31504 31508 31504 31505 31528 31526 31530 31543 31575 31594 31604 31621 31632 31677 31695 31720 31723 31710 31644 31618 31605 31563 31570 31572 31588 31600 31581 31624 31605 31636 31642 31673 31693 31729 31726 31764 31765 31788 31765 31721 31680 31647 31650 31628 31637 31656 31652 31653 31668 31659 31670 31702 31717 31715 31734 31757 31790 31806 31818 31792 31733 31700 31679 31661 31656 31666 31664 31671 31662 31664 31678 31679 31694 31734 31730 31768 31793 31804 31830 31822 31763 31707 31693 31678 31674 31671 31679 31687 31662 31673 31680 31694 31709 31719 31737 31753 31785 31797 31823 31821 31813 31739 31692 31656 31637 31629 31631 31625 31616 31608 31611 31621 31627 31646 31648 31682 31694 31715 31730 31749 31759 31706 31624 31590 31547 31523 31513 31505 31508 31477 31483 31482 31509 31508 31532 31562 31552 31596 31613 31637 31656 31632 31584 31522 31506 31455 31454 31457 31456 31464 31442 31455 31465 31477 31494 31521 31507 31520 31565 31587 31597 31596 31548 31489 31451 31436 31416 31417 31418 31394 31386 31411 31383 31402 31424 31447 31468 31480 31504 31528 31541 31511 31438 31389 31359 31327 31320 31301 31300 31299 31286 31304 31313 31338 31341 31369 31385 31399 31433 31457 31476 31439 31371 31330 31280 31272 31252 31254 31271 31266 31256 31273 31268 31296 31302 31347 31355 31380 31389 31431 31458 31440 31394 31335 31298 31272 31266 31262 31258 31281 31279 31277 31287 31318 31324 31345 31371 31395 31402 31414 31439 31461 31416 31360 31331 31314 31297 31274 31292 31305 31315 31303 31326 31339 31349 31380 31385 31427 31455 31462 31483 31517 31507 31431 31378 31351 31334 31317 31322 31339 31309 31336 31325 31345 31368 31379 31429 31440 31461 31480 31522 31535 31593 31567 31501 31437 31431 31412 31432 31415 31425 31433 31439 31468 31478 31487 31497 31538 31558 31608 31604 31635 31668 31674 31690 31647 31597 31575 31555 31542 31546 31577 31565 31569 31588 31578 31599 31606 31632 31673 31702 31692 31720 31750 31759 31726 31663 31644 31615 31626 31622 31637 31633 31629 31639 31640 31668 31693 31699 31723 31764 31792 31779 31818 31851 31853 31829 31768 31724 31706 31688 31699 31700 31703 31714 31698 31722 31735 31733 31757 31793 31813 31840 31853 31862 31876 31902 31863 31820 31790 31768 31753 31760 31745 31752 31759 31759 31754 31770 31789 31807 31828 31838 31885 31896 31908 31932 31906 31869 31833 31810 31808 31820 31800 31819 31811 31817 31827 31846 31851 31878 31878 31911 31931 31958 31987 31979 31919 31892 31873 31862 31865 31869 31897 31895 31899 31906 31916 31941 31973 31993 31995 32029 32049 32030 31986 31944 31914 31913 31895 31910 31915 31899 31882 31883 31913 31922 31925 31939 31954 31981 31988 31968 31920 31869 31808 31777 31747 31747 31732 31748 31744 31727 31731 31729 31726 31766 31775 31786 31812 31818 31840 31763 31701 31639 31612 31588 31546 31551 31544 31554 31541 31530 31555 31557 31569 31598 31616 31627 31658 31676 31665 31615 31547 31496 31445 31428 31435 31415 31422 31406 31423 31422 31405 31442 31443 31460 31491 31476 31519 31515 31545 31573 31516 31450 31391 31377 31347 31346 31355 31379 31375 31368 31369 31409 31432 31451 31455 31500 31520 31553 31578 31616 31617 31570 31545 31523 31495 31515 31512 31546 31546 31559 31574 31601 31597 31613 31655 31677 31729 31735 31752 31762 31772 31745 31727 31712 31691 31695 31721 31735 31746 31761 31769 31783 31805 31821 31834 31885 31896 31888 31945 31961 31965 31949 31913 31884 31908 31887 31903 31917 31919 31937 31959 31974 32005 32019 32053 32068 32096 32108 32146 32167 32185 32150 32120 32123 32126 32140 32135 32154 32159 32155 32153 32189 32202 32202 32219 32231 32264 32274 32289 32311 32314 32307 32271 32237 32246 32245 32246 32252 32275 32265 32265 32264 32278 32289 32310 32339 32332 32339 32371 32366 32390 32362 32314 32287 32280 32264 32250 32258 32237 32246 32262 32264 32268 32289 32302 32320 32344 32369 32392 32394 32369 32348 32304 32300 32295 32308 32328 32322 32311 32339 32343 32351 32345 32361 32374 32389 32400 32412 32409 32395 32355 32322 32295 32282 32270 32272 32271 32266 32265 32274 32274 32266 32280 32284 32306 32322 32340 32350 32325 32282 32221 32195 32172 32169 32165 32151 32146 32152 32149 32132 32154 32161 32183 32189 32207 32216 32222 32171 32125 32043 32006 32000 31999 31989 31997 31958 31946 31952 31925 31952 31955 31962 31977 32001 32004 32012 31961 31884 31822 31789 31773 31758 31747 31743 31738 31710 31730 31731 31735 31739 31741 31769 31783 31786 31809 31776 31703 31596 31551 31498 31500 31479 31471 31469 31439 31431 31421 31443 31427 31464 31457 31474 31477 31477 31453 31380 31270 31191 31123 31109 31111 31087 31080 31055 31066 31065 31091 31076 31101 31126 31136 31158 31170 31159 31086 31002 30949 30920 30931 30938 30926 30943 30930 30926 30945 30971 30976 31013 31021 31039 31076 31066 30996 30907 30861 30840 30822 30824 30847 30851 30839 30838 30842 30855 30894 30906 30946 30954 30996 30978 30862 30791 30735 30709 30725 30729 30722 30723 30732 30714 30737 30752 30785 30799 30825 30860 30855 30818 30730 30673 30634 30628 30621 30613 30641 30655 30648 30676 30670 30699 30727 30775 30801 30827 30777 30692 30635 30614 30603 30615 30634 30646 30631 30661 30671 30694 30709 30744 30767 30815 30828 30848 30778 30721 30689 30684 30672 30675 30711 30722 30721 30749 30762 30789 30825 30852 30888 30911 30968 30965 30939 30881 30830 30814 30813 30819 30841 30842 30862 30866 30890 30924 30948 30973 31002 31023 31075 31091 31120 31073 31034 30989 30961 30981 30982 30996 31006 31030 31034 31065 31063 31099 31146 31167 31198 31226 31259 31299 31302 31240 31191 31170 31148 31163 31165 31187 31200 31204 31205 31234 31261 31274 31318 31349 31377 31407 31435 31473 31470 31441 31381 31352 31339 31339 31341 31355 31369 31367 31392 31410 31426 31463 31492 31500 31542 31549 31600 31611 31643 31604 31549 31527 31497 31508 31502 31524 31546 31542 31547 31537 31584 31595 31623 31626 31674 31686 31701 31725 31742 31734 31703 31643 31617 31630 31631 31622 31635 31641 31647 31662 31672 31702 31715 31733 31754 31766 31791 31807 31842 31837 31777 31717 31675 31649 31651 31648 31637 31649 31645 31650 31656 31667 31675 31693 31727 31727 31756 31779 31791 31806 31783 31724 31663 31629 31600 31591 31606 31587 31581 31567 31575 31582 31606 31630 31615 31646 31643 31690 31698 31734 31723 31716 31651 31598 31546 31515 31479 31512 31489 31465 31484 31484 31489 31504 31496 31524 31535 31542 31575 31591 31608 31642 31627 31598 31517 31476 31462 31428 31430 31433 31442 31424 31431 31453 31465 31479 31494 31527 31533 31551 31582 31626 31626 31584 31540 31511 31491 31440 31444 31463 31461 31446 31468 31475 31475 31468 31497 31508 31532 31546 31564 31582 31622 31630 31598 31522 31469 31458 31426 31423 31427 31426 31445 31446 31460 31452 31493 31536 31537 31554 31557 31602 31629 31660 31689 31654 31664 31652 31668 31688 31723 31764 31794 31818 31833 31884 31917 31949 31989 32018 32059 32097 32123 32121 32089 32062
33 33 33 33 32 33 32 32 32 33 33 34 33 33 33 34 33 33 33 33 33 33 33 33 33 33 33 33 32 32 32 33 33 32 32 32 34 33 32 33 32 33 33 33 33 32 33 33 34 34 33 32 32 32 32 33 32 33 33 33 33 33 33 32 33 34 34 33 32 33 33 32 33 33 33 33 33 33 33 32 33 33 33 32 32 32 32 32 33 33 32 32 32 34 33 32 33 33 32 32 33 33 32 32 32 33 33 32 32 33 33 32 33 32 32 32 33 33 32 33 32 32 32 33 33 33 33 32 33 33 33 33 33 33 32 33 33 33 34 32 32 32 33 33 33 33 33 33 33 33 33 33 32 32 33 33 33 33 33 33 32 32 33 33 32 33 33 33 33 33 32 32 33 33 32 33 32 32 33 32 33 33 32 32 33 32 32 32 32 33 33 32 32 32 33 33 33 32 33 34 34 33 33 34 33 33 33 32 32 33 33 34 33 33 33 32 33 33 34 33 33 33 32 33 32 33 33 33 33 33 33 33 33 33 34 33 34 33 34 34 34 32 33 33 34 33 32 32 33 33 33 34 34 33 33 33 34 33 33 33 33 33 32 33 33 33 33 32 32 33 33 33 33 33 33 32 33 34 32 33 33 33 33 33 33 33 32 32 33 33 32 33 33 34 33 33 33 33 33 34 32 33 33 33 33 33 33 33 33 33 34 33 34 33 33 33 34 33 32 33 32 32 32 33 33 33 33 33 33 33 33 33 33 33 32 32 33 33 32 33 32 33 33 33 33 33 33 33 33 33 34 33 33 32 32 33 33 33 33 33 33 33 32 33 33 32 33 33 33 33 33 33 33 33 33 33 33 33 33 32 33 34 33 32 33 33 33 33 33 33 32 32 33 33 33 32 33 33 33 33 33 33 33 32 33 33 32 32 32 33 33 33 32 32 33 32 33 33 32 32 32 33 33 33 32 32 33 33 32 32 33 32 33 32 32 32 32 32 33 33 33 32 32 33 33 33 32 32 32 32 32 32 32 33 33 32 32 33 33 33 33 32 32 32 32 34 33 33 33 33 33 32 33 33 32 33 33 33 33 33 32 33 33 33 34 33 33 33 32 33 32 33 33 33 32 32 33 33 33 33 33 33 33 33 33 33 33 32 33 33 33 32 33 33 33 32 33 33 33 33 33 33 33 33 33 33 33 32 33 33 32 33 33 33 33 33 33 33 33 33 33 33 33 32 32 33 34 32 33 33 33 33 32 33 32 33 33 32 33 33 33 33 33 33 33 33 33 32 32 33 33 33 33 33 32 33 32 32 33 33 33 33 32 33 33 33 33 33 32 32 33 33 32 32 33 33 33 33 32 32 32 32 32 33 33 33 32 33 33 33 33 32 33 32 33 33 33 33 33 32 32 32 33 32 33 33 33 32 32 33 34 33 33 32 33 33 33 33 34 33 33 33 33 33 32 33 32 32 32 32 33 33 32 33 34 33 33 32 33 33 33 32 32 33 34 32 32 32 32 32 33 33 32 32 33 33 33 33 32 32 33 33 32 34 33 32 34 33 33 33 33 33 33 33 33 33 33 32 34 33 32 32 33 33 32 32 33 32 33 32 32 32 33 32 32 33 32 33 33 33 32 33 33 33 33 33 33 32 34 33 33 33 33 33 32 32 33 33 33 32 32 33 32 32 32 32 32 33 33 33 32 33 33 33 33 32 33 32 32 32 33 33 33 33 32 33 32 33 32 32 33 33 32 32 33 33 32 32 33 33 32 32 32 33 33 32 32 33 32 33 32 32 33 32 32 32 32 32 33 32 33 32 32 32 32 32 33 33 33 33 32 33 33 32 33 32 32 33 32 33 33 32 32 32 33 33 33 33 32 32 32 32 32 32 32 33 32 32 32 32 32 32 32 32 32 33 33 32 32 32 32 32 32 32 32 32 33 32 32 32 32 33 33 33 33 33 32 32 32 32 33 33 32 32 32 32 32 33 33 32 33 32 33 33 32 32 32 33 32 32 32 32 32 32 32 32 32 32 32 32 32 32 32 32 32 32 32 32 32 32 32 32 32 33 33 32 33 32 33 33 33 32 32 33 33 32 32 32 32 33 32 32 32 32 33 32 33 33 33 32 33 32 32 32 33 33 33 32 32 33 32 32 33 33 32 32 32 32 33 33 32 33 33 32 32 32 32 32 33 33 32 33 32 32 32 32 33 33 33 32 33 33 33 33 33 33 33 33 33 33 33 33 33 33 33 33 33 33 33 33 33 33 33 33 33 33 33 33 33 33 33 33 33 33 33 33 33 33 33 33 33 33 34 33 33 33 33 33 34 33 33 33 33 33 33 33 33 33 34 33 33 33 33 33 32 33 32 33 33 33 32 32 32 32 33 33 33 33 33 33 32 32 32 32 33 33 33 32 32 32 32 34 33 33 33 33 34 33 33 33 33 32 32 32 33 32 33 32 33 33 32 32 32 32 32 32 32 32 32 32 32 33 32 32 33 33 34 33 34 33 33 33 33 33 32 32 33 33 33 33 33 33 33 33 33 33 33 33 33 34 34 33 33 33 33 33 33 34 33 33 32 32 32 32 33 33 33 32 33 33 33 33 32 32 33 32 32 32 32 32 32 33 32 32 33 33 33 33 32 33 33 33 33 33 33 32 32 33 33 33 33 33 32 33 33 34 33 32 33 33 33 33 33 33 33 33 33 33 32 33 33 33 33 32 33 33 33 33 33 33 32 33 33 33 32 33 32 33 33 32 32 33 33 33 33 33 33 33 33 33 33 33 33 33 33 32 33 33 32 32 33 33 33 33 33 33 33 33 32 33 33 33 33 33 33 33 33 33 32 33 33 33 33 33 33 33 33 33 33 33 33 33 33 33 33 33 33 32 33 32 33 33 33 33 33 32 33 33 33 33 33 32 32 33 32 32 32 33 33 33 33 32 33 33 33 33 32 33 33 33 32 33 32 32 33 32 32 33 33 32 32 33 32 33 33 33 32 33 33 33 33 33 33 33 32 33 33 33 33 33 33 33 32 32 32 33 32 32 32 32 33 33 33 33 32 33 32 33 33 32 32 32 32 32 32 32 32 32 33 33 33 32 32 33 33 33 32 32 33 33 32 32 33 33 33 33 33 33 33 32 33 32 32 32 32 33 33 33 33 33 32 32 33 33 32 33 32 32 33 32 33 32 33 33 33 33 33 32 33 32 33 32 33 33 33 32 33 32 32 32 33 32 32 32 32 33 33 32 33 33 33 32 32 32 33 32 33 33 33 33 33 32 33 33 33 32 32 32 32 32 32 33 33 32 32 32 33 33 33 33 33 33 33 32 33 33 33 33 33 33 33 32 33 33 32 33 33 32 33 33 32 33 33 32 32 32 32 32 32 33 32 33 33 33 32 32 32 32 32 32 33 33 33 32 33 32 33 33 33 32 32 32 32 33 32 32 32 32 32 32 32 32 32 32 33 33 33 32 33 33 33 32 33 33 32 32 33 32 32 33 32 33 32 33 33 32 32 33 33 32 32 32 32 33 33 33 33 33 33 33 33 33 32 33 33 32 32 32 32 32 32 32 33 32 33 32 33 33 33 32 32 33 32 32 32 33 32 33 32 32 32 32 32 33 32 33 32 32 32 32 32 32 33 33 32 32 33 32 32 33 33 33 33 32 32 32 33 33 33 33 32 32 32 32 32 32 32 32 33 32 32 32 33 32 33 32 33 33 32 33 33 32 32 33 33 33 33 32 32 32 32 32 32 32 32 32 33 32 32 32 32 32 33 32 33 32 32 33 32 32 33 33 32 32 32 33 32 32 33 33 33 33 33 33 32 32 32 33 33 32 32 32 32 32 32 32 33 33 33 32 32 32 32 32 33 32 33 33 33 33 33 33 33 32 32 32 32 32 32 32 32 32 33 33 32 32 32 32 33 32 32 33 33 32 32 32 32 32 33 32 32 33 32 32 33 32 33 33 33 32 32 32 33 32 33 33 32 32 33 33 32 32 32 32 32 33 33 32 32 32 33 32 32 32 32 32 32 32 33 32 32 33 32 33 32 33 33 33 33 33 32 32 32 32 34 32 32 32 32 33 33 32 32 32 32 32 32 33 32 32 33 33 33 33 33 33 32 34 33 32 32 32 32 32 32 32 32 32 33 32 32 32 32 33 33 32 32 32 32 32 32 32 32 32 32 32 32 32 33 32 32 32 32 32 32 32 33 32 32 33 33 33 33 32 32 33 33 33 32 33 32 32 32 32 32 32 32 32 32 32 32 32 32 33 33 32 32 32 33 32 32 33 32 32 32 32 32 32 32 32 32 32 32 33 33 33 32 32 32 33 33 32 32 32 32 32 32 32 32 33 32 33 32 32 33 33 32 32 33 32 33 32 33 32 32 33 32 32 32 32 33 32 33 32 32 32 32 32 32 32 32 33 33 33 32 32 32 32 32 32 33 33 32 32 32 33 32 32 32 32 33 32 32 32 33 32 32 33 33 33 32 32 32 32 33 32 33 33 33 33 33 32 32 33 32 33 32 33 32 32 33 33 32 32 33 33 32 32 32 32 32 32 32 32 33 33 33 32 33 32 33 33 32 32 32 32 32 32 32 32 32 32 32 32 33 32 32 33 32 33 32 33 32 33 32 32 33 32 33 32 32 32 32 32 32 32 32 32 32 32 32 33 32 33 33 33 33 32 34 33 32 32 32 32 32 32 32 32 32 33 33 33 32 32 32 32 32 32 33 32 32 32 32 32 32 32 33 32 32 32 34 33 33 32 32 33 32 32 32 32 32 32 32 32 32 33 33 32 32 32 32 32 32 32 34 33 33 34 32 33 32 33 32 32 33 32 32 32 32 32 33 32 32 33 33 33 32 33 32 33 33 32 32 32 33 33 33 34 32 32 32 32 32 32 33 32 33 33 33 32 32 33 32 32 32 33 33 33 32 33 33 33 33 33 33 32 32 32 33 33 33 33 33 32 33 32 33 33 32 32 33 32 33 34 32 33 33 32 32 32 32 33 32 32 32 32 32 32 33 33 32 32 33 33 32 33 32 32 32 33 33 33 32 32 32 32 32 32 32 32 33 33 33 32 33 32 32 32 33 33 33 32 33 32 32 32 32 32 33 32 32 32 32 33 33 33 33 33 33 32 33 33 32 32 32 32 32 32 32 32 32 33 33 33 32 32 32 32 33 33 32 32 33 33 32 33 33 33 32 32 32 32 32 32 32 32 32 32 32 32 32 32 32 32 33 33 32 32 32 32 32 33 32 32 32 32 33 32 32 32 32 32 32 32 32 32 32 33 33 32 32 32 33 32 32 33 32 32 32 32 32 32 33 33 32 32 33 32 32 32 32 32 32 32 32 32 32 32 32 33 33 32 33 32 33 32 33 32 32 32 33 32 32 32 33 32 33 32 33 32 32 32 32 32 33 33 32 32 32 32 32 33 32 32 32 32 33 32 32 32 32 32 32 32 32 33 33 33 32 32 33 32 33 33 33 33 32 33 33 32 33 32 33 32 32 32 33 32 32 33 32 32 32 33 32 32 32 32 33 32 32 33 34 33 33 33 33 32 33 33 33 32 33 33 32 32 32 32 33 34 33 34 34 34 33 32 33 33 33 33 33 33 33 33 34 33 33 33 33 34 34 33 33 33 33 33 33 33 34 33 33 33 34 34 34 33 33 33 33 33 33 33 32 33 34 33 32 33 34 33 32 32 34 34 33 33 32 32 32 33 33 33 32 32 32 32 33 32 32 33 33 33 33 33 32 33 33 32 32 32 33 34 32 33 32 32 33 32 32 33 33 32 32 33 33 32 33 33 32 32 32 32 32 32 32 33 32 32 33 32 32 32 33 33 32 32 33 32 34 34 33 33 32 32 33 33 32 33 33 33 32 32 33 32 32 32 33 33 32 33 33 33 32 32 32 33 32 33 32 32 33 33 33 32 33 32 32 32 32 32 33 33 32 32 32 32 32 32 32 33 32 32 33 32 33 33 33 33 33 33 33 33 32 32 32 32 33 32 32 32 33 33 33 33 33 32 32 33 33 33 33 33 32 33 33 32 33 32 33 32 32 32 32 33 32 32 32 32 32 33 33 32 32 32 32 32 32 32 33 32 32 33 33 32 32 32 32 32 33 32 33 33 32 32 32 33 32 32 32 32 32 32 32 32 33 33 32 32 33 32 33 32 32 32 33 33 33 32 33 33 33 33 32 32 33 32 32 33 33 32 32 33 32 33 33 32 32 32 32 32 32 32 32 32 32 32 32 32 32 32 32 32 32 32 32 32 32 32 33 33 33 33 33 34 32 32 32 32 32 32 33 33 32 32 33 32 32 32 32 33 33 33 32 33 33 32 33 32 32 32 33 33 33 33 32 32 33 33 33 34 32 32 33 32 32 32 32 32 32 32 32 33 32 32 32 32 32 32 32 32 32 32 32 33 32 33 32 32 32 32 32 32 32 32 33 33 33 32 32 32 32 32 32 32 33 32 32 32 32 32 32 32 32 32 32 32 32 32 32 32 33 33 32 32 32 32 32 33 32 32 32 32 32 33 33 33 33 32 32 32 32 32 32 33 32 33 33 33 32 32 32 32 33 32 33 32 33 33 32 33 32 33 33 32 32 32 33 32 32 33 33 32 33 32 33 33 32 32 33 33 33 32 32 33 33 32 32 32 34 32 33 33 34 33 32 32 32 33 33 32 34 32 33 33 33 33 32 32 33 32 33 32 32 33 33 33 32 33 33 33 32 33 33 33 32 33 33 32 33 32 34 33 32 34 32 32 32 33 33 32 32 32 32 32 32 34 32 32 33 33 33 33 32 33 33 32 32 33 33 32 32 32 32 32 32 32 33 32 32 34 33 33 33 32 32 32 32 32 32 33 33 34 32 32 33 33 33 32 32 32 32 33 33 32 34 34 34 33 32 33 33 32 32 32 33 32 32 32 32 33 33 33 33 32 32 32 32 32 32 33 33 33 34 33 33 33 33 33 33 33 33 32 32 32 33 33 32 32 33 34 32 32 32 32 32 32 32 32 32 32 32 33 32 33 32 33 33 33 32 32 33 32 32 33 33 34 33 33 33 32 33 34 33 33 32 33 33 33 33 33 32 32 33 33 33 33 33 33 33 32 32 32 32 32 33 33 33 32 32 33 32 33 32 33 33 33 32 33 32 32 32 33 32 32 32 33 32 32 33 33 32 32 32 32 33 32 33 33 32 32 33 33 32 32 32 32 33 32 32 33 32 32 33 32 33 33 33 32 34 33 33 33 32 32 33 33 33 33 33 33 33 33 33 33 33 33 32 32 33 33 33 32 33 33 33 33 33 33 32 33 33 33 33 33 33 32 33 33 33 33 33 33 33 33 33 32 33 33 33 33 32 33 33 33 33 32 33 33 33 33 33 33 33 33 32 32 33 33 33 33 33 33 33 33 33 33 33 33 33 33 32 32 33 33 33 33 33 32 32 33 33 33 32 33 33 32 32 32 32 32 32 32 33 33 32 32 32 33 33 33 33 32 32 32 32 32 33 33 32 32 32 32 33 33 32 32 32 32 32 32 33 34 33 33 33 33 33 33 33 33 33 33 33 33 33 33 34 33 33 33 34 33 34 33 33 32 33 33 34 33 33 33 34 33 33 33 33 33 33 33 33 33 33 33 33 33 33 33 33 33 33 33 33 33 33 33 33 33 33 33 33 33 33 33 33 33 33 33 33 33 33 33 33 33 33 33 33 33 33 33 33 33 33 33 33 33 33 33 33 33 33 33 33 33 33 33 33 33 33 33 33 33 33 33 33 33 33 33 33 33 33 33 33 33 33 33 33 33 33 33 33 33 33 33 33 33 33 33 33 33 33 33 33 33 33 33 33 33 33 33 33 33 33 33 33 33 33 33 33 33 33 33 33 33 34 33 33 33 33 33 33 33 33 33 33 33 33 33 33 33 33 33 33 33 33 33 33 33 33 33 33 33 33 33 33 33 34 33 33 33 33 34 32 32 33 33 32 32 33 33 33 33 33 33 33 33 33 33 32 32 32 33 32 32 32 32 32 32 32 33 33 32 32 32 32 33 33 33 32 33 32 32 33 33 32 32 33 33 32 33 33 33 32 33 33 33 32 33 33 33 34 32 33 32 33 32 32 33 33 32 33 32 32 32 33 33 33 33 33 33 33 33 33 33 33 33 33 33 32 32 32 32 32 33 33 33 32 33 32 32 33 32 33 32 32 32 33 33 33 33 33 33 33 32 32 32 33 32 33 32 32 33 33 33 33 33 32 32 32 32 33 33 33 33 33 33 32 32 33 33 33 33 32 33 33 33 33 32 33 32 32 32 33 32 32 32 32 33 33 32 32 32 32 32 33 32 32 32 32 33 33 33 32 33 32 32 33 33 33 33 32 33 33 32 33 32 33 33 32 33 33 33 32 33 32 33 33 33 32 33 32 32 32 33 32 32 32 33 33 32 33 32 33 32 33 33 32 32 32 32 33 32 32 32 32 33 33 33 32 32 33 32 33 32 32 32 32 32 32 32 33 33 33 33 33 33 33 32 32 33 33 33 33 33 33 33 32 33 33 32 32 32 32 32 32 32 32 32 32 32 32 33 34 32 32 33 33 33 33 33 33 33 33 33 33 33 33 33 34 33 33 34 33 34 34 34 34 33 33 33 33 33 33 33 33 33 33 33 34 33 33 33 33 33 33 33 33 33 33 33 33 33 34 33 33 34 33 33 33 33 33 33 33 33 33 33 33 34 33 33 33 33 32 34 33 32 32 32 33 34 32 33 33 32 32 33 33 34 32 34 33 33 33 33 33 33 33 33 33 33 34 33 34 33 33 33 33 33 33 33 33 33 33 33 33 33 33 33 33 33 33 33 33 33 34 33 33 33 33 33 33 34 34 33 34 33 33 33 33 33 33 33 33 33 33 33 33 33 33 33 33 33 33 33 33 33 33 33 33 33 33 33 33 33 33 33 33 33 33 33 33 33 33 33 33 33 33 33 33 33 33 33 33 33 33 33 33 33 33 33 33 33 33 33 33 33 33 33 33 33 33 33 33 33 33 33 33 33 33 33 33 33 33 33 33 33 33 33 33 33 33 33 33 33 33 33 33 33 33 33 33 33 33 33 33 33 33 33 33 33 33 33 33 33 33 33 33 33 33 33 33 33 33 33 33 33 33 33 33 33 33 33 33 33 33 33 33 33 33 33 33 33 33 33 33 33 33 33 33 33 33 33 33 33 33 33 33 33 33 33 33 33 33 33 33 33 33 33 33 33 33 33 33 33 33 33 33 33 33 33 33 33 34 34 33 33 33 33 33 33 33 33 33 33 34 34 33 33 33 33 33 33 33 33 33 33 33 33 33 33 33 33 33 33 33 33 33 33 33 33 33 33 33 33 33 33 33 33 33 33 33 33 33 33 34 34 33 33 33 34 33 33 33 33 33 33 33 33 34 33 33 33 33 33 33 33 33 33 33 33 33 33 33 33 33 33 33 33 33 33 33 33 33 33 33 33 33 33 33 33 33 33 33 33 33 33 33 33 33 33 33 33 33 33 33 33 33 33 33 33 33 33 33 33 33 32 33 33 33 33 33 34 33 33 33 33 34 33 33 33 32 33 33 32 33 33 33 33 33 33 33 33 33 33 33 33 33 33 33 33 33 33 33 33 33 33 33 33 33 33 33 33 33 33 33 33 33 33 33 33 33 33 33 33 33 33 33 33 33 33 33 33 33 33 33 33 33 33 33 33 33 33 33 33 33 33 33 33 33 33 33 33 33 33 33 33 33 33 33 33 33 33 33 33 33 33 33 33 33 33 33 33 33 33 33 33 33 33 33 33 34 33 33 33 33 33 33 33 33 33 33 33 33 33 33 33 33 33 33 33 33 33 33 33 33 33 33 33 33 33 33 34 33 33 33 33 33 33 33 33 33 33 33 33 33 33 33 33 33 33 33 33 34 33 33 33 33 33 33 33 33 33 33 34 33 33 33 33 33 33 33 33 33 33 33 33 33 33 33 33 33 33 33 33 33 33 33 33 33 33 33 33 33 33 33 33 33 33 33 33 33 33 33 33 33 33 33 33 33 33 33 33 33 33 33 33 33 33 33 33 33 33 33 32 33 33 32 32 32 32 33 33 33 33 33 33 33 33 33 33 33 33 33 33 33 33 33 33 33 33 33 33 33 33 33 33 33 33 33 33 33 33 33 33 33 33 33 33 33 33 33 33 33 33 33 33 33 33 33 33 33 33 33 33 33 33 33 33 33 33 33 33 33 33 33 33 33 33 33 33 33 33 33 33 33 33 33 33 33 33 33 33 33 33 33 33 33 33 33 33 33 33 33 33 33 33 33 33 33 33 33 33 33 33 33 33 33 33 33 33 33 33 33 33 33 33 33 33 33 33 33 33 33 33 33 33 33 33 33 33 33 33 33 33 33 33 33 33 33 33 33 33 33 33 34 33 33 33 33 33 33 33 33 33 33 33 33 33 33 33 33 33 33 33 33 33 33 33 33 33 33 33 33 33 33 33 33 33 33 33 33 33 33 33 33 33 33 33 33 33 33 33 33 33 33 33 33 33 33 33 33 33 33 33 33 33 33 33 33 33 33 33 33 33 33 33 33 33 33 33 33 33 33 33 33 33 33 33 33 33 33 33 33 33 33 33 33 33 33 33 33 33 33 33 33 33 33 33 33 33 33 33 33 33 33 33 33 33 33 33 33 33 33 33 33 33 33 33 33 33 33 33 33 33 33 33 33 33 33 33 33 33 33 33 33 33 33 33 33 33 33 33 33 33 33 33 33 33 33 33 33 33 33 33 33 33 33 33 33 33 33 33 33 33 33 33 33 33 33 33 33 33 33 33 33 33 33 33 33 33 33 33 33 33 33 33 33 33 33 33 33 33 33 33 33 33 33 33 33 33 33 33 33 34 33 33 33 33 33 33 33 33 33 33 34 33 34 33 33 33 33 33 33 33 33 33 33 33 33 33 34 33 33 33 33 34 34 33 33 33 33 33 33 33 34 34 33 33 33 34 33 33 33 33 34 33 33 34 33 33 33 34 33 34 33 33 33 33 33 33 33 33 34 33 33 33 34 34 33 33 33 33 33 33 33 34 34 33 33 34 34 34 34 33 33 33 34 33 33 33 33 33 33 33 33 33 33 33 33 33 33 33 33 33 33 33 33 33 33 33 33 33 34 33 33 33 33 33 33 33 33 33 33 33 33 33 33 33 33 33 33 33 33 33 33 33 33 33 33 33 33 33 33 33 33 33 33 33 33 33 33 33 33 33 33 34 33 34 33 33 33 33 33 33 33 33 33 33 33 33 33 34 33 33 33 33 33 33 33 33 33 33 33 34 33 33 33 33 33 33 33 34 33 33 33 33 33 33 33 33 34 34 34 33 33 33 33 33 33 33 33 34 33 33 33 33 33 33 33 33 34 34 33 33 33 33 33 33 33 33 34 33 33 33 33 33 34 34 33 33 33 34 34 33 33 33 33 33 33 33 33 33 34 34 33 33 33 33 33 33 33 33 34 33 33 33 33 33 33 33 33 33 33 33 33 33 33 33 33 33 33 33 33 33 33 33 33 33 33 33 34 33 33 33 33 33 33 33 33 33 33 33 33 33 33 33 33 33 33 33 33 33 33 33 33 33 34 34 33 33 33 33 33 33 33 33 33 33 33 33 33 33 33 34 34 33 33 33 33 33 33 33 33 33 33 33 34 34 33 33 33 33 33 33 33 33 33 33 33 34 33 33 33 33 33 33 33 33 33 33 33 33 34 33 33 33 33 33 33 33 33 33 33 33 33 33 33 33 33 34 33 33 33 33 33 34 33 33 34 33 33 34 34 33 33 33 33 33 33 33 33 33 33 34 33 33 34 33 33 34 34 33 34 33 33 33 33 33 33 33 33 33 33 33 33 33 33 33 33 33 33 33 33 33 33 33 33 33 33 34 33 33 33 33 33 33 33 33 33 33 33 33 33 33 33 34 33 33 33 33 33 33 33 33 33 34 34 33 33 33 33 33 33 33 33 33 33 33 33 33 33 33 33 33 33 33 33 33 33 33 33 33 33 33 33 33 33 33 33 33 33 33 33 33 33 34 33 33 33 33 34 33 33 33 33 33 33 33 33 33 33 33 33 33 33 33 33 33 33 33 33 33 33 33 33 33 33 33 33 33 33 33 33 33 33 33 33 33 33 33 33 33 33 33 33 33 33 34 33 34 33 33 33 33 33 33 33 33 33 33 33 33 33 33 33 33 33 33 33 33 33 33 33 33 33 33 33 33 33 33 33 33 33 33 33 33 33 33 33 33 33 33 33 33 33 33 33 33 33 33 33 33 33 33 33 33 33 33 33 33 33 33 33 33 33 33 33 33 33 33 33 33 33 33 33 33 33 33 33 33 33 33 33 33 33 33 33 33 33 33 33 33 33 33 33 33 33 33 33 33 33 33 33 33 33 33 33 33 33 33 33 33 33 33 33 33 33 33 33 33 33 33 33 33 33 33 33 33 33 33 33 33 33 33 33 33 33 33 33 33 33 33 33 33 33 33 33 33 33 33 33 33 33 33 33 33 33 33 33 33 33 33 33 33 33 33 33 33 33 33 33 33 33 33 33 33 33 33 33 33 33 33 33 33 33 33 33 33 33 33 33 33 33 33 33 33 33 33 33 33 33 33 33 33 33 33 33 33 33 33 33 33 33 33 33 33 33 33 33 33 33 33 33 33 33 33 33 33 33 33 33 33 33 33 33 33 34 33 33 33 33 33 33 33 33 33 33 33 33 33 33 33 33 33 33 33 33 33 33 33 33 33 33 33 33 33 33 33 33 33 33 33 33 33 33 33 33 33 33 33 33 33 33 33 33 33 33 33 33 33 33 33 33 33 33 33 33 33 33 33 33 33 33 33 33 33 33 33 33 33 33 33 33 33 33 33 33 33 33 33 33 33 33 33 34 33 33 33 33 33 33 33 33 33 33 33 33 33 33 33 33 33 33 33 33 33 33 33 33 33 33 33 33 33 33 33 33 33 33 33 33 33 33 33 33 33 33 33 33 33 33 33 33 33 33 33 33 33 33 33 33 33 33 33 33 33 33 33 33 33 33 33 33 33 33 33 33 33 33 33 33 33 33 33 33 33 33 33 33 33 33 33 33 33 33 33 33 33 33 33 33 33 33 33 33 33 33 33 33 33 33 33 33 33 33 33 33 33 33 33 33 33 33 33 33 33 33 33 33 33 33 33 33 33 33 33 33 33 33 33 33 33 33 33 33 33 33 33 33 33 33 34 33 33 33 33 33 33 33 33 33 33 33 33 33 33 33 33 33 33 33 33 33 33 33 33 33 33 33 33 33 33 33 33 33 33 33 33 33 33 33 33 33 33 33 33 33 33 33 33 33 33 33 33 33 33 33 33 33 33 33 33 33 33 33 33 33 33 33 33 33 33 33 33 33 33 33 33 33 33 33 33 33 33 33 33 33 33 33 33 33 33 33 33 33 33 33 32 32 34 32 32 32 32 32 33 33 33 33 32 33 33 33 32 32 32 33 32 32 32 32 33 32 33 32 32 32 32 33 33 33 32 33 33 32 32 33 32 32 32 32 33 32 32 32 32 32 32 33 33 33 32 32 33 33 32 32 33 32 32 32 32 32 33 33 34 33 33 34 34 33 33 32 33 33 32 32 33 32 32 32 32 34 33 32 32 34 34 33 32 33 33 33 34 33 33 32 33 33 32 33 33 33 33 33 33 33 32 32 32 32 32 32 32 34 34 34 33 33 32 33 33 33 33 34 32 32 32 33 34 33 32 33 32 33 34 32 33 32 32 33 33 32 33 33 33 33 32 34 32 33 32 34 32 33 34 33 34 33 33 33 33 34 33 33 33 33 33 33 33 33 33 32 33 33 32 32 32 32 32 33 32 32 32 32 32 32 32 32 32 32 32 32 32 32 32 33 32 33 33 32 32 33 32 32 33 32 32 32 32 32 33 33 32 32 34 33 33 32 32 33 32 32 34 33 32 32 32 32 32 32 32 32 32 33 33 32 32 32 32 33 32 32 33 34 33 33 33 33 32 33 33 33 32 33 33 33 33 34 33 32 32 32 33 33 34 33 33 33 33 33 33 33 33 33 33 33 33 33 33 33 33 33 33 33 33 34 33 33 33 33 33 33 34 33 34 34 34 33 33 33 33 33 33 33 32 33 33 33 33 34 33 33 33 33 34 33 33 33 34 33 34 34 33 33 33 33 33 33 34 33 33 33 33 33 34 33 33 33 34 34 34 33 34 33 33 33 33 33 32 34 33 33 33 33 33 34 33 34 33 33 34 33 33 33 32 33 32 33 34 34 33 34 33 33 32 33 33 33 34 34 34 33 34 32 33 33 33 33 34 33 33 34 33 33 33 34 33 34 34 33 33 33 34 32 32 33 33 34 33 33 33 33 33 33 33 33 33 33 34 33 33 33 33 33 33 33 33 33 33 33 33 33 33 33 33 33 34 33 33 33 33 33 33 33 33 33 33 33 33 33 34 34 33 33 34 33 33 33 33 34 34 34 34 33 33 34 34 33 33 33 33 33 33 33 34 33 34 34 33 33 33 33 33 33 33 33 33 34 33 33 34 33 33 33 33 34 33 33 33 34 33 33 34 33 33 33 33 33 33 33 33 33 33 33 33 33 33 33 33 33 33 33 33 33 33 33 33 33 33 33 33 33 34 34 33 33 34 34 34 33 33 33 33 33 33 33 33 34 33 34 34 33 33 34 33 33 33 33 34 34 34 33 34 33 34 34 33 33 34 33 34 34 34 33 33 33 33 33 33 33 33 33 33 34 34 33 34 33 33 33 33 33 33 33 33 33 33 34 33 33 33 33 33 33 33 34 34 34 33 33 33 33 33 33 33 33 33 34 33 33 34 34 33 33 33 33 33 33 33 33 33 34 34 33 33 34 33 33 33 33 34 33 33 33 33 33 33 33 33 33 33 33 33 33 33 33 33 33 33 33 33 33 33 33 33 33 33 33 33 34 33 33 34 33 33 34 34 33 33 33 33 34 33 34 33 33 33 33 33 33 33 33 33 33 33 33 33 33 33 33 33 33 33 33 33 33 33 32 33 33 33 33 33 32 33 34 33 32 32 33 33 32 32 33 33 33 32 33 33 33 32 32 34 33 32 33 33 33 32 33 33 33 32 32 32 32 33 33 32 32 32 32 32 34 32 32 32 32 32 32 32 33 32 32 32 34 33 32 32 32 32 32 32 33 32 32 33 34 32 33 32 32 33 33 32 32 32 33 32 32 33 33 33 33 34 33 33 33 33 33 33 33 33 33 33 33 34 33 33 33 33 33 34 33 33 33 32 33 33 33 33 32 32 33 33 33 33 33 33 33 33 33 33 33 33 33 33 33 33 33 33 33 33 33 33 33 33 33 33 33 33 33 33 33 33 33 33 33 34 33 33 33 33 33 34 34 33 33 33 33 33 33 33 34 33 33 33 33 33 33 33 33 33 33 33 33 33 33 33 33 33 33 33 33 34 33 33 33 33 33 34 33 33 34 33 33 33 33 33 33 33 33 33 33 33 33 33 33 33 33 33 33 33 33 33 33 33 33 33 33 33 33 34 33 33 33 33 33 33 33 33 34 33 34 33 34 33 33 33 33 33 33 34 33 33 33 33 33 33 33 34 33 33 33 33 33 33 34 33 33 33 34 33 33 33 33 33 33 33 33 33 33 34 33 33 33 33 33 34 33 33 33 33 33 33 33 33 33 33 33 33 33 33 33 33 33 33 33 33 33 33 33 33 33 33 33 33 33 33 33 33 33 33 33 33 33 33 33 33 34 33 33 33 33 33 34 33 33 33 33 34 33 33 33 33 33 33 33 33 33 33 33 33 33 34 33 33 33 34 33 33 33 33 33 33 33 33 34 32 33 33 33 33 33 33 33 33 34 33 33 33 33 33 33 33 33 33 33 33 33 33 33 33 32 33 33 33 34 32 32 32 33 34 33 33 33 32 32 32 32 33 33 33 33 32 33 33 32 32 32 32 33 33 32 32 32 32 33 33 32 32 32 34 34 33 33 33 33 33 32 33 32 33 33 32 33 33 32 33 33 32 33 32 33 32 33 32 33 33 32 32 34 33 32 32 34 32 33 33 33 32 32 33 32 32 32 33 32 32 32 33 34 32 32 33 33 33 33 33 32 32 32 32 32 32 32 33 32 32 33 34 32 32 32 33 34 33 33 34 33 32 33 33 33 33 33 33 33 32 32 32 33 32 33 33 33 33 32 32 32 33 33 33 33 33 33 33 32 33 32 34 34 34 34 33 33 33 33 33 32 33 33 33 33 33 34 34 34 34 34 34 33 34 33 33 33 34 34 33 34 34 33 34 33 34 34 33 33 33 32 33 33 33 33 33 34 34 33 33 34 33 32 33 33 33 33 34 33 33 32 33 33 33 33 34 33 33 33 34 33 33 34 33 33 34 34 33 33 33 33 33 33 33 33 33 34 33 33 34 34 33 33 33 33 33 33 33 34 33 33 33 33 33 33 33 33 33 33 34 33 33 33 33 34 33 33 33 33 34 33 32 33 32 33 33 33 32 34 34 32 33 33 33 33 33 33 33 33 33 33 33 33 34 33 33 33 34 34 34 33 34 33 33 33 34 34 34 33 33 33 32 32 34 33 33 32 33 33 34 33 33 33 33 33 34 33 33 33 33 33 33 33 33 33 33 33 34 33 33 33 33 33 33 33 33 33 33 34 33 33 33 33 33 33 33 33 33 33 33 33 34 34 33 34 33 33 34 34 33 33 33 33 33 33 33 33 33 33 33 33 33 33 33 33 33 33 33 33 33 32 34 34 32 33 33 33 32 33 33 34 34 33 33 34 34 34 34 34 34 33 33 33 33 33 34 34 34 33 33 33 34 33 33 33 33 34 33 33 33 33 33 32 33 33 33 33 33 33 33 33 33 33 33 33 33 33 33 33 33 33 33 34 34 33 33 33 33 33 33 33 34 32 32 34 32 34 33 33 33 33 33 33 34 33 33 33 33 33 33 33 34 33 33 33 33 33 33 33 34 33 33 33 33 33 33 33 33 33 33 34 33 34 33 33 33 33 33 33 34 34 34 33 33 33 34 34 33 33 34 33 33 34 34 34 34 33 33 33 33 33 33 33 33 33 33 33 34 33 33 33 33 33 33 33 33 33 33 33 33 33 33 33 33 33 33 33 34 33 33 33 33 33 33 33 33 33 33 33 33 33 33 33 34 34 33 33 33 33 33 33 34 34 33 33 34 33 33 33 34 34 33 33 33 33 33 33 33 33 33 32 33 33 33 32 33 33 33 34 33 34 33 33 33 33 34 33 33 33 33 33 33 33 33 34 33 34 34 34 33 33 33 33 33 33 33 33 34 33 33 33 34 33 33 33 33 33 34 33 34 33 33 33 33 33 33 34 34 34 33 33 33 33 33 33 33 34 33 33 33 33 33 33 33 33 33 34 33 34 33 34 33 33 33 34 34 33 33 33 33 33 33 34 34 33 34 34 34 33 33 33 33 34 33 33 33 33 33 33 33 33 33 33 33 33 33 33 33 33 33 34 34 33 33 33 33 33 33 33 33 33 33 33 33 33 33 33 33 33 34 33 33 33 33 33 33 33 33 33 33 33 33 33 33 33 33 33 33 33 33 33 33 33 33 33 33 33 33 34 33 33 34 33 33 34 33 33 33 33 33 34 33 33 33 33 33 33 33 33 33 34 33 33 33 33 33 33 33 33 33 33 33 33 34 34 33 33 33 33 33 33 33 33 33 33 33 33 33 33 33 33 33 33 33 33 33 33 33 33 34 34 33 34 33 34 33 34 32 32 33 32 33 33 33 33 33 33 32 33 33 33 33 33 33 33 33 33 33 32 32 33 33 33 32 31 32 34 33 33 33 33 33 33 33 33 33 33 33 33 33 33 33 33 33 33 33 33 33 33 33 33 33 34 33 33 34 33 33 33 33 33 33 33 33 33 33 34 33 34 33 33 33 33 33 33 33 33 33 33 33 33 33 33 33 33 33 33 33 33 33 33 34 33 33 33 33 33 33 33 33 33 33 33 33 33 33 33 33 33 33 33 33 33 33 34 33 33 34 34 33 33 33 33 32 33 33 32 33 33 33 33 33 32 32 33 32 32 32 33 32 32 32 32 32 32 33 32 32 32 32 32 32 32 32 32 33 32 33 33 32 33 32 32 32 33 33 33 33 32 32 33 33 32 32 33 33 32 32 33 33 33 33 33 33 33 33 33 33 33 33 33 33 32 33 33 32 32 33 33 33 33 33 33 33 32 33 33 32 33 33 33 33 33 32 33 32 32 32 32 33 33 33 33 32 33 32 32 32 33 33 33 33 33 33 33 33 33 33 32 32 33 32 34 33 33 33 32 32 32 33 32 32 32 32 32 32 32 33 32 33 32 33 33 33 33 32 32 32 33 33 32 32 33 33 33 32 33 33 33 33 32 32 33 32 33 32 32 32 32 33 32 33 32 32 33 33 32 32 32 32 32 32 33 32 32 32 33 33 32 32 33 32 32 32 32 33 33 32 32 33 33 32 33 33 33 32 32 32 32 33 32 33 33 33 33 32 32 32 32 32 32 32 32 32 32 32 32 32 32 32 32 32 32 32 33 33 32 32 33 32 32 32 32 33 32 33 33 32 32 32 33 33 33 32 32 32 32 32 32 32 32 32 32 32 32 32 33 33 32 33 33 32 32 32 33 32 32 33 32 32 33 32 32 33 33 32 32 33 33 33 33 33 32 32 32 32 32 32 33 32 32 32 32 33 32 32 32 33 32 32 32 32 33 32 32 32 32 32 32 32 32 32 32 32 32 33 33 33 32 32 32 33 33 33 33 32 33 32 32 32 32 32 33 32 33 33 32 33 33 32 32 32 32 32 32 33 33 32 32 32 32 32 32 32 33 33 33 33 32 32 33 32 33 32 32 32 32 32 32 33 32 32 33 33 32 32 32 32 32 32 32 33 33 32 32 32 33 32 32 33 33 32 32 33 32 32 32 32 33 32 32 32 32 32 32 32 32 32 32 32 32 33 33 32 33 32 32 32 32 32 33 33 32 32 32 32 32 33 32 32 32 32 33 33 33 33 34 33 32 32 32 33 32 32 33 32 32 32 32 32 32 33 32 34 33 33 33 33 33 33 33 33 33 33 33 33 33 33 33 33 33 33 33 33 33 33 33 33 33 33 33 33 33 33 33 33 33 33 33 33 33 34 34 34 33 33 33 33 33 33 33 33 33 33 33 33 33 33 33 33 33 33 33 33 32 32 33 33
