43897 43891 43904 47833 47819 47804 47809 47789 47764 47768 47757 47784 47786 47798 47798 47802 47799 47794 47776 47760 47754 47755 47725 47691 47644 47597 47569 47538 47599 47588 47580 47576 47578 47569 47578 47582 47560 47540 47526 47485 47405 47305 47178 47083 46966 46874 46808 46722 46647 46585 46514 46467 46402 46351 46323 46272 46186 46095 45974 45862 45761 45675 45609 45517 45450 45396 45353 45295 45250 45207 45184 45120 45029 44907 44798 44705 44600 44517 44454 44397 44356 44307 44271 44231 44203 44173 44164 44106 44015 43915 43845 43764 43706 43675 43640 43618 43599 43591 43586 43588 43601 43610 43607 43557 43501 43433 43397 43383 43387 43378 43361 43366 43392 43423 43438 43463 43492 43517 43541 43539 43497 43467 43449 43436 43455 43459 43475 43508 43523 43551 43595 43640 43691 43727 43764 43784 43832 43855 43861 43849 43845 43852 43860 43873 43894 43923 43979 44040 44095 44180 44281 44401 44507 44622 44704 44785 44845 44885 44909 44924 44922 44939 44956 44987 45001 45020 45052 45087 45096 45119 45154 45173 45185 45220 45231 45231 45231 45237 45250 45263 45290 45314 45325 45352 45372 45406 45426 45468 45487 45512 45546 45555 45569 45595 45600 45625 45635 45668 45692 45707 45726 45750 45772 45799 45823 45852 45868 45890 45889 45908 45915 45925 45932 45950 45954 45982 46001 46013 46042 46059 46079 46094 46130 46152 46158 46174 46193 46191 46189 46201 46216 46226 46225 46232 46243 46248 46261 46275 46276 46310 46301 46323 46339 46357 46381 46400 46397 46394 46404 46395 46409 46396 46396 46394 46398 46410 46426 46442 46423 46452 46448 46474 46480 46482 46487 46500 46494 46493 46486 46479 46479 46491 46495 46501 46503 46506 46527 46527 46530 46543 46559 46566 46579 46585 46591 46622 46623 46627 46642 46638 46637 46616 46625 46624 46624 46619 46614 46616 46615 46615 46619 46629 46633 46624 46646 46649 46644 46638 46618 46611 46595 46581 46579 46565 46568 46559 46551 46555 46553 46536 46534 46537 46555 46543 46564 46536 46523 46487 46472 46450 46434 46421 46409 46411 46397 46376 46397 46388 46398 46395 46396 46406 46405 46410 46406 46387 46365 46346 46300 46284 46292 46269 46282 46259 46256 46246 46237 46241 46244 46255 46251 46253 46253 46229 46209 46188 46177 46161 46135 46131 46122 46103 46109 46105 46107 46105 46122 46115 46115 46118 46102 46086 46064 46061 46025 46022 46004 45996 45989 45978 45982 45976 45985 45983 46009 45991 46014 46019 46002 45975 45969 45944 45930 45918 45906 45891 45899 45895 45876 45882 45899 45917 45918 45917 45932 45930 45971 45971 45983 45992 46019 46028 46047 46036 46028 46016 46016 45986 45974 45973 45976 45960 45961 45959 45971 45979 45981 45989 46003 46005 46015 46036 46056 46052 46062 46083 46087 46110 46097 46094 46087 46093 46092 46076 46083 46077 46087 46108 46110 46125 46143 46134 46151 46178 46176 46193 46204 46218 46226 46252 46266 46273 46276 46278 46291 46294 46282 46273 46282 46293 46294 46319 46308 46332 46342 46366 46363 46367 46382 46392 46409 46420 46420 46428 46431 46425 46434 46425 46443 46439 46445 46446 46457 46458 46475 46480 46493 46514 46512 46516 46514 46516 46528 46516 46521 46521 46522 46522 46529 46551 46546 46562 46566 46551 46561 46565 46567 46588 46590 46603 46585 46587 46584 46583 46571 46579 46578 46580 46571 46588 46570 46582 46581 46585 46597 46600 46615 46605 46618 46629 46627 46651 46651 46648 46643 46630 46637 46621 46597 46591 46604 46586 46588 46595 46575 46586 46594 46584 46588 46602 46602 46610 46604 46611 46616 46621 46624 46630 46635 46651 46671 46674 46681 46676 46668 46669 46662 46631 46645 46628 46637 46626 46617 46616 46617 46617 46619 46618 46615 46619 46613 46622 46626 46630 46639 46649 46652 46656 46662 46672 46673 46672 46666 46651 46659 46647 46634 46642 46637 46628 46627 46629 46616 46630 46634 46616 46641 46637 46636 46629 46656 46640 46661 46662 46682 46676 46676 46679 46654 46644 46640 46647 46640 46631 46624 46606 46621 46621 46615 46615 46615 46618 46623 46608 46622 46635 46646 46619 46644 46635 46642 46640 46611 46607 46602 46596 46580 46578 46576 46561 46559 46558 46553 46553 46553 46554 46547 46559 46551 46569 46569 46551 46543 46523 46518 46490 46501 46462 46457 46457 46433 46428 46432 46427 46430 46420 46420 46424 46419 46424 46421 46407 46386 46379 46355 46337 46320 46301 46287 46265 46251 46240 46227 46229 46213 46219 46212 46214 46194 46200 46207 46208 46217 46216 46215 46214 46234 46231 46226 46204 46199 46167 46127 46114 46120 46079 46058 46045 46031 46019 46018 46014 46000 46000 45991 45994 45997 46002 45998 46007 45999 46020 46029 46013 46030 46040 46023 46014 46006 45987 45972 45942 45947 45937 45918 45917 45909 45897 45912 45898 45909 45914 45917 45920 45910 45930 45944 45960 45960 45958 45974 45999 45989 45990 45994 45990 45977 45965 45976 45964 45976 45966 45968 45989 45987 45991 46005 46022 46026 46033 46033 46050 46068 46056 46089 46082 46100 46123 46122 46130 46118 46118 46117 46120 46128 46130 46138 46137 46145 46145 46151 46168 46168 46174 46170 46187 46216 46204 46213 46242 46251 46258 46262 46259 46250 46242 46250 46251 46261 46245 46241 46256 46254 46258 46277 46275 46279 46286 46296 46302 46316 46309 46298 46313 46301 46292 46294 46279 46265 46271 46283 46266 46276 46272 46285 46283 46287 46283 46306 46298 46300 46294 46284 46276 46247 46243 46235 46231 46219 46224 46217 46209 46208 46211 46205 46223 46202 46221 46225 46236 46234 46236 46252 46245 46258 46266 46269 46274 46294 46308 46299 46279 46278 46262 46241 46227 46204 46207 46209 46203 46195 46183 46176 46178 46169 46161 46167 46190 46184 46174 46175 46182 46181 46202 46207 46208 46208 46211 46208 46223 46210 46203 46195 46175 46174 46161 46155 46152 46147 46155 46147 46139 46146 46154 46162 46154 46161 46151 46177 46175 46187 46202 46204 46212 46209 46215 46205 46205 46201 46207 46176 46177 46179 46182 46186 46184 46184 46181 46189 46190 46204 46205 46205 46229 46228 46228 46244 46249 46262 46258 46273 46270 46269 46264 46266 46259 46252 46249 46253 46265 46253 46249 46256 46254 46254 46267 46267 46275 46290 46300 46297 46295 46309 46330 46322 46321 46326 46314 46315 46299 46299 46304 46298 46286 46283 46294 46299 46301 46312 46306 46307 46304 46319 46311 46319 46308 46297 46299 46290 46278 46274 46259 46257 46254 46253 46266 46257 46257 46257 46269 46261 46269 46278 46262 46251 46235 46215 46209 46201 46189 46177 46165 46153 46147 46138 46137 46124 46147 46140 46136 46148 46142 46145 46140 46134 46109 46083 46062 46051 46042 46025 46012 45986 45988 45973 45966 45967 45959 45950 45954 45958 45968 45976 45961 45967 45971 45984 45984 45998 46006 46005 45996 45979 45937 45926 45916 45887 45867 45859 45846 45838 45831 45817 45810 45807 45809 45813 45801 45793 45823 45818 45822 45812 45833 45833 45870 45854 45850 45843 45818 45807 45792 45763 45753 45739 45721 45723 45714 45708 45714 45716 45707 45717 45717 45715 45726 45744 45739 45741 45749 45773 45776 45767 45766 45724 45732 45705 45697 45692 45690 45684 45674 45682 45678 45669 45681 45691 45700 45715 45712 45732 45746 45748 45758 45762 45779 45789 45778 45775 45761 45756 45748 45744 45735 45731 45737 45725 45738 45729 45729 45757 45763 45781 45783 45790 45803 45813 45822 45830 45825 45812 45810 45788 45785 45783 45772 45791 45775 45783 45778 45791 45797 45810 45804 45816 45819 45821 45849 45831 45836 45847 45826 45822 45800 45809 45798 45800 45795 45806 45809 45804 45808 45822 45822 45835 45843 45854 45859 45838 45851 45848 45840 45866 45900 45920 45968 45991 45999 46016 46036 46063 46110 46137 46188 46203 46254 46282 46337 46369 46425 46427 46422 46431 46429 46444 46449 46446 46440 46435 46425 46409 46407 46399 46420 46399 46402 46413 46408 46416 46426 46432 46438 46430 46433 46424 46409 46407 46389 46384 46358 46351 46328 46329 46315 46313 46310 46308 46308 46304 46291 46289 46299 46305 46315 46309 46306 46294 46286 46260 46250 46230 46230 46223 46212 46209 46204 46215 46202 46205 46210 46219 46218 46218 46223 46229 46228 46217 46199 46181 46172 46177 46155 46143 46148 46133 46133 46133 46134 46122 46133 46127 46126 46134 46142 46137 46125 46133 46124 46102 46105 46092 46093 46093 46097 46098 46104 46102 46112 46111 46142 46147 46130 46123 46114 46112 46098 46070 46067 46074 46064 46063 46071 46057 46065 46071 46071 46083 46072 46080 46071 46058 46048 46036 46015 46007 46004 45979 45984 45964 45958 45991 45980 45978 45979 45985 46001 45975 45955 45940 45916 45898 45885 45876 45852 45855 45866 45853 45865 45851 45853 45858 45867 45875 45867 45856 45827 45808 45787 45761 45745 45750 45729 45746 45731 45732 45740 45743 45748 45759 45772 45781 45803 45794 45779 45756 45746 45719 45708 45694 45687 45688 45687 45683 45678 45687 45691 45701 45697 45717 45730 45734 45745 45754 45780 45800 45817 45836 45852 45858 45845 45839 45841 45825 45819 45808 45805 45794 45784 45786 45793 45801 45808 45801 45815 45823 45832 45837 45850 45873 45872 45874 45906 45920 45927 45937 45955 45938 45919 45901 45902 45899 45890 45898 45895 45893 45898 45899 45901 45913 45915 45925 45943 45946 45964 45973 45982 45990 46010 46020 46033 46021 46022 46007 45995 45992 45992 45992 45982 45976 45966 45979 45984 46003 46002 46008 46021 46030 46027 46053 46053 46074 46076 46069 46068 46058 46047 46028 46033 46026 46011 45994 45993 46000 45998 46003 46013 46018 46028 46032 46034 46047 46062 46061 46080 46082 46074 46064 46051 46021 46012 45999 46004 45987 45978 45966 45977 45982 45981 45978 45989 45996 46007 46005 46004 46011 46036 46036 46041 46026 46010 45990 45974 45970 45943 45928 45913 45912 45892 45903 45902 45898 45893 45923 45914 45902 45911 45922 45921 45904 45880 45862 45847 45806 45789 45767 45758 45771 45756 45737 45738 45745 45750 45750 45744 45759 45755 45747 45726 45693 45672 45646 45603 45577 45569 45564 45546 45544 45546 45541 45537 45547 45549 45564 45563 45570 45566 45535 45515 45471 45439 45407 45384 45358 45344 45329 45327 45317 45312 45314 45323 45324 45327 45324 45339 45347 45364 45379 45400 45396 45412 45415 45426 45385 45348 45334 45298 45255 45246 45212 45206 45175 45186 45174 45174 45173 45166 45184 45195 45212 45209 45226 45240 45247 45266 45294 45305 45337 45332 45312 45304 45265 45249 45217 45189 45187 45180 45177 45172 45185 45172 45190 45190 45196 45207 45215 45239 45251 45269 45293 45313 45337 45355 45358 45337 45316 45305 45294 45262 45264 45253 45246 45257 45251 45247 45258 45271 45276 45301 45311 45330 45346 45356 45367 45394 45418 45436 45438 45426 45409 45389 45374 45350 45360 45340 45354 45349 45345 45355 45370 45366 45385 45394 45406 45435 45443 45456 45482 45496 45516 45539 45544 45520 45519 45488 45476 45474 45454 45451 45446 45452 45440 45460 45456 45475 45482 45483 45499 45528 45521 45547 45570 45573 45588 45627 45621 45603 45592 45588 45561 45560 45533 45517 45524 45529 45528 45530 45531 45537 45554 45553 45573 45574 45574 45598 45612 45622 45640 45635 45611 45601 45592 45565 45534 45532 45529 45517 45513 45502 45482 45513 45505 45512 45525 45538 45539 45552 45562 45550 45523 45512 45492 45454 45424 45389 45395 45370 45364 45358 45354 45350 45376 45369 45363 45381 45391 45402 45400 45399 45362 45322 45298 45257 45233 45205 45187 45164 45173 45138 45153 45145 45142 45151 45164 45159 45189 45181 45194 45219 45236 45228 45220 45184 45156 45135 45101 45055 45032 45007 44977 44952 44938 44919 44908 44908 44909 44915 44918 44924 44921 44919 44931 44954 44939 44938 44942 44901 44860 44813 44777 44734 44714 44695 44671 44673 44652 44653 44646 44656 44655 44659 44682 44683 44692 44694 44712 44726 44703 44683 44650 44617 44588 44564 44550 44552 44560 44555 44553 44550 44561 44550 44574 44600 44610 44631 44643 44658 44683 44694 44664 44643 44628 44604 44584 44569 44584 44559 44577 44576 44591 44617 44634 44642 44660 44697 44726 44738 44762 44766 44770 44765 44754 44730 44718 44720 44715 44736 44739 44754 44754 44770 44778 44801 44807 44834 44860 44876 44878 44853 44846 44839 44811 44807 44813 44813 44821 44838 44833 44862 44861 44897 44917 44938 44948 44963 44942 44920 44894 44873 44860 44861 44859 44871 44861 44867 44879 44895 44902 44933 44939 44968 44976 44966 44934 44916 44904 44877 44876 44849 44863 44885 44881 44895 44927 44926 44954 44986 45006 45029 45053 45087 45103 45126 45125 45110 45081 45073 45026 44995 44935 44928 44899 44874 44853 44847 44838 44829 44820 44810 44798 44773 44759 44760 44755 44726 44709 44665 44611 44583 44555 44523 44484 44484 44463 44447 44436 44423 44415 44376 44389 44384 44369 44344 44326 44294 44243 44167 44110 44046 43978 43934 43897 43865 43832 43825 43813 43805 43807 43794 43763 43719 43700 43671 43628 43562 43502 43426 43351 43317 43292 43260 43239 43223 43260 43256 43284 43321 43321 43345 43354 43366 43351 43353 43377 43406 43486 43537 43598 43609 43639 43656 43667 43688 43728 43738 43747 43727 43716 43700 43665 43676 43693 43696 43705 43703 43702 43694 43702 43702 43717 43733 43742 43764 43779 43769 43763 43748 43727 43732 43750 43764 43775 43753 43727 43708 43709 43705 43682 43687 43671 43726 43805 43870 43863 43867 43869 43848 43838 43816 43882 43986 44155 44312 44420 44488 44488 44524 44547 44564 44584 44590 44627 44678 44664 44668 44696 44687 44687 44683 44667 44657 44688 44826 44974 45108 45165 45162 45196 45217 45225 45229 45226 45279 45333 45373 45404 45430 45465 45468 45469 45475 45552 45693 45795 45887 45949 45988 46005 46051 46057 46044 46027 46018 46041 46110 46088 46131 46145 46113 46114 46151 46238 46350 46379 46378 46417 46416 46427 46418 46418 46426 46436 46385 46375 46343 46396 46438 46419 46404 46461 46530 46618 46629 46604 46602 46628 46667 46682 46698 46700 46701 46685 46671 46670 46663 46733 46761 46769 46773 46818 46834 46842 46794 46773 46759 46776 46778 46782 46787 46807 46805 46776 46724 46714 46708 46739 46713 46687 46670 46653 46658 46632 46601 46580 46548 46548 46525 46531 46518 46504 46481 46398 46340 46311 46312 46323 46306 46320 46326 46319 46297 46255 46219 46178 46157 46114 46101 46104 46061 45998 45910 45844 45802 45765 45754 45747 45733 45735 45744 45723 45717 45675 45645 45599 45546 45528 45483 45440 45398 45307 45269 45274 45301 45316 45343 45381 45410 45439 45438 45384 45345 45322 45294 45284 45281 45282 45292 45289 45268 45275 45354 45410 45398 45418 45441 45461 45510 45487 45471 45445 45444 45469 45507 45516 45494 45521 45554 45571 45615 45617 45664 45649 45662 45689 45727 45770 45790 45824 45822 45865 45916 45957 45963 45985 45982 46018 46053 46046 46085 46129 46102 46106 46121 46152 46236 46289 46286 46327 46373 46456 46522 46591 46618 46598 46534 46429 46419 46469 46513 46518 46536 46557 46589 46616 46627 46629 46638 46664 46679 46689 46725 46706 46696 46678 46662 46657 46716 46749 46760 46746 46736 46764 46802 46821 46781 46781 46789 46793 46775 46753 46758 46718 46722 46639 46668 46723 46716 46699 46663 46635 46651 46685 46668 46614 46615 46603 46616 46590 46671 46667 46626 46590 46545 46516 46525 46507 46470 46450 46464 46519 46591 46555 46427 46437 46436 46423 46399 46374 46345 46284 46261 46171 46127 46197 46201 46208 46211 46198 46210 46250 46219 46143 46114 46053 46013 45957 45910 45880 45859 45846 45800 45825 45849 45827 45803 45800 45791 45812 45809 45768 45710 45705 45667 45682 45661 45640 45639 45656 45656 45638 45583 45586 45585 45620 45658 45725 45766 45784 45734 45741 45778 45826 45851 45862 45842 45821 45787 45789 45745 45696 45735 45753 45759 45801 45865 45926 45937 45911 45904 45925 45943 45947 45956 45961 45991 45971 45925 45863 45866 45890 45934 45966 46030 46037 46060 46071 46063 46047 46107 46168 46234 46232 46241 46263 46283 46251 46187 46170 46190 46221 46271 46293 46306 46322 46370 46353 46331 46339 46389 46453 46490 46514 46515 46505 46523 46586 46573 46627 46670 46670 46667 46665 46702 46740 46733 46721 46750 46745 46767 46828 46909 46899 46911 46926 46927 46890 46921 46945 46919 46911 46881 46859 46869 46859 46817 46749 46734 46753 46749 46762 46747 46764 46755 46706 46666 46710 46779 46772 46758 46761 46806 46839 46841 46813 46802 46834 46835 46830 46855 46865 46779 46771 46698 46677 46777 46811 46840 46890 46936 46951 46946 46908 46824 46781 46790 46808 46817 46815 46812 46807 46768 46735 46698 46757 46819 46814 46808 46836 46856 46865 46821 46758 46754 46770 46791 46802 46800 46790 46749 46702 46652 46603 46611 46635 46606 46602 46615 46653 46695 46676 46606 46557 46536 46510 46450 46415 46383 46352 46312 46255 46176 46202 46227 46233 46228 46239 46228 46231 46195 46155 46127 46119 46105 46102 46099 46104 46101 46019 45952 45850 45838 45847 45822 45815 45831 45858 45885 45894 45857 45827 45787 45740 45705 45677 45658 45651 45634 45618 45565 45554 45622 45637 45637 45657 45640 45669 45658 45599 45572 45580 45592 45571 45585 45580 45589 45583 45500 45450 45462 45489 45501 45507 45563 45597 45618 45637 45684 45746 45795 45761 45740 45746 45746 45723 45717 45739 45715 45683 45759 45755 45764 45766 45805 45828 45812 45727 45649 45682 45714 45749 45768 45776 45786 45810 45789 45749 45763 45843 45831 45822 45840 45876 45928 45935 45880 45873 45897 45965 46002 45988 45993 45978 45971 45934 45875 45973 46046 46062 46088 46120 46164 46212 46184 46132 46126 46152 46175 46189 46224 46204 46214 46235 46170 46180 46216 46218 46209 46204 46249 46306 46355 46337 46296 46319 46348 46398 46439 46453 46475 46473 46470 46409 46383 46435 46450 46487 46482 46509 46548 46607 46604 46582 46599 46607 46638 46639 46628 46631 46624 46593 46554 46547 46593 46624 46661 46689 46728 46744 46760 46730 46722 46734 46777 46829 46850 46872 46888 46877 46865 46819 46762 46772 46827 46834 46823 46826 46858 46892 46862 46844 46858 46848 46857 46825 46801 46783 46767 46727 46731 46724 46696 46737 46718 46678 46632 46616 46643 46624 46538 46504 46482 46474 46481 46461 46455 46449 46423 46376 46284 46224 46216 46219 46215 46247 46246 46265 46270 46272 46236 46241 46199 46142 46085 46023 45971 45935 45933 45874 45820 45851 45814 45821 45836 45837 45857 45870 45804 45715 45670 45653 45665 45635 45620 45586 45577 45583 45564 45462 45468 45472 45452 45436 45435 45490 45537 45551 45506 45481 45524 45548 45576 45595 45529 45498 45496 45497 45465 45526 45618 45627 45632 45681 45737 45780 45785 45750 45754 45789 45789 45780 45888 45826 45806 45854 45844 45823 45905 45961 45933 45946 45964 46025 46060 46050 46027 46033 46084 46128 46146 46129 46140 46151 46152 46081 46061 46112 46210 46274 46331 46367 46416 46453 46439 46393 46409 46447 46510 46550 46584 46616 46631 46634 46595 46572 46585 46690 46697 46747 46750 46772 46784 46788 46800 46795 46858 46887 46889 46902 46895 46894 46877 46868 46825 46898 46944 46924 46926 46934 46973 47013 46957 46872 46849 46884 46937 46906 46895 46905 46891 46890 46879 46862 46927 46945 46901 46894 46897 46916 46959 46930 46878 46837 46827 46859 46889 46880 46879 46872 46820 46788 46665 46635 46667 46690 46722 46732 46754 46765 46738 46666 46614 46582 46571 46561 46547 46540 46546 46509 46482 46391 46366 46410 46412 46399 46400 46387 46371 46355 46310 46244 46233 46251 46240 46235 46226 46196 46143 46078 45956 45899 45911 45906 45918 45938 45973 46005 46025 45979 45910 45868 45829 45798 45754 45742 45736 45718 45683 45631 45616 45664 45667 45651 45627 45593 45592 45603 45552 45504 45522 45488 45510 45472 45458 45431 45396 45337 45255 45221 45265 45252 45270 45286 45326 45374 45406 45357 45305 45262 45234 45237 45217 45209 45215 45210 45231 45196 45184 45284 45324 45333 45326 45336 45372 45418 45425 45392 45431 45459 45504 45656 45729 45610 45560 45542 45490 45499 45605 45688 45741 45749 45782 45819 45872 45852 45842 45888 45934 45980 45975 45983 45981 45981 45993 46016 46016 46121 46129 46143 46138 46167 46230 46279 46233 46192 46209 46267 46320 46352 46420 46470 46456 46448 46436 46429 46541 46583 46622 46637 46668 46713 46729 46712 46631 46639 46674 46707 46732 46729 46732 46734 46705 46663 46672 46755 46791 46797 46797 46815 46845 46860 46830 46814 46858 46899 46921 46926 46951 46938 46904 46875 46844 46800 46852 46852 46867 46873 46867 46899 46923 46880 46836 46817 46810 46851 46842 46847 46850 46850 46815 46723 46734 46751 46766 46775 46754 46755 46789 46834 46832 46820 46832 46836 46862 46848 46830 46819 46788 46751 46684 46675 46657 46692 46692 46701 46689 46708 46734 46678 46608 46590 46580 46586 46557 46564 46549 46534 46494 46451 46338 46298 46318 46302 46288 46279 46291 46317 46294 46237 46230 46186 46145 46079 46024 45986 45946 45935 45886 45807 45806 45884 45903 45890 45852 45828 45838 45814 45776 45774 45744 45738 45740 45720 45706 45694 45642 45613 45516 45490 45532 45564 45507 45517 45553 45605 45660 45683 45612 45574 45573 45570 45565 45572 45577 45603 45626 45606 45584 45626 45686 45671 45649 45673 45698 45757 45794 45772 45769 45819 45883 45901 45957 46007 45993 45965 45944 45894 45913 45985 46078 46117 46130 46171 46207 46240 46180 46140 46126 46197 46272 46300 46320 46364 46401 46385 46306 46264 46268 46337 46392 46426 46447 46488 46515 46504 46483 46519 46562 46632 46728 46788 46766 46728 46726 46713 46634 46698 46781 46781 46820 46802 46822 46846 46841 46831 46799 46810 46874 46898 46908 46950 46970 46963 46962 46883 46786 46850 46909 46872 46866 46888 46924 46946 46926 46839 46798 46823 46840 46875 46872 46876 46862 46853 46770 46731 46790 46801 46792 46785 46770 46771 46783 46731 46648 46657 46686 46704 46715 46723 46705 46657 46613 46533 46408 46398 46414 46396 46415 46401 46439 46483 46472 46406 46337 46310 46241 46206 46184 46185 46170 46157 46122 46086 46063 46078 46003 45980 45944 45937 45955 45934 45914 45849 45831 45840 45844 45842 45816 45766 45700 45623 45576 45592 45622 45634 45659 45674 45702 45750 45756 45719 45645 45630 45606 45611 45596 45621 45607 45608 45607 45576 45605 45641 45659 45686 45723 45761 45803 45833 45849 45836 45906 45915 45945 45961 46023 46043 45932 45936 45873 45863 45951 45953 45954 45990 46024 46052 46106 46094 46065 46069 46095 46135 46174 46203 46221 46239 46216 46188 46118 46124 46176 46220 46262 46315 46335 46372 46368 46356 46357 46403 46462 46481 46505 46540 46557 46565 46533 46553 46635 46638 46660 46682 46709 46722 46747 46744 46689 46697 46732 46776 46823 46924 46904 46918 46894 46834 46807 46818 46888 46915 46904 46914 46921 46959 46979 46951 46951 46963 46990 47027 47034 47043 47045 47030 47020 46992 47028 47052 47055 47057 47054 47072 47099 47076 47026 47026 47076 47097 47122 47083 47067 47074 47063 47015 46932 46956 46996 46986 46970 46984 47000 47030 47011 46971 46938 46940 46952 46962 46944 46934 46936 46916 46892 46867 46855 46920 46897 46867 46868 46881 46930 46936 46895 46892 46908 46945 46954 46958 46941 46907 46844 46799 46749 46741 46803 46799 46797 46768 46781 46818 46822 46798 46758 46783 46780 46793 46796 46804 46794 46783 46735 46666 46635 46638 46672 46678 46665 46686 46715 46723 46671 46660 46681 46712 46728 46718 46723 46723 46715 46693 46681 46700 46822 46781 46773 46772 46801 46822 46807 46752 46752 46779 46827 46831 46822 46830 46850 46831 46772 46746 46764 46833 46861 46868 46870 46879 46903 46912 46924 46879 46918 46922 46954 47011 47009 46970 46937 46894 46864 46868 46926 46899 46885 46854 46864 46892 46891 46869 46838 46863 46916 46946 46929 46936 46932 46856 46805 46765 46791 46812 46800 46800 46797 46798 46808 46817 46752 46728 46736 46730 46788 46924 46803 46737 46681 46645 46574 46555 46626 46612 46573 46557 46551 46593 46622 46581 46499 46514 46498 46574 46657 46490 46475 46430 46343 46257 46264 46304 46295 46325 46320 46320 46340 46341 46340 46242 46234 46228 46240 46273 46255 46233 46186 46060 45996 45985 46086 46099 46116 46141 46167 46202 46230 46199 46048 46017 46004 46016 46104 46109 46052 46005 45996 45870 45815 45860 45886 45839 45796 45807 45835 45869 45860 45759 45760 45747 45745 45850 45923 45837 45656 45629 45564 45507 45579 45596 45579 45591 45617 45633 45677 45655 45550 45517 45498 45499 45504 45508 45520 45516 45522 45468 45398 45429 45483 45445 45448 45477 45499 45560 45569 45521 45525 45524 45520 45484 45441 45443 45436 45426 45415 45386 45432 45512 45516 45524 45524 45533 45560 45557 45529 45515 45532 45544 45555 45579 45582 45583 45567 45542 45522 45559 45610 45578 45594 45629 45697 45786 45807 45780 45776 45809 45832 45827 45800 45811 45819 45856 45827 45788 45885 45981 45992 45981 45991 46032 46094 46078 46011 46046 46107 46159 46188 46200 46199 46171 46175 46120 46124 46215 46279 46275 46286 46326 46367 46402 46387 46334 46355 46358 46379 46458 46507 46422 46395 46404 46362 46337 46427 46454 46421 46400 46420 46459 46532 46541 46492 46553 46567 46618 46603 46603 46589 46569 46584 46571 46532 46616 46641 46628 46619 46648 46682 46706 46695 46653 46672 46675 46709 46703 46787 46719 46675 46732 46651 46643 46714 46720 46689 46676 46682 46709 46754 46784 46727 46726 46705 46686 46667 46654 46668 46654 46638 46604 46578 46651 46706 46712 46740 46763 46772 46797 46769 46706 46707 46730 46755 46763 46770 46770 46742 46713 46655 46600 46628 46683 46663 46645 46646 46681 46743 46716 46653 46654 46665 46657 46788 46893 46804 46593 46607 46532 46477 46551 46543 46500 46453 46464 46485 46510 46479 46420 46440 46493 46505 46488 46535 46562 46407 46394 46324 46247 46361 46415 46389 46372 46383 46406 46404 46317 46275 46276 46283 46289 46284 46248 46247 46232 46256 46202 46132 46212 46185 46118 46087 46077 46129 46136 46090 46101 46109 46126 46115 46076 46056 46033 46015 45924 45883 45928 46019 46019 46022 46033 46051 46059 46032 46078 46078 46082 46094 46099 46051 46062 46030 46024 45905 45892 45962 45970 45963 45970 45980 45999 46027 46029 45997 46005 46005 46010 46007 46005 45981 45992 45987 45954 45952 46059 46097 46085 46076 46095 46169 46177 46156 46138 46190 46216 46249 46256 46241 46232 46214 46149 46111 46195 46223 46243 46266 46282 46317 46377 46393 46366 46354 46395 46432 46454 46453 46500 46471 46465 46455 46483 46514 46503 46505 46502 46521 46526 46575 46570 46570 46546 46613 46681 46691 46688 46684 46634 46568 46518 46506 46518 46521 46577 46611 46650 46692 46742 46666 46629 46633 46689 46729 46770 46770 46788 46779 46741 46690 46681 46720 46769 46801 46817 46814 46851 46877 46861 46836 46862 46879 46887 46901 46897 46894 46848 46833 46774 46821 46874 46862 46834 46834 46803 46814 46822 46803 46776 46762 46741 46726 46703 46683 46655 46630 46604 46548 46499 46443 46468 46431 46419 46456 46521 46541 46497 46431 46433 46420 46395 46371 46342 46320 46290 46273 46211 46209 46214 46264 46293 46303 46308 46305 46294 46267 46261 46255 46264 46275 46278 46269 46243 46183 46124 46019 45981 45980 46001 46023 46049 46070 46118 46103 46037 45980 45932 45878 45861 45851 45858 45856 45841 45799 45745 45752 45782 45797 45814 45802 45808 45846 45835 45787 45751 45780 45791 45791 45766 45747 45718 45702 45657 45600 45597 45650 45704 45731 45741 45758 45777 45745 45700 45654 45671 45686 45707 45718 45769 45743 45750 45724 45703 45755 45779 45771 45767 45774 45786 45830 45848 45847 45837 45850 45856 45859 45845 45850 45841 45867 45897 45887 45926 45937 45945 45925 45916 45939 45996 46028 46050 46074 46080 46082 46069 46068 46079 46053 46016 46017 46002 46038 46073 46100 46115 46171 46245 46256 46234 46228 46228 46247 46269 46350 46384 46314 46295 46308 46299 46377 46383 46374 46357 46329 46387 46434 46437 46406 46437 46458 46454 46441 46453 46437 46413 46417 46395 46399 46443 46433 46404 46417 46436 46489 46511 46485 46425 46426 46429 46430 46440 46453 46433 46401 46391 46357 46340 46389 46386 46372 46357 46354 46366 46389 46345 46298 46304 46304 46289 46303 46366 46254 46218 46204 46167 46178 46273 46314 46324 46335 46363 46392 46383 46419 46393 46391 46412 46421 46384 46376 46335 46264 46245 46155 46135 46204 46206 46200 46224 46270 46332 46309 46258 46244 46211 46188 46156 46132 46103 46073 46054 45998 45967 46006 46007 45992 45976 45954 45956 45965 45937 45944 45944 45947 45964 45988 46052 45978 45950 45893 45804 45799 45800 45844 45885 45919 45953 45966 45964 45883 45854 45856 45887 45904 45935 45945 45962 45964 45917 45919 45951 45919 45930 45944 45954 45946 45968 45969 45966 45977 46004 45994 45999 45990 45964 45944 45907 45935 45912 45986 46047 46065 46061 46073 46128 46140 46121 46119 46107 46131 46148 46179 46252 46267 46210 46197 46201 46186 46214 46249 46275 46295 46338 46392 46413 46402 46383 46415 46477 46538 46580 46581 46584 46589 46562 46535 46571 46636 46690 46716 46736 46773 46778 46786 46818 46803 46842 46881 46903 46896 46939 46940 46943 46981 46924 46943 46988 46985 46956 46950 46987 47011 46970 46907 46901 46908 46913 46891 46896 46889 46878 46880 46889 46963 46869 46882 46858 46842 46822 46862 46822 46793 46778 46771 46779 46844 46843 46786 46732 46686 46627 46577 46596 46602 46573 46582 46579 46603 46619 46597 46520 46481 46457 46418 46366 46341 46319 46300 46268 46208 46304 46327 46330 46338 46344 46350 46358 46318 46278 46269 46258 46243 46239 46233 46234 46182 46125 46049 46077 46138 46095 46064 46038 46010 46068 46048 46038 45967 45913 45865 45798 45738 45701 45676 45662 45659 45618 45661 45701 45685 45627 45602 45600 45631 45618 45589 45560 45538 45534 45515 45577 45496 45438 45422 45381 45306 45342 45345 45330 45319 45361 45413 45461 45483 45442 45385 45368 45310 45333 45418 45297 45306 45336 45322 45359 45426 45455 45431 45442 45480 45517 45529 45557 45553 45570 45593 45595 45591 45559 45531 45491 45500 45463 45494 45583 45599 45584 45616 45696 45746 45689 45677 45663 45688 45683 45772 45841 45732 45719 45741 45761 45731 45776 45799 45795 45787 45809 45889 45904 45942 45951 45951 45949 46051 46158 46067 45964 45935 45898 45796 45873 45923 45910 45952 46004 46050 46086 46113 46098 46080 46088 46081 46154 46186 46159 46163 46143 46089 46104 46208 46230 46248 46258 46262 46324 46359 46348 46328 46335 46341 46345 46334 46320 46321 46319 46314 46290 46266 46350 46389 46384 46384 46395 46420 46450 46431 46404 46407 46390 46396 46383 46370 46359 46341 46321 46284 46291 46348 46355 46352 46392 46467 46551 46575 46567 46562 46578 46588 46589 46605 46626 46631 46632 46621 46598 46626 46669 46634 46647 46674 46736 46775 46740 46719 46724 46750 46764 46757 46746 46729 46724 46700 46712 46689 46761 46822 46790 46780 46793 46842 46861 46846 46853 46845 46866 46867 46867 46866 46858 46832 46793 46768 46739 46784 46799 46788 46788 46830 46901 46895 46880 46850 46833 46850 46844 46878 46850 46850 46819 46739 46688 46688 46718 46750 46771 46789 46772 46784 46718 46666 46668 46686 46733 46722 46708 46696 46669 46629 46553 46501 46485 46509 46533 46532 46558 46576 46568 46486 46458 46440 46452 46464 46468 46452 46462 46471 46418 46326 46264 46298 46302 46305 46308 46315 46314 46282 46235 46197 46194 46160 46149 46113 46049 46042 46008 45955 45886 45905 45944 45922 45900 45874 45854 45858 45790 45723 45691 45691 45695 45692 45675 45661 45626 45600 45561 45522 45593 45580 45562 45573 45587 45621 45640 45597 45531 45494 45446 45417 45373 45348 45324 45348 45375 45332 45362 45356 45315 45270 45255 45275 45332 45344 45393 45362 45342 45320 45310 45278 45219 45229 45226 45226 45239 45362 45421 45403 45427 45477 45543 45564 45583 45578 45572 45599 45613 45645 45656 45657 45663 45648 45626 45647 45674 45771 45813 45883 45942 45990 46018 46048 46076 46112 46121 46113 46152 46219 46249 46251 46229 46213 46234 46293 46346 46385 46413 46434 46455 46448 46435 46432 46481 46526 46643 46779 46690 46668 46643 46597 46534 46619 46682 46710 46684 46686 46717 46759 46692 46621 46620 46669 46689 46718 46721 46732 46719 46659 46631 46650 46660 46724 46724 46719 46745 46778 46782 46740 46729 46753 46776 46845 46936 46998 46920 46806 46773 46753 46801 46811 46793 46777 46772 46762 46745 46703 46622 46579 46580 46587 46589 46581 46551 46525 46499 46453 46408 46403 46404 46375 46350 46345 46374 46391 46377 46323 46291 46228 46187 46160 46130 46081 46059 46042 45987 46021 46110 46126 46087 46059 46034 46038 46060 46040 46018 46021 46004 46051 46133 46075 45885 45818 45762 45672 45652 45701 45694 45677 45683 45699 45703 45651 45575 45475 45415 45398 45373 45343 45326 45307 45289 45289 45217 45286 45342 45328 45307 45344 45388 45459 45469 45439 45429 45391 45373 45333 45310 45300 45306 45305 45309 45313 45403 45467 45466 45442 45448 45488 45524 45532 45529 45537 45539 45567 45563 45556 45535 45475 45459 45434 45412 45545 45596 45598 45622 45673 45754 45752 45739 45722 45742 45778 45834 45958 45842 45781 45759 45774 45737 45757 45830 45795 45747 45772 45810 45860 45880 45881 45871 45878 45860 45962 45979 45849 45798 45819 45775 45773 45866 45952 45968 45962 46015 46067 46078 46041 46014 46035 46068 46086 46079 46083 46085 46045 46011 45993 46013 46131 46156 46128 46140 46185 46232 46248 46221 46178 46173 46190 46179 46192 46184 46174 46178 46193 46141 46249 46256 46268 46259 46255 46274 46337 46324 46296 46293 46307 46293 46284 46267 46218 46239 46210 46168 46177 46252 46289 46291 46281 46273 46306 46313 46295 46277 46224 46211 46205 46235 46194 46156 46156 46151 46128 46130 46144 46139 46123 46174 46229 46314 46363 46330 46304 46335 46293 46287 46258 46240 46199 46188 46165 46131 46158 46195 46142 46107 46151 46213 46278 46341 46313 46288 46302 46287 46271 46295 46284 46256 46209 46261 46204 46200 46250 46238 46228 46221 46240 46289 46327 46324 46337 46340 46284 46337 46337 46321 46262 46204 46197 46122 46149 46206 46167 46203 46249 46326 46373 46372 46348 46345 46314 46289 46271 46235 46212 46202 46147 46063 46078 46032 46039 46050 46105 46176 46240 46270 46263 46288 46293 46280 46274 46308 46285 46251 46249 46255 46216 46265 46330 46342 46355 46357 46381 46419 46407 46368 46339 46365 46351 46420 46452 46374 46354 46279 46213 46159 46218 46284 46327 46393 46470 46533 46546 46522 46497 46473 46480 46513 46533 46598 46573 46567 46566 46506 46465 46539 46556 46531 46522 46546 46574 46599 46580 46558 46584 46569 46570 46533 46524 46492 46455 46427 46353 46397 46505 46464 46456 46447 46449 46461 46429 46391 46343 46322 46319 46309 46274 46250 46228 46199 46134 46048 46087 46108 46079 46115 46143 46223 46257 46284 46253 46184 46133 46091 46074 46035 46001 46008 45982 45957 45907 45949 45902 45857 45826 45839 45889 45918 45906 45822 45790 45738 45657 45576 45560 45493 45469 45468 45416 45441 45499 45454 45466 45503 45509 45521 45499 45483 45421 45395 45387 45360 45342 45322 45292 45227 45102 45088 45140 45139 45177 45207 45262 45321 45364 45367 45303 45280 45215 45235 45304 45271 45195 45180 45202 45194 45140 45223 45219 45182 45187 45227 45270 45295 45346 45354 45358 45350 45330 45283 45235 45220 45188 45193 45148 45180 45280 45313 45326 45358 45406 45433 45421 45388 45346 45359 45364 45350 45369 45391 45429 45453 45452 45383 45470 45498 45492 45553 45607 45667 45724 45753 45774 45774 45786 45786 45755 45744 45775 45787 45825 45829 45800 45903 45927 45926 45951 46002 46054 46092 46120 46104 46151 46164 46176 46232 46256 46190 46166 46177 46128 46122 46259 46299 46320 46355 46397 46454 46469 46452 46407 46391 46404 46542 46607 46540 46444 46473 46449 46396 46462 46501 46512 46530 46578 46623 46674 46663 46599 46590 46616 46674 46705 46731 46757 46755 46734 46717 46700 46734 46836 46836 46844 46841 46850 46857 46855 46850 46824 46800 46780 46769 46757 46747 46707 46676 46624 46549 46601 46614 46606 46609 46650 46692 46710 46698 46650 46632 46591 46568 46540 46523 46499 46443 46441 46376 46374 46387 46383 46363 46363 46362 46390 46358 46312 46283 46240 46245 46225 46178 46119 46049 45973 45906 45812 45824 45888 45842 45834 45826 45884 45915 45865 45749 45672 45616 45558 45524 45496 45484 45470 45468 45484 45370 45381 45367 45314 45313 45361 45406 45452 45454 45453 45421 45349 45269 45171 45092 45083 45057 45077 45038 45020 45110 45133 45129 45137 45137 45144 45119 45095 45043 45006 44992 44992 44955 44957 44915 44850 44815 44757 44700 44769 44802 44792 44823 44874 44936 44968 44945 44873 44831 44772 44746 44744 44743 44786 44801 44839 44806 44810 44794 44747 44708 44730 44771 44863 44930 44996 44960 44953 44911 44868 44871 44841 44826 44889 44900 44884 44911 45038 45053 45077 45092 45100 45144 45184 45197 45224 45273 45265 45255 45262 45274 45257 45259 45213 45213 45270 45333 45405 45436 45485 45540 45604 45603 45599 45609 45640 45672 45700 45715 45734 45732 45727 45728 45688 45731 45814 45842 45815 45856 45908 45970 45979 46032 46047 46050 46030 46033 45992 45963 45967 45988 45979 45935 46021 46032 46017 46014 46038 46110 46187 46179 46135 46195 46206 46241 46247 46260 46261 46233 46228 46251 46279 46264 46276 46267 46256 46310 46363 46417 46441 46400 46412 46419 46432 46489 46488 46413 46400 46421 46386 46457 46553 46580 46581 46632 46681 46729 46723 46726 46716 46748 46757 46761 46777 46771 46764 46749 46705 46681 46709 46733 46770 46751 46731 46722 46724 46702 46702 46680 46696 46721 46734 46748 46771 46770 46738 46688 46646 46654 46744 46766 46765 46794 46821 46812 46768 46708 46651 46631 46628 46612 46596 46590 46554 46532 46447 46330 46319 46308 46256 46241 46244 46263 46274 46261 46184 46118 46034 45936 45863 45798 45765 45733 45701 45626 45584 45639 45685 45659 45644 45630 45627 45603 45562 45515 45489 45479 45451 45416 45364 45297 45240 45218 45120 45162 45215 45206 45247 45309 45340 45336 45265 45190 45124 45091 45085 45074 45072 45090 45105 45098 45083 44970 44993 45001 44991 44976 45001 45051 45091 45123 45120 45066 45050 45025 44991 44949 44950 44986 45014 45043 45050 45145 45200 45181 45194 45223 45268 45361 45363 45361 45391 45415 45470 45508 45527 45520 45497 45480 45485 45443 45548 45641 45669 45725 45773 45825 45881 45851 45805 45837 45881 45895 45932 45957 45978 46011 46059 46008 45999 46023 46021 46027 46043 46093 46161 46193 46170 46121 46159 46189 46181 46195 46210 46217 46176 46186 46165 46242 46266 46288 46331 46324 46348 46392 46406 46392 46386 46417 46423 46444 46460 46451 46442 46416 46400 46368 46387 46469 46492 46470 46518 46550 46589 46575 46559 46552 46588 46563 46552 46542 46539 46512 46508 46482 46469 46553 46618 46619 46641 46678 46732 46721 46681 46675 46694 46690 46681 46659 46645 46611 46581 46586 46507 46487 46549 46607 46645 46660 46692 46685 46669 46620 46595 46599 46590 46648 46667 46688 46631 46561 46469 46337 46302 46288 46330 46338 46373 46394 46410 46377 46361 46287 46232 46193 46176 46172 46170 46145 46140 46120 46033 46030 46023 46007 45983 46013 46028 46052 46022 46009 46007 45974 45949 45909 45861 45839 45781 45726 45677 45664 45697 45710 45717 45741 45731 45711 45704 45654 45611 45611 45582 45601 45629 45671 45669 45590 45526 45451 45391 45446 45448 45432 45448 45476 45530 45544 45508 45422 45384 45372 45355 45351 45358 45362 45332 45353 45335 45389 45351 45343 45319 45341 45387 45431 45432 45401 45412 45439 45447 45453 45444 45411 45370 45361 45343 45349 45381 45472 45505 45510 45541 45576 45591 45562 45527 45521 45547 45548 45596 45666 45600 45627 45585 45538 45532 45578 45576 45537 45566 45615 45683 45736 45732 45669 45692 45721 45752 45765 45812 45830 45805 45839 45836 45885 45902 45902 45879 45876 45914 45952 45981 45957 45910 45966 46015 46034 46016 46014 45993 45957 45965 45964 46037 46100 46112 46122 46155 46169 46181 46165 46146 46140 46132 46161 46163 46142 46146 46138 46092 46062 46072 46132 46131 46145 46136 46152 46178 46189 46204 46179 46165 46166 46151 46169 46232 46240 46252 46298 46339 46314 46370 46416 46419 46392 46419 46458 46522 46554 46578 46588 46596 46597 46574 46549 46528 46492 46509 46501 46425 46512 46563 46531 46496 46499 46517 46526 46513 46500 46493 46463 46459 46434 46406 46375 46339 46332 46312 46286 46346 46317 46257 46291 46310 46349 46341 46282 46192 46147 46096 46054 46000 45976 45955 45921 45912 45828 45810 45827 45773 45730 45762 45822 45905 45920 45919 45888 45838 45748 45680 45630 45599 45577 45576 45538 45499 45575 45655 45677 45624 45594 45608 45641 45617 45620 45619 45589 45597 45572 45524 45454 45394 45358 45325 45287 45387 45403 45393 45415 45467 45490 45496 45475 45408 45357 45326 45308 45263 45260 45241 45238 45240 45165 45127 45140 45103 45099 45125 45192 45283 45331 45343 45315 45275 45233 45203 45216 45158 45178 45194 45212 45178 45208 45284 45280 45257 45258 45302 45380 45437 45453 45449 45469 45497 45516 45481 45482 45467 45491 45479 45448 45523 45625 45682 45721 45776 45815 45844 45867 45851 45868 45893 45919 45948 45960 45969 45957 45923 45867 45849 45930 45950 45994 46012 46067 46104 46141 46163 46171 46149 46131 46173 46166 46154 46151 46120 46134 46142 46128 46240 46251 46224 46226 46225 46255 46314 46277 46277 46276 46311 46330 46299 46270 46234 46212 46203 46175 46205 46308 46293 46297 46313 46340 46377 46388 46392 46390 46384 46380 46385 46379 46365 46359 46321 46336 46294 46333 46378 46345 46393 46463 46554 46598 46585 46602 46609 46601 46620 46594 46559 46556 46532 46504 46509 46479 46486 46500 46455 46391 46370 46425 46476 46475 46433 46453 46407 46371 46313 46254 46213 46187 46178 46147 46150 46214 46161 46138 46102 46115 46157 46182 46185 46142 46132 46123 46085 46069 46029 46007 45974 45962 45923 45871 45861 45839 45818 45824 45864 45904 45864 45788 45727 45692 45645 45595 45558 45521 45522 45503 45448 45364 45384 45402 45383 45370 45378 45431 45456 45463 45388 45308 45210 45119 45055 45041 45090 45121 45095 45095 45168 45286 45339 45279 45224 45233 45276 45308 45301 45254 45241 45200 45157 45120 45065 45029 44995 44939 44916 45044 45006 45008 45016 45028 45040 45049 45035 44948 44924 44885 44828 44797 44805 44830 44854 44820 44778 44828 44833 44823 44829 44884 44961 45075 45106 45112 45083 45086 45079 45048 45035 45068 45108 45147 45154 45142 45258 45337 45337 45365 45427 45489 45556 45588 45630 45662 45673 45698 45705 45680 45651 45637 45645 45649 45658 45741 45811 45801 45831 45874 45927 45940 45936 45889 45892 45914 45917 45932 45928 45967 45964 45970 45960 46001 46082 46108 46102 46109 46152 46212 46244 46228 46223 46203 46214 46201 46214 46187 46174 46179 46187 46229 46244 46285 46246 46215 46253 46329 46379 46396 46418 46422 46425 46420 46372 46319 46300 46298 46296 46275 46211 46263 46282 46221 46214 46244 46303 46346 46334 46331 46319 46302 46286 46242 46217 46262 46246 46228 46190 46134 46138 46125 46088 46102 46179 46264 46309 46329 46276 46233 46181 46132 46091 46074 46082 46087 46110 46084 46114 46128 46096 46012 45982 46036 46074 46058 46001 45994 45968 45942 45916 45875 45705 45705 45669 45645 45626 45679 45722 45690 45676 45723 45731 45714 45638 45563 45530 45437 45370 45339 45328 45371 45365 45316 45234 45206 45181 45164 45140 45145 45175 45213 45233 45174 45076 44971 44866 44764 44709 44733 44766 44764 44768 44737 44788 44774 44703 44617 44637 44676 44727 44752 44757 44740 44683 44646 44553 44480 44418 44390 44374 44345 44375 44465 44494 44509 44565 44645 44705 44698 44687 44689 44666 44647 44628 44616 44628 44673 44695 44669 44637 44644 44666 44645 44676 44758 44868 44962 44994 45001 44971 44925 44883 44855 44817 44860 44911 44928 44932 44940 44999 45030 44982 44984 45038 45138 45205 45214 45218 45252 45247 45241 45209 45174 45165 45135 45112 45113 45119 45139 45132 45134 45186 45249 45295 45286 45273 45283 45309 45299 45275 45276 45302 45341 45378 45346 45444 45571 45607 45660 45717 45795 45888 45934 45953 45969 46004 46000 45994 45968 45967 45941 45917 45918 45916 45951 46025 46025 45995 46011 46072 46138 46159 46165 46192 46172 46167 46154 46088 46047 46006 45958 45965 45931 45936 45967 45920 45913 45939 45983 46036 46026 45975 45958 45932 45875 45848 45825 45845 45858 45839 45792 45785 45791 45723 45713 45784 45881 45975 45993 45966 45915 45877 45816 45730 45684 45687 45686 45675 45649 45628 45643 45641 45567 45519 45543 45620 45661 45676 45668 45617 45552 45509 45417 45327 45289 45238 45213 45177 45135 45143 45102 45065 45144 45245 45322 45330 45289 45241 45210 45163 45103 45070 45052 45069 45076 45029 44955 44847 44747 44673 44621 44655 44738 44837 44898 44848 44725 44544 44419 44335 44294 44311 44341 44347 44336 44380 44468 44435 44324 44252 44285 44349 44423 44447 44438 44427 44387 44348 44243 44151 44093 44040 43998 44006 44037 44072 44084 44112 44192 44244 44252 44246 44216 44154 44122 44072 44038 44035 44063 44095 44082 43963 43940 43973 44034 44104 44206 44273 44348 44396 44415 44368 44285 44180 44095 44049 44026 44037 44058 44065 44084 44145 44172 44142 44094 44099 44149 44228 44277 44318 44324 44332 44278 44215 44141 44098 44115 44100 44116 44128 44152 44149 44171 44241 44320 44375 44408 44412 44399 44393 44365 44339 44321 44307 44338 44338 44322 44278 44288 44366 44373 44376 44436 44543 44649 44736 44736 44664 44643 44596 44563 44552 44592 44513 44539 44558 44549 44632 44686 44672 44665 44733 44843 44948 45018 45035 45050 45060 45028 44970 44916 44907 44923 44936 44959 44982 45160 45294 45356 45416 45468 45531 45589 45623 45659 45700 45733 45760 45738 45735 45692 45631 45589 45572 45566 45595 45591 45570 45588 45688 45808 45841 45805 45774 45767 45755 45734 45716 45687 45710 45730 45727 45750 45821 45866 45899 45916 45969 46054 46104 46148 46168 46197 46167 46122 46059 46035 46008 45987 45939 45937 45988 46053 46065 46025 45998 46005 46054 46095 46095 46099 46127 46120 46077 46079 46151 46027 45880 45804 45747 45727 45781 45807 45796 45796 45827 45844 45809 45730 45672 45609 45560 45497 45435 45412 45416 45412 45323 45201 45136 45100 45055 45018 45060 45117 45210 45260 45264 45165 45037 44884 44747 44671 44680 44707 44722 44694 44709 44773 44769 44691 44580 44517 44577 44620 44634 44557 44534 44438 44334 44179 44059 44012 43985 43915 43898 43994 44036 44041 44045 44115 44149 44179 44163 44130 44120 44091 44041 43982 43961 43972 44027 44003 43932 43852 43823 43791 43775 43830 43932 44043 44181 44223 44162 44075 44047 44014 43983 43990 44031 44104 44146 44200 44216 44256 44259 44248 44263 44313 44403 44498 44520 44535 44554 44531 44468 44410 44335 44340 44369 44387 44401 44436 44509 44521 44536 44567 44638 44724 44793 44807 44797 44827 44830 44822 44801 44817 44863 44880 44859 44871 44896 44922 44935 44954 45032 45149 45256 45315 45309 45301 45295 45276 45247 45239 45276 45328 45352 45377 45397 45424 45420 45346 45334 45408 45531 45610 45656 45676 45684 45662 45602 45531 45523 45544 45544 45554 45563 45692 45790 45807 45778 45807 45856 45919 45928 45890 45924 45932 45923 45904 45869 45875 45857 45860 45831 45901 46035 46119 46157 46174 46225 46295 46338 46298 46259 46276 46289 46267 46253 46241 46246 46236 46225 46183 46218 46289 46290 46265 46267 46306 46371 46403 46413 46394 46353 46266 46188 46173 46120 46060 46025 46000 45978 46004 46080 45986 45964 45961 45978 46042 46065 46049 46005 45966 45891 45840 45840 45719 45654 45640 45634 45597 45645 45679 45649 45666 45726 45746 45754 45696 45609 45541 45473 45427 45366 45334 45347 45375 45338 45264 45185 45233 45238 45195 45238 45314 45411 45459 45438 45386 45267 45151 45071 45033 45060 44995 45041 45059 45057 45066 45130 45102 45033 45016 45083 45175 45226 45223 45204 45189 45181 45107 45049 45023 45051 45056 45061 45051 45111 45168 45174 45221 45273 45325 45359 45328 45294 45291 45282 45303 45390 45425 45348 45349 45332 45347 45280 45348 45350 45330 45374 45469 45539 45550 45521 45440 45392 45438 45425 45406 45427 45444 45445 45481 45528 45526 45625 45682 45681 45693 45758 45837 45872 45874 45892 45924 45917 45918 45858 45846 45850 45866 45868 45868 45855 45922 45903 45900 45938 45987 46049 46052 46066 46073 46100 46090 46042 46016 46021 46051 46054 46015 45971 45955 46042 46019 46018 46075 46131 46208 46229 46210 46136 46104 46062 46041 46041 46051 46083 46061 46074 46039 46066 46098 46141 46158 46162 46172 46201 46243 46290 46313 46312 46318 46304 46285 46309 46289 46272 46268 46237 46239 46252 46257 46248 46207 46186 46183 46190 46178 46187 46185 46182 46252 46286 46254 46206 46147 46065 46002 46065 46080 46064 46112 46140 46159 46116 45921 45756 45722 45677 45648 45636 45622 45632 45622 45638 45461 45386 45380 45306 45316 45325 45365 45452 45440 45360 45282 45160 45069 44941 44920 44911 44936 44941 44851 44889 44954 44952 44951 44940 44930 44951 44941 44901 44866 44840 44810 44817 44818 44807 44745 44704 44620 44567 44628 44683 44760 44847 44920 45003 45016 44969 44865 44814 44778 44773 44807 44828 44884 44938 44962 44905 44846 44876 44883 44882 44920 44997 45086 45178 45251 45260 45296 45224 45173 45161 45172 45205 45245 45275 45253 45271 45396 45457 45461 45488 45525 45564 45637 45712 45750 45731 45679 45717 45719 45728 45743 45737 45746 45717 45745 45845 45877 45903 45974 46043 46094 46104 46097 46108 46140 46151 46169 46200 46248 46274 46263 46237 46193 46234 46332 46325 46329 46400 46451 46502 46513 46499 46511 46545 46543 46554 46554 46551 46551 46564 46556 46514 46604 46670 46671 46667 46679 46715 46738 46721 46701 46688 46705 46657 46661 46648 46608 46587 46641 46602 46585 46591 46617 46622 46644 46711 46745 46745 46679 46610 46623 46669 46808 46829 46700 46659 46657 46615 46485 46562 46569 46571 46627 46677 46726 46777 46791 46720 46696 46656 46605 46640 46694 46555 46487 46488 46437 46408 46521 46555 46565 46558 46534 46557 46571 46556 46503 46473 46459 46440 46436 46401 46309 46231 46152 46032 46043 46104 46168 46232 46277 46311 46318 46219 46122 46042 46006 45981 45973 45989 46003 46029 46037 45929 45804 45753 45708 45701 45727 45790 45825 45863 45847 45768 45688 45589 45506 45412 45375 45369 45341 45347 45346 45294 45357 45353 45284 45245 45204 45247 45278 45272 45196 45170 45156 45142 45096 45031 44984 44959 44924 44910 44898 45025 45078 45102 45141 45187 45211 45178 45120 45044 45036 45024 45071 45085 45123 45140 45152 45102 45006 45071 45154 45158 45192 45265 45344 45429 45472 45404 45417 45415 45435 45461 45567 45579 45507 45518 45437 45524 45673 45650 45684 45729 45777 45859 45886 45838 45888 45902 45933 45961 45968 45983 45973 45965 45934 45904 46046 46172 46205 46245 46268 46303 46348 46332 46325 46346 46375 46379 46421 46435 46451 46400 46427 46377 46344 46451 46452 46441 46485 46530 46593 46615 46543 46508 46525 46496 46513 46515 46514 46528 46520 46497 46450 46546 46623 46607 46618 46666 46703 46737 46726 46657 46679 46679 46687 46811 46832 46680 46666 46682 46550 46525 46667 46742 46742 46776 46797 46791 46781 46738 46662 46686 46661 46778 46835 46703 46687 46712 46630 46527 46583 46506 46511 46565 46619 46703 46735 46694 46574 46513 46474 46414 46402 46417 46434 46430 46342 46300 46323 46368 46372 46356 46394 46408 46425 46422 46425 46411 46425 46417 46408 46308 46255 46215 46166 46100 46070 46150 46175 46181 46221 46185 46153 46076 46006 45965 45915 45883 45858 45857 45867 45874 45797 45639 45568 45581 45588 45599 45647 45683 45742 45803 45785 45651 45508 45435 45376 45423 45456 45384 45373 45371 45364 45374 45407 45403 45422 45445 45480 45524 45543 45529 45502 45497 45500 45450 45395 45320 45266 45243 45266 45196 45264 45269 45342 45403 45397 45371 45390 45355 45292 45242 45244 45207 45187 45207 45274 45225 45201 45117 45061 45095 45086 45133 45196 45272 45341 45400 45365 45273 45226 45190 45147 45145 45188 45226 45231 45203 45164 45222 45296 45327 45331 45348 45399 45439 45439 45427 45437 45476 45495 45533 45537 45583 45581 45604 45590 45633 45733 45822 45857 45896 45908 45907 45905 45916 45930 45995 46004 46042 46117 46022 45984 45923 45870 45860 45964 46016 46010 46045 46118 46177 46149 46079 46076 46041 46045 46018 45999 46033 46040 46070 46045 46035 46110 46188 46161 46168 46197 46255 46258 46241 46206 46192 46138 46137 46154 46070 46093 46077 46040 45937 45953 45943 45902 45909 45913 45948 46034 46053 46042 46013 45986 45968 46005 45994 45879 45889 45880 45781 45775 45853 45849 45833 45887 45948 45994 45962 45880 45769 45724 45690 45673 45694 45672 45748 45740 45704 45628 45710 45723 45684 45700 45784 45885 45981 46008 45977 45877 45822 45747 45668 45640 45637 45663 45673 45661 45675 45746 45735 45649 45639 45674 45734 45778 45759 45692 45665 45594 45484 45370 45290 45261 45265 45234 45217 45271 45347 45373 45389 45399 45379 45364 45300 45267 45196 45116 45055 45040 44996 44957 44911 44837 44760 44713 44776 44769 44774 44833 44968 45077 45059 44954 44825 44745 44688 44636 44632 44652 44697 44740 44749 44663 44663 44723 44715 44766 44871 44989 45100 45117 45107 45045 44951 44853 44786 44771 44770 44798 44811 44808 44795 44918 44975 44934 44890 44931 45009 45095 45102 45082 45052 45054 45024 44976 44961 44942 44956 44935 44960 45018 45106 45159 45187 45243 45309 45346 45322 45308 45276 45267 45238 45224 45210 45225 45258 45251 45214 45184 45278 45334 45382 45431 45531 45629 45683 45647 45604 45536 45519 45483 45442 45422 45419 45426 45442 45430 45465 45558 45538 45525 45579 45655 45756 45804 45778 45757 45743 45696 45635 45590 45581 45608 45607 45598 45582 45693 45799 45811 45827 45869 45887 45917 45890 45858 45849 45833 45791 45805 45761 45753 45692 45680 45640 45688 45800 45810 45820 45906 46002 46070 46067 46009 45945 45904 45871 45850 45854 45888 45932 45960 45934 45895 45909 45992 45955 45926 45981 46060 46146 46168 46166 46153 46083 45977 45900 45844 45861 45871 45891 45881 45900 45940 45956 45957 45963 45960 45991 46014 46015 46027 46006 45993 45980 45912 45837 45788 45748 45718 45715 45736 45784 45791 45805 45820 45800 45776 45737 45679 45619 45584 45532 45510 45488 45486 45472 45405 45316 45273 45296 45354 45360 45397 45450 45514 45547 45482 45328 45182 45050 44953 44941 44904 44944 44982 44995 45002 45011 44981 44914 44898 44919 45000 45059 45075 45072 44999 44912 44772 44618 44573 44568 44580 44601 44608 44641 44689 44701 44710 44714 44718 44734 44737 44721 44703 44625 44536 44479 44465 44462 44368 44345 44267 44267 44345 44399 44406 44510 44629 44743 44775 44705 44571 44509 44482 44496 44495 44531 44581 44604 44646 44650 44627 44588 44608 44637 44712 44791 44892 44936 44955 44943 44886 44787 44658 44609 44614 44630 44638 44661 44706 44777 44846 44878 44850 44848 44894 44938 44955 44962 44945 44934 44918 44891 44841 44827 44815 44791 44757 44771 44837 44870 44911 45021 45125 45177 45144 45108 45073 45067 45038 45030 45063 45055 45128 45137 45107 45047 45054 45066 45019 45083 45180 45290 45384 45385 45311 45176 45085 45009 44971 44995 45026 45095 45125 45121 45227 45324 45371 45398 45430 45498 45590 45631 45667 45670 45698 45715 45642 45577 45499 45500 45524 45510 45559 45650 45721 45756 45781 45809 45821 45814 45816 45804 45788 45757 45741 45737 45748 45769 45756 45657 45646 45708 45759 45804 45841 45901 45997 46060 46031 45958 45861 45771 45715 45670 45649 45647 45688 45689 45702 45715 45695 45699 45694 45739 45800 45880 45923 45925 45920 45870 45750 45606 45483 45447 45464 45479 45475 45514 45567 45592 45612 45624 45607 45589 45619 45630 45614 45603 45593 45560 45505 45438 45336 45260 45187 45151 45147 45184 45196 45185 45241 45333 45380 45333 45223 45077 44988 44923 44882 44902 44872 44897 44938 44903 44806 44759 44789 44774 44765 44844 44946 45053 45100 45077 44925 44705 44522 44407 44406 44428 44486 44515 44513 44528 44609 44633 44552 44459 44445 44529 44628 44694 44682 44660 44608 44563 44431 44308 44242 44215 44222 44186 44219 44339 44439 44462 44506 44504 44469 44422 44368 44293 44241 44221 44221 44201 44237 44254 44178 44049 43930 43943 43985 43983 44031 44167 44289 44398 44353 44172 44073 43985 43979 43958 44018 44072 44143 44172 44206 44324 44391 44333 44276 44302 44412 44523 44585 44567 44565 44578 44547 44485 44420 44394 44447 44470 44479 44532 44653 44716 44726 44748 44799 44845 44881 44893 44860 44857 44858 44860 44890 44924 44891 44871 44842 44789 44863 44944 44962 45010 45101 45205 45299 45289 45220 45111 45070 45054 45038 45081 45104 45147 45179 45170 45123 45156 45168 45134 45159 45266 45387 45478 45494 45492 45398 45294 45203 45163 45163 45238 45308 45340 45366 45433 45529 45546 45498 45511 45561 45611 45674 45680 45673 45642 45580 45523 45464 45441 45465 45500 45535 45585 45656 45737 45799 45867 45886 45873 45875 45860 45872 45857 45850 45841 45808 45804 45774 45716 45633 45565 45522 45550 45510 45531 45623 45732 45826 45819 45726 45642 45567 45489 45422 45395 45434 45490 45506 45482 45420 45456 45499 45521 45533 45621 45738 45843 45867 45893 45824 45679 45534 45427 45358 45335 45392 45408 45407 45429 45466 45439 45342 45332 45389 45477 45511 45507 45456 45392 45355 45247 45109 45011 44975 44955 44914 44926 45015 45090 45119 45129 45150 45139 45140 45107 45040 45006 44973 44939 44945 44939 44897 44842 44733 44648 44577 44610 44601 44615 44740 44900 44998 44963 44842 44665 44567 44513 44471 44503 44506 44576 44631 44609 44472 44416 44382 44356 44379 44473 44603 44708 44743 44720 44622 44465 44333 44277 44196 44242 44304 44250 44297 44373 44418 44414 44381 44403 44475 44588 44636 44668 44673 44710 44701 44654 44558 44489 44489 44536 44572 44615 44702 44791 44892 45004 45057 45065 45061 45057 45066 45073 45090 45106 45142 45139 45143 45104 45044 45004 45042 45094 45149 45198 45282 45396 45471 45463 45381 45309 45248 45170 45124 45097 45113 45149 45188 45168 45163 45219 45252 45243 45270 45373 45473 45547 45550 45537 45462 45374 45305 45244 45248 45282 45299 45314 45403 45523 45622 45701 45732 45763 45801 45850 45879 45907 45921 45931 45941 45897 45818 45747 45719 45698 45700 45782 45833 45880 45920 45965 45990 45985 45955 45932 45908 45880 45855 45810 45778 45765 45756 45681 45568 45573 45643 45679 45699 45748 45849 45932 45958 45893 45786 45671 45593 45534 45472 45475 45493 45549 45541 45536 45554 45549 45517 45512 45586 45671 45771 45825 45810 45809 45713 45564 45505 45381 45349 45377 45350 45313 45374 45464 45539 45477 45408 45381 45419 45436 45416 45343 45299 45256 45211 45137 45042 44989 44963 44900 44879 44974 45037 45057 45113 45228 45287 45244 45158 45057 44972 44914 44876 44859 44861 44899 44934 44871 44773 44764 44848 44926 45010 45109 45193 45252 45312 45244 45112 44930 44788 44674 44622 44605 44626 44665 44689 44693 44683 44665 44600 44530 44573 44664 44747 44806 44813 44753 44654 44484 44376 44265 44214 44276 44313 44335 44402 44488 44615 44680 44685 44683 44692 44713 44714 44733 44720 44678 44647 44609 44534 44432 44350 44306 44258 44313 44411 44442 44519 44628 44712 44731 44680 44601 44513 44450 44447 44437 44436 44461 44530 44520 44438 44361 44374 44450 44480 44559 44690 44827 44904 44882 44811 44682 44570 44495 44465 44509 44573 44639 44650 44681 44716 44753 44710 44661 44733 44840 44951 44994 45009 44997 44969 44902 44819 44802 44803 44837 44893 44914 44949 45082 45157 45190 45264 45315 45372 45373 45377 45375 45360 45361 45370 45386 45404 45403 45354 45326 45296 45346 45447 45449 45545 45638 45734 45785 45747 45657 45601 45565 45584 45565 45597 45634 45677 45691 45673 45611 45638 45687 45674 45737 45832 45960 46032 46052 46036 45964 45910 45849 45837 45835 45853 45884 45918 45902 45954 46069 46098 46089 46114 46170 46238 46271 46269 46235 46217 46220 46167 46140 46110 46084 46103 46104 46093 46204 46255 46327 46396 46427 46425 46417 46396 46362 46332 46303 46313 46275 46299 46299 46261 46211 46110 46072 46082 46170 46231 46284 46366 46441 46480 46415 46319 46223 46096 46043 46036 46069 46106 46115 46124 46076 45970 45907 45883 45914 45975 46032 46102 46139 46123 46066 45946 45763 45597 45502 45475 45461 45484 45495 45469 45491 45521 45592 45576 45507 45487 45515 45543 45542 45525 45483 45455 45454 45471 45394 45251 45218 45186 45026 44969 45089 45094 45148 45213 45192 45142 45074 44924 44847 44779 44771 44770 44818 44856 44832 44700 44491 44366 44413 44382 44516 44649 44754 44841 44867 44719 44398 44182 44089 44060 44075 44127 44187 44240 44236 44138 44124 44066 44031 44053 44141 44232 44346 44394 44321 44264 44176 44040 43926 43876 43911 43961 44056 43996 43980 44064 44085 44142 44147 44143 44169 44207 44178 44103 44027 44013 44019 44028 43974 43913 43899 43829 43827 43924 44051 44135 44250 44338 44351 44322 44226 44093 43996 43985 43996 44077 44135 44200 44270 44241 44110 44107 44124 44192 44264 44396 44508 44632 44717 44707 44629 44554 44494 44471 44499 44571 44639 44703 44733 44753 44773 44796 44730 44742 44822 44942 45025 45050 44988 44983 44944 44863 44823 44816 44853 44926 44983 44957 45017 45153 45279 45341 45389 45409 45416 45451 45473 45480 45497 45528 45533 45554 45534 45475 45439 45425 45423 45490 45584 45713 45801 45909 45972 45976 45923 45906 45899 45883 45889 45897 45893 45923 45935 45905 45839 45790 45831 45895 45907 45958 46052 46148 46201 46175 46070 45970 45877 45859 45850 45852 45868 45900 45924 45861 45843 45886 45860 45855 45930 46024 46119 46160 46142 46101 46061 45989 45913 45880 45898 45915 45919 45958 45991 46067 46129 46190 46199 46178 46182 46177 46172 46105 46063 46037 46067 46071 46029 45971 45892 45748 45719 45800 45902 45987 46091 46177 46241 46179 46009 45862 45771 45770 45737 45737 45744 45766 45784 45754 45631 45586 45569 45545 45603 45664 45745 45833 45862 45828 45694 45480 45258 45186 45203 45103 45012 45069 45063 45039 45134 45184 45109 45022 44997 45041 45106 45134 45039 44973 44914 44877 44768 44637 44563 44497 44501 44539 44593 44661 44721 44808 44905 44952 44881 44781 44665 44538 44438 44400 44348 44347 44395 44460 44452 44337 44242 44238 44314 44394 44503 44620 44727 44808 44825 44729 44524 44277 44131 44106 44171 44148 44231 44268 44215 44285 44289 44247 44176 44176 44244 44321 44403 44403 44354 44360 44312 44196 44116 44057 44118 44180 44204 44174 44243 44321 44326 44417 44466 44510 44546 44566 44555 44482 44421 44362 44343 44354 44396 44425 44392 44305 44324 44473 44551 44621 44747 44878 44995 45067 45002 44903 44840 44815 44809 44820 44869 44913 44953 44976 44965 44959 44977 44971 44984 45071 45212 45322 45377 45404 45384 45325 45213 45104 45071 45117 45140 45163 45121 45201 45298 45320 45312 45320 45394 45477 45527 45524 45485 45425 45336 45298 45255 45221 45206 45205 45170 45170 45323 45406 45408 45434 45554 45641 45693 45695 45645 45574 45562 45551 45521 45522 45562 45612 45628 45537 45493 45500 45501 45471 45550 45691 45840 45957 45962 45865 45742 45637 45568 45552 45523 45485 45537 45548 45581 45629 45650 45686 45699 45767 45858 45941 45989 46004 46010 45990 45922 45808 45681 45600 45581 45611 45618 45605 45661 45738 45802 45846 45814 45801 45810 45833 45829 45793 45744 45692 45640 45578 45476 45383 45354 45274 45297 45376 45377 45379 45415 45519 45558 45516 45430 45287 45180 45078 45044 45004 44999 44999 45020 44919 44724 44628 44628 44612 44617 44733 44844 44951 44982 44882 44609 44338 44153 44060 44043 44101 44216 44297 44299 44324 44296 44162 44017 44034 44124 44257 44351 44412 44423 44344 44132 43877 43707 43653 43691 43774 43827 43817 43859 43958 44009 43980 43902 43833 43860 43944 43997 43935 43849 43784 43749 43694 43570 43518 43522 43535 43554 43730 43805 43840 43924 44041 44049 43995 43942 43900 43833 43789 43762 43731 43751 43800 43818 43746 43650 43636 43715 43846 43989 44132 44265 44380 44418 44343 44195 44029 43971 43951 43989 44063 44065 44119 44179 44169 44098 44089 44104 44144 44228 44325 44433 44515 44570 44565 44471 44351 44263 44220 44209 44223 44252 44283 44368 44507 44628 44688 44690 44708 44768 44862 44926 44971 44980 45015 44993 44932 44862 44841 44824 44836 44849 44908 44997 45095 45184 45222 45215 45219 45235 45223 45220 45238 45234 45245 45277 45281 45197 45107 45087 45082 45082 45156 45261 45335 45393 45456 45459 45425 45353 45305 45265 45259 45322 45415 45490 45548 45590 45530 45484 45505 45524 45562 45617 45668 45756 45792 45792 45742 45702 45596 45492 45431 45368 45435 45465 45475 45505 45573 45641 45594 45515 45485 45544 45652 45728 45754 45713 45674 45602 45466 45348 45303 45319 45318 45275 45336 45395 45392 45422 45453 45490 45514 45569 45592 45620 45633 45638 45631 45611 45564 45492 45414 45367 45273 45306 45444 45511 45598 45690 45779 45812 45780 45662 45551 45499 45472 45458 45427 45406 45408 45420 45265 45132 45142 45149 45144 45233 45351 45471 45536 45578 45498 45296 45082 44914 44807 44771 44808 44863 44895 44868 44909 44926 44820 44707 44686 44751 44850 44931 44963 44935 44852 44742 44534 44303 44201 44136 44188 44202 44169 44228 44355 44455 44461 44376 44304 44301 44358 44400 44379 44351 44300 44283 44221 44061 43926 43826 43758 43731 43831 43959 44077 44215 44364 44392 44318 44238 44114 44047 44045 44022 44047 44117 44186 44242 44166 44010 43911 43977 44019 44086 44172 44295 44404 44474 44407 44204 44008 43864 43783 43743 43789 43832 43924 43995 43995 43967 43914 43865 43826 43860 43990 44109 44197 44237 44255 44184 44008 43843 43774 43755 43811 43862 43879 43958 44060 44077 44067 44078 44101 44176 44291 44378 44386 44429 44429 44427 44375 44276 44240 44201 44163 44132 44221 44245 44284 44403 44542 44608 44638 44640 44600 44570 44562 44566 44554 44551 44571 44581 44506 44393 44429 44611 44696 44748 44886 45026 45172 45260 45229 45117 45011 44945 44911 44907 44924 44984 45049 45076 45110 45184 45194 45217 45302 45414 45506 45579 45651 45676 45658 45579 45446 45421 45572 45574 45545 45512 45498 45496 45555 45647 45636 45578 45547 45571 45642 45689 45693 45705 45649 45609 45572 45529 45612 45532 45435 45389 45479 45587 45627 45675 45706 45714 45682 45670 45645 45599 45592 45534 45506 45490 45498 45452 45368 45253 45233 45264 45235 45272 45353 45491 45622 45707 45621 45496 45338 45261 45204 45148 45137 45166 45187 45200 45080 45052 45089 45051 45066 45138 45261 45373 45435 45421 45275 45020 44788 44640 44570 44565 44597 44638 44627 44649 44789 44832 44670 44573 44623 44741 44861 44909 44858 44828 44769 44679 44490 44337 44251 44272 44313 44293 44403 44542 44615 44653 44668 44638 44606 44623 44626 44585 44528 44456 44401 44362 44285 44120 43979 43875 43805 43903 44004 44019 44114 44262 44383 44347 44211 44013 43836 43741 43691 43643 43652 43706 43780 43766 43577 43482 43520 43479 43513 43667 43876 44073 44191 44210 44044 43793 43612 43539 43511 43579 43666 43747 43782 43811 43951 43966 43853 43872 43938 44090 44215 44274 44267 44189 44135 44043 43878 43805 43829 43904 43932 43909 44085 44223 44296 44346 44437 44487 44494 44495 44517 44474 44451 44457 44446 44478 44496 44477 44414 44370 44509 44681 44836 44996 45146 45286 45391 45428 45373 45312 45258 45211 45185 45158 45104 45112 45162 45199 45186 45182 45295 45378 45428 45512 45607 45704 45792 45826 45769 45641 45500 45423 45381 45389 45450 45498 45495 45501 45638 45673 45663 45636 45719 45816 45907 45923 45916 45914 45877 45798 45669 45558 45513 45529 45549 45557 45685 45819 45928 46023 46072 46090 46064 46074 46073 46079 46076 46011 45951 45894 45867 45787 45705 45635 45660 45740 45842 45918 45987 46079 46168 46195 46107 45980 45892 45780 45717 45668 45631 45619 45655 45646 45536 45493 45433 45375 45383 45458 45598 45725 45848 45878 45843 45683 45477 45327 45216 45208 45212 45251 45273 45337 45446 45561 45544 45486 45448 45493 45584 45682 45707 45712 45689 45595 45435 45218 45065 45016 45012 45023 45061 45187 45277 45318 45358 45319 45244 45173 45112 45020 44947 44876 44794 44753 44744 44694 44626 44547 44421 44413 44487 44530 44575 44692 44854 44952 44866 44667 44404 44234 44180 44153 44187 44237 44339 44419 44368 44239 44193 44157 44106 44166 44349 44514 44651 44720 44683 44457 44158 43952 43854 43847 43874 43994 44068 44084 44133 44177 44042 43956 43911 43998 44149 44296 44369 44329 44275 44208 44057 43885 43847 43818 43950 43946 44049 44179 44339 44463 44542 44528 44515 44510 44506 44490 44507 44512 44493 44460 44420 44333 44214 44145 44098 44220 44341 44372 44428 44577 44743 44810 44780 44691 44601 44538 44536 44510 44505 44531 44587 44627 44524 44449 44532 44622 44689 44798 44925 45041 45166 45212 45131 44990 44887 44821 44782 44758 44778 44814 44858 44890 44970 45012 45066 45118 45206 45285 45385 45479 45500 45494 45475 45353 45211 45102 45049 45068 45075 45088 45131 45241 45328 45303 45249 45264 45337 45472 45569 45614 45606 45533 45481 45444 45364 45344 45349 45328 45259 45405 45518 45616 45711 45847 45864 45814 45769 45720 45630 45572 45499 45444 45395 45313 45325 45300 45166 45095 45215 45218 45207 45339 45510 45670 45774 45751 45627 45481 45397 45358 45332 45302 45272 45370 45441 45354 45310 45234 45146 45115 45203 45393 45568 45699 45732 45653 45494 45318 45213 45133 45148 45200 45243 45246 45230 45339 45296 45190 45137 45195 45347 45517 45578 45575 45491 45414 45293 45101 44974 44930 44959 45000 44974 45115 45294 45338 45382 45373 45322 45322 45370 45412 45405 45366 45324 45255 45187 45068 44909 44801 44745 44724 44858 45047 45217 45344 45466 45531 45427 45322 45260 45200 45150 45109 45031 44985 44955 44935 44797 44646 44574 44654 44778 44890 44988 45102 45196 45270 45196 44968 44726 44547 44462 44417 44383 44401 44452 44508 44478 44398 44358 44319 44309 44384 44524 44665 44752 44808 44719 44458 44176 44014 43993 44014 44095 44228 44260 44361 44528 44476 44333 44242 44284 44427 44589 44730 44792 44781 44718 44538 44311 44164 44117 44174 44238 44225 44331 44443 44458 44461 44421 44442 44525 44639 44737 44761 44738 44693 44662 44622 44486 44360 44313 44308 44411 44581 44702 44727 44782 44895 44932 44932 44924 44904 44898 44886 44874 44860 44866 44898 44894 44845 44777 44859 45004 45150 45319 45404 45482 45582 45624 45565 45441 45350 45297 45274 45350 45406 45448 45463 45467 45434 45339 45321 45389 45474 45524 45626 45698 45776 45816 45741 45575 45468 45366 45332 45290 45301 45302 45333 45375 45463 45471 45471 45496 45514 45606 45706 45784 45821 45812 45779 45638 45528 45526 45542 45551 45541 45568 45615 45658 45750 45821 45791 45754 45771 45845 45888 45901 45867 45816 45766 45632 45456 45295 45337 45390 45427 45517 45603 45683 45748 45794 45742 45693 45668 45684 45709 45704 45653 45645 45694 45720 45618 45496 45381 45396 45444 45541 45615 45681 45788 45871 45836 45711 45584 45464 45388 45344 45309 45297 45293 45322 45262 45180 45132 45159 45244 45368 45485 45557 45631 45686 45606 45360 45134 44980 44897 44867 44846 44839 44840 44858 44864 44805 44706 44605 44606 44709 44834 44948 45016 45033 45004 44767 44487 44288 44177 44145 44183 44242 44288 44348 44488 44599 44554 44493 44484 44548 44662 44754 44787 44759 44700 44541 44286 44079 43994 43992 44055 44102 44174 44369 44458 44485 44436 44384 44368 44423 44455 44419 44401 44321 44253 44239 44119 44022 43973 43947 44009 44155 44294 44440 44591 44720 44707 44611 44521 44452 44413 44375 44380 44329 44304 44306 44283 44221 44138 44172 44277 44389 44511 44686 44834 44950 45029 44927 44737 44580 44485 44432 44402 44390 44408 44463 44526 44454 44430 44445 44395 44466 44609 44792 44944 45057 45086 44980 44779 44562 44426 44395 44446 44548 44646 44619 44737 44876 44859 44787 44784 44843 44975 45098 45145 45143 45125 45059 44918 44765 44665 44642 44686 44746 44740 44807 44959 44958 44964 45004 45050 45144 45220 45239 45194 45168 45129 45106 45034 44923 44871 44828 44816 44791 44865 44903 44870 44961 45130 45229 45309 45335 45318 45295 45221 45199 45133 45112 45100 45050 44967 44888 44902 45022 44999 44981 45107 45310 45489 45502 45420 45260 45149 45113 45087 45075 45118 45193 45254 45230 45113 45094 45084 45054 45143 45295 45498 45652 45758 45730 45532 45338 45228 45154 45159 45240 45292 45351 45316 45337 45322 45169 45091 45143 45294 45484 45624 45656 45597 45532 45382 45138 44991 44947 44975 45025 45020 45016 45051 45054 45033 45031 45056 45146 45231 45309 45300 45270 45237 45190 45141 45010 44872 44789 44765 44757 44862 45043 45112 45180 45339 45423 45406 45337 45282 45192 45084 44995 44933 44898 44936 45005 44925 44783 44662 44699 44729 44697 44729 44863 45047 45193 45195 44985 44710 44495 44406 44340 44347 44412 44524 44580 44576 44608 44594 44535 44487 44589 44749 44898 45033 45092 45088 44946 44647 44408 44232 44223 44281 44383 44446 44405 44518 44536 44376 44234 44188 44285 44447 44583 44647 44549 44469 44382 44292 44112 44014 44039 44120 44145 44209 44422 44597 44744 44870 44883 44804 44792 44856 44906 44910 44875 44833 44805 44808 44725 44492 44398 44387 44442 44614 44723 44756 44803 44919 45021 45034 44985 44887 44824 44795 44779 44740 44735 44755 44797 44756 44661 44702 44795 44936 45053 45192 45303 45409 45516 45482 45327 45167 45088 45038 45042 45056 45081 45133 45180 45273 45296 45266 45294 45336 45408 45506 45617 45668 45688 45672 45603 45452 45380 45332 45289 45267 45277 45254 45268 45390 45431 45386 45347 45370 45475 45607 45669 45667 45649 45611 45603 45513 45384 45299 45300 45329 45336 45501 45666 45794 45918 46001 45980 45944 45903 45902 45880 45863 45876 45899 45880 45839 45730 45617 45499 45570 45721 45784 45796 45895 46015 46143 46157 46043 45907 45813 45749 45719 45746 45761 45805 45862 45848 45728 45671 45612 45524 45602 45754 45913 46040 46123 46120 45982 45786 45611 45511 45506 45523 45579 45608 45626 45715 45730 45593 45413 45384 45446 45562 45677 45722 45714 45640 45506 45264 45058 44962 44936 44964 44999 45032 45098 45228 45236 45174 45078 45010 45028 45050 45044 44942 44860 44788 44741 44626 44496 44421 44383 44327 44350 44518 44513 44509 44645 44808 44822 44756 44686 44583 44553 44537 44487 44466 44500 44543 44481 44356 44260 44369 44425 44426 44544 44672 44800 44894 44816 44610 44368 44172 44107 44093 44162 44223 44349 44459 44391 44250 44235 44171 44214 44381 44556 44722 44833 44912 44831 44566 44307 44191 44186 44286 44400 44513 44550 44558 44633 44547 44425 44414 44529 44719 44896 45001 45055 45003 44921 44743 44584 44529 44579 44709 44812 44810 44910 45047 45067 45064 45034 45048 45106 45203 45252 45222 45150 45095 45034 44966 44904 44896 44921 44896 44921 44983 45021 45042 45107 45230 45277 45329 45332 45264 45235 45191 45219 45219 45274 45333 45344 45289 45236 45236 45323 45332 45366 45473 45606 45725 45726 45590 45413 45361 45346 45387 45427 45477 45477 45562 45526 45377 45398 45414 45393 45430 45563 45718 45828 45919 45885 45652 45494 45418 45417 45443 45533 45631 45744 45878 45996 46078 46041 46056 46140 46254 46319 46360 46421 46472 46551 46447 46312 46369 46394 46467 46493 46499 46520 46503 46516 46505 46382 46284 46283 46408 46573 46716 46793 46842 46861 46832 46688 46468 46322 46260 46233 46209 46249 46311 46335 46338 46297 46215 46159 46229 46263 46195 46229 46299 46314 46315 46252 46041 45866 45781 45768 45837 45902 46044 46177 46280 46341 46245 46166 46186 46265 46253 46217 46215 46251 46271 46203 45941 45700 45560 45484 45397 45538 45710 45845 45986 46131 46033 45844 45667 45556 45489 45493 45482 45444 45413 45411 45424 45362 45267 45163 45136 45157 45220 45295 45368 45430 45470 45433 45318 45228 45138 45147 45190 45255 45306 45381 45424 45445 45398 45261 45177 45194 45272 45329 45376 45416 45463 45495 45457 45303 45168 45107 45115 45162 45210 45278 45318 45372 45333 45155 45027 44988 45028 45079 45143 45215 45277 45330 45329 45207 45085 45026 45027 45076 45125 45179 45236 45277 45300 45284 45202 45156 45122 45149 45202 45268 45300 45337 45375 45420 45364 45280 45276 45270 45300 45355 45399 45472 45559 45635 45636 45547 45482 45470 45491 45527 45592 45643 45690 45739 45767 45774 45737 45671 45654 45678 45726 45788 45824 45861 45911 45928 45876 45812 45779 45770 45814 45853 45886 45916 45928 45930 45852 45809 45833 45869 45889 45934 45982 46011 46056 46066 46002 45930 45912 45918 45958 46013 46065 46105 46139 46164 46126 46045 45982 45952 45963 45990 46023 46058 46087 46088 46144 46141 46057 45993 45983 45978 45978 45994 46005 46054 46127 46148 46116 46031 45996 46009 46033 46078 46110 46174 46194 46213 46177 46092 46021 45969 45984 46050 46114 46163 46186 46207 46211 46146 46080 46034 46026 46046 46079 46138 46157 46198 46245 46249 46132 46033 46022 46068 46144 46218 46237 46242 46254 46236 46134 46009 45952 45941 45975 46022 46066 46088 46138 46161 46099 45960 45853 45812 45807 45845 45867 45916 45926 45965 45930 45742 45594 45539 45537 45580 45621 45670 45720 45760 45809 45712 45500 45368 45316 45321 45360 45406 45480 45523 45572 45518 45363 45225 45178 45197 45223 45263 45316 45357 45420 45449 45319 45141 45040 45024 45045 45086 45144 45193 45242 45301 45309 45238 45114 44982 44941 44998 45067 45148 45204 45224 45249 45121 44964 44875 44858 44905 44993 45037 45080 45115 45170 45150 44983 44846 44822 44899 44982 45022 45056 45081 45133 45133 44996 44859 44817 44823 44860 44943 45015 45101 45145 45184 45047 44899 44807 44786 44849 44917 44977 45036 45050 45061 45029 44910 44791 44742 44770 44819 44852 44877 44886 44941 44970 44912 44857 44836 44841 44914 44999 45076 45127 45198 45249 45227 45160 45107 45103 45120 45159 45202 45275 45374 45419 45475 45435 45375 45302 45269 45298 45323 45412 45473 45541 45616 45666 45663 45583 45462 45402 45444 45530 45603 45655 45699 45748 45766 45686 45561 45472 45451 45502 45544 45584 45617 45657 45673 45611 45496 45483 45533 45574 45661 45688 45738 45783 45822 45834 45745 45626 45563 45554 45605 45663 45685 45684 45688 45769 45861 45844 45793 45756 45739 45790 45842 45864 45887 45910 45950 45962 45933 45857 45793 45702 45635 45674 45794 45890 45983 46067 46106 46079 46013 45938 45892 45901 45951 46011 46040 46078 46083 46089 45970 45837 45827 45915 46052 46157 46190 46204 46206 46215 46216 46078 45989 45990 46000 46036 46072 46107 46159 46196 46241 46237 46141 46061 45983 45976 45978 46006 46067 46108 46164 46191 46143 45969 45869 45819 45797 45807 45825 45886 45979 46075 46127 46015 45862 45752 45726 45767 45813 45868 45900 45928 45957 45959 45862 45760 45663 45574 45557 45624 45737 45849 45932 45923 45827 45682 45551 45479 45423 45441 45456 45469 45489 45535 45560 45522 45365 45255 45242 45301 45363 45380 45400 45434 45485 45494 45346 45171 45062 45038 45079 45138 45194 45246 45297 45340 45282 45135 45016 44954 44956 44998 45058 45116 45151 45171 45204 45119 44971 44876 44849 44875 44925 44981 45031 45088 45201 45225 45060 44914 44846 44843 44876 44924 44952 45031 45118 45164 45115 44969 44828 44734 44734 44831 44945 45042 45108 45124 45122 45011 44875 44741 44695 44747 44837 44902 44956 45026 45094 45113 44992 44821 44767 44856 44951 45008 45058 45074 45134 45183 45086 44924 44795 44782 44827 44904 44995 45070 45171 45254 45237 45134 45057 45033 45014 45041 45082 45151 45210 45248 45275 45203 45080 44972 44947 44976 45058 45123 45165 45213 45279 45293 45158 45011 44943 44942 45009 45088 45150 45212 45273 45341 45317 45232 45166 45135 45158 45211 45295 45392 45461 45496 45499 45406 45326 45308 45306 45339 45403 45477 45528 45554 45618 45617 45533 45395 45302 45339 45465 45568 45610 45624 45648 45670 45585 45492 45444 45460 45499 45509 45555 45608 45659 45695 45611 45502 45458 45494 45530 45557 45594 45630 45683 45727 45707 45608 45511 45472 45500 45545 45620 45662 45684 45708 45744 45692 45610 45523 45489 45501 45566 45629 45680 45733 45784 45727 45544 45449 45425 45441 45462 45502 45570 45640 45727 45762 45665 45519 45434 45409 45457 45517 45582 45606 45618 45626 45622 45535 45438 45358 45347 45395 45468 45567 45671 45731 45739 45644 45519 45412 45409 45451 45499 45558 45594 45610 45647 45632 45468 45318 45245 45307 45405 45511 45552 45528 45544 45573 45461 45291 45202 45178 45193 45231 45286 45316 45319 45338 45256 45103 45000 44987 44999 45025 45062 45111 45160 45238 45204 45030 44900 44830 44836 44891 44964 45032 45063 45115 45204 45152 45008 44874 44810 44828 44894 44980 45055 45137 45198 45148 44989 44847 44804 44818 44846 44916 44968 45057 45139 45163 45042 44887 44780 44776 44817 44888 44931 45004 45070 45078 45046 44939 44816 44712 44697 44793 44892 44998 45038 45078 45043 44927 44806 44730 44756 44824 44869 44893 44929 44985 45035 45022 44882 44788 44786 44843 44917 44961 45016 45057 45107 45052 44884 44768 44757 44765 44777 44814 44867 44936 44996 44963 44867 44791 44765 44763 44794 44843 44899 44982 45058 45097 44985 44828 44715 44655 44644 44659 44726 44814 44951 45084 45116 45038 44924 44860 44850 44956 45074 45202 45280 45359 45408 45357 45258 45211 45205 45270 45332 45391 45443 45460 45427 45267 45082 44975 44871 44853 44838 44787 44784 44806 44830 44860 44734 44621 44487 44402 44449 44571 44729 44834 44958 45033 45015 44904 44800 44709 44692 44765 44784 44820 44862 44894 44901 44817 44718 44761 44905 45051 45156 45221 45253 45294 45324 45251 45086 44947 44896 44854 44819 44749 44677 44601 44514 44397 44366 44447 44530 44653 44770 44842 44916 44966 44941 44873 44712 44594 44485 44468 44460 44474 44559 44653 44770 44926 44959 44908 44863 44885 44919 44986 45021 45030 45037 45090 45078 44976 44854 44799 44733 44719 44820 44942 45081 45172 45217 45072 44947 44911 44933 44975 44989 45014 45073 45073 45069 45043 44912 44821 44812 44860 44948 45048 45112 45157 45197 45249 45202 45081 44977 44936 44932 44941 44927 44952 44991 45027 45008 44875 44756 44696 44728 44768 44828 44869 44894 44873 44749 44508 44267 44112 44037 43904 43908 43923 43954 44028 44047 43974 43925 43974 44080 44232 44369 44483 44585 44649 44713 44662 44484 44340 44275 44271 44321 44366 44397 44440 44467 44476 44337 44174 44080 44053 44055 44097 44120 44148 44163 44199 44124 43952 43857 43838 43845 43883 43936 43956 44003 44038 43999 43867 43764 43733 43758 43805 43844 43887 43936 43962 43956 43854 43716 43665 43670 43718 43773 43850 43899 43937 43979 43978 43877 43804 43810 43857 43912 43940 44012 44052 44082 44114 44004 43882 43808 43791 43815 43850 43890 43920 43968 44009 43993 43844 43699 43636 43634 43635 43636 43634 43598 43594 43512 43360 43218 43133 43097 43106 43104 43103 43110 43128 43158 43107 42991 42930 42891 42785 42688 42730 42772 42889 43038 43092 42856 42614 42590 42659 42739 42851 42961 43025 43098 43141 43120 42993 42927 42943 43010 43111 43170 43222 43287 43389 43466 43445 43406 43363 43382 43386 43389 43434 43499 43554 43581 43523 43399 43296 43241 43225 43241 43265 43309 43357 43414 43394 43242 43105 43054 43102 43196 43303 43397 43457 43525 43518 43358 43208 43130 43120 43167 43221 43275 43359 43387 43399 43264 43161 43127 43154 43219 43284 43351 43426 43480 43535 43525 43415 43316 43263 43284 43331 43373 43431 43469 43550 43608 43545 43418 43333 43301 43348 43405 43459 43463 43497 43570 43605 43530 43484 43470 43473 43497 43525 43573 43652 43768 43857 43865 43779 43709 43683 43696 43731 43789 43858 43919 43990 44037 44032 43934 43837 43815 43883 43977 44058 44098 44152 44180 44215 44147 44070 44038 44053 44112 44170 44237 44293 44332 44369 44335 44231 44175 44182 44216 44263 44295 44344 44392 44415 44453 44360 44292 44259 44273 44291 44350 44378 44417 44463 44496 44485 44397 44310 44275 44277 44358 44397 44428 44442 44483 44496 44384 44219 44136 44136 44239 44327 44391 44500 44569 44550 44431 44226 44045 43940 43894 43898 43944 43979 44007 43951 43924 43948 43982 44008 44036 44094 44188 44233 44203 44093 44053 44010 43868 43734 43664 43640 43672 43637 43561 43658 43739 43835 43885 43802 43735 43720 43697 43584 43499 43387 43333 43344 43385 43329 43207 43092 43002 42941 43033 43068 43065 43153 43305 43421 43363 43157 43007 42885 42852 42865 42915 42996 43083 43152 43082 42885 42761 42776 42806 42891 43043 43208 43355 43469 43456 43260 42999 42831 42769 42795 42846 42938 43026 43073 43110 43391 43483 43451 43558 43682 43729 43812 44111 44472 44642 44595 44304 44104 44021 44011 44040 44082 44152 44425 44539 44585 44726 44768 44739 44730 44755 44822 45061 45221 45240 45074 45024 45009 44957 44926 44939 44929 44963 45050 45192 45246 45285 45322 45274 45236 45302 45474 45584 45455 45325 45343 45408 45404 45338 45207 45090 45045 44949 45073 45259 45374 45451 45503 45497 45384 45238 45115 45086 45145 45235 45273 45303 45338 45368 45291 45062 45022 45101 45217 45336 45434 45509 45561 45571 45420 45216 45019 44902 44827 44822 44885 44951 44981 45018 45145 45062 45022 45031 45076 45154 45226 45298 45332 45294 45264 45168 45002 44828 44754 44780 44841 44852 44863 44984 45061 45117 45176 45184 45160 45184 45234 45298 45325 45399 45460 45496 45546 45525 45499 45428 45362 45295 45376 45384 45347 45469 45614 45553 45458 45326 45203 45134 45131 45111 45077 45097 45131 45052 44857 44649 44533 44561 44637 44704 44801 44873 44944 44958 44839 44731 44666 44622 44631 44682 44737 44812 44872 44928 44898 44706 44539 44405 44359 44369 44381 44404 44456 44539 44598 44530 44385 44297 44281 44293 44288 44264 44288 44331 44340 44337 44239 44094 43984 44012 44103 44237 44383 44507 44593 44612 44634 44567 44489 44465 44455 44509 44538 44503 44476 44490 44480 44443 44376 44339 44419 44562 44653 44731 44778 44825 44872 44903 44788 44652 44571 44575 44646 44745 44839 44935 45016 45112 45090 45016 44972 44957 44960 44977 45028 45093 45152 45179 45115 45018 44958 44945 44991 45039 45064 45091 45117 45181 45281 45295 45214 45130 45108 45144 45231 45308 45385 45430 45516 45499 45421 45351 45335 45301 45291 45265 45335 45423 45516 45573 45515 45435 45430 45425 45438 45451 45478 45541 45567 45604 45625 45570 45502 45432 45445 45505 45614 45672 45684 45728 45728 45696 45636 45592 45603 45619 45670 45707 45750 45786 45832 45822 45741 45693 45707 45768 45802 45824 45848 45854 45907 45940 45864 45754 45696 45670 45684 45696 45716 45749 45798 45836 45775 45705 45646 45614 45593 45601 45642 45706 45734 45740 45652 45524 45436 45389 45420 45446 45481 45481 45485 45533 45562 45519 45435 45346 45317 45360 45400 45429 45416 45436 45503 45442 45332 45211 45166 45144 45162 45201 45254 45366 45464 45494 45344 45183 45090 45095 45136 45159 45165 45201 45214 45231 45165 45038 44920 44854 44877 44927 45037 45108 45157 45167 45100 44980 44892 44854 44834 44849 44867 44886 44896 44926 44960 44898 44789 44720 44738 44853 44939 44999 45007 45036 45093 45058 44914 44802 44737 44768 44801 44838 44897 44948 45007 44952 44779 44681 44695 44736 44795 44831 44878 44960 45021 45014 44851 44688 44626 44613 44618 44624 44637 44676 44737 44819 44837 44797 44768 44769 44783 44844 44937 45010 45074 45107 45111 44987 44841 44790 44805 44846 44852 44877 44906 44970 45088 45127 45072 45007 44997 45014 45015 44988 45005 45076 45195 45262 45217 45192 45156 45135 45167 45237 45320 45362 45413 45455 45391 45311 45283 45300 45302 45347 45399 45445 45499 45539 45571 45523 45446 45394 45432 45498 45578 45632 45697 45743 45806 45763 45676 45594 45580 45627 45668 45703 45758 45774 45762 45652 45491 45445 45501 45576 45669 45723 45776 45807 45820 45790 45649 45549 45472 45466 45506 45506 45474 45487 45505 45556 45531 45515 45511 45510 45549 45599 45658 45689 45695 45667 45622 45471 45364 45333 45322 45312 45329 45334 45377 45494 45546 45506 45444 45386 45402 45448 45434 45416 45435 45526 45571 45489 45413 45399 45395 45380 45352 45391 45468 45557 45608 45561 45438 45396 45378 45382 45398 45377 45383 45458 45477 45417 45282 45182 45109 45128 45230 45331 45410 45492 45541 45515 45412 45297 45223 45194 45213 45186 45147 45195 45221 45213 45096 44941 44924 44985 45125 45200 45256 45302 45341 45380 45270 45096 44985 44989 45037 45063 45092 45117 45112 45148 45092 45006 44985 45028 45088 45129 45180 45244 45284 45301 45246 45090 45022 44989 44968 44997 45013 45033 45080 45144 45216 45229 45159 45128 45128 45177 45253 45331 45403 45413 45435 45364 45227 45127 45091 45105 45103 45111 45183 45289 45388 45364 45259 45180 45170 45205 45256 45285 45292 45355 45378 45370 45269 45176 45134 45133 45166 45235 45329 45430 45499 45543 45492 45399 45355 45338 45316 45321 45403 45449 45483 45526 45532 45402 45252 45201 45239 45365 45474 45574 45646 45683 45688 45608 45457 45328 45296 45336 45378 45421 45476 45496 45486 45357 45222 45169 45240 45336 45439 45530 45568 45592 45587 45434 45275 45257 45242 45231 45236 45243 45289 45325 45388 45364 45322 45314 45322 45352 45402 45488 45538 45542 45525 45506 45454 45345 45247 45234 45263 45288 45309 45348 45439 45531 45474 45366 45310 45275 45282 45308 45291 45241 45258 45327 45228 45071 44947 44905 44856 44817 44831 44969 45103 45197 45273 45191 45105 45046 44981 44913 44917 45027 45107 45129 45162 45094 44972 44819 44756 44819 44944 45069 45175 45280 45348 45357 45245 45064 44915 44872 44894 44824 44819 44812 44869 44872 44737 44600 44628 44738 44837 44921 45039 45067 45071 45011 44835 44644 44594 44594 44566 44591 44600 44592 44614 44687 44755 44769 44786 44819 44856 44901 44956 44981 44963 44945 44954 44869 44720 44622 44631 44690 44716 44700 44768 44909 45078 45110 45041 44976 44958 45014 45084 45207 45332 45414 45469 45505 45435 45363 45342 45316 45344 45342 45310 45274 45218 45209 45066 44886 44738 44635 44522 44479 44520 44547 44578 44623 44617 44569 44543 44602 44738 44861 44983 45103 45166 45246 45254 45149 45000 44909 44902 44959 45008 45084 45087 45108 45050 44885 44778 44818 44940 45065 45212 45284 45349 45419 45423 45301 45153 45088 45133 45151 45200 45243 45229 45216 45201 45151 45116 45122 45130 45185 45269 45346 45401 45418 45364 45246 45119 44998 44937 44939 44910 44935 44996 45058 45124 45165 45137 45130 45115 45149 45172 45192 45160 45133 45162 45146 45005 44936 44913 44906 44943 45008 45095 45207 45339 45449 45412 45337 45295 45279 45288 45277 45255 45243 45227 45225 45185 45086 44974 44941 44966 45060 45178 45308 45405 45465 45438 45328 45197 45107 45009 45047 45099 45081 45106 45134 45101 44974 44908 44910 44989 45144 45267 45398 45499 45587 45574 45471 45381 45317 45317 45415 45498 45518 45549 45598 45576 45448 45377 45354 45416 45467 45558 45618 45667 45697 45667 45524 45423 45412 45437 45487 45514 45569 45612 45642 45570 45441 45408 45455 45527 45579 45636 45681 45719 45727 45648 45497 45436 45409 45427 45453 45480 45525 45552 45590 45599 45550 45521 45515 45546 45592 45646 45671 45676 45639 45564 45469 45350 45253 45289 45347 45380 45355 45334 45353 45432 45438 45432 45417 45463 45519 45586 45647 45634 45604 45607 45541 45457 45372 45373 45413 45428 45414 45445 45561 45630 45563 45428 45368 45392 45419 45450 45457 45451 45516 45486 45391 45284 45171 45053 44988 45030 45095 45223 45370 45491 45484 45365 45267 45200 45144 45120 45143 45160 45131 45135 45141 44996 44800 44685 44685 44800 44993 45181 45311 45368 45369 45268 45192 45085 45012 45046 45077 45067 45096 45151 45166 45063 44958 44941 45053 45186 45314 45389 45440 45490 45523 45395 45241 45132 45136 45147 45154 45193 45210 45204 45214 45144 45127 45192 45288 45368 45446 45524 45581 45646 45640 45509 45355 45296 45305 45328 45364 45405 45411 45413 45416 45398 45372 45360 45390 45431 45495 45525 45554 45541 45527 45505 45421 45321 45267 45297 45348 45411 45478 45549 45618 45638 45602 45557 45565 45588 45604 45599 45565 45627 45686 45659 45593 45538 45438 45406 45419 45487 45571 45671 45745 45805 45765 45701 45659 45624 45594 45601 45648 45718 45701 45656 45611 45513 45451 45472 45579 45680 45769 45834 45863 45923 45886 45823 45756 45701 45699 45761 45816 45832 45848 45877 45791 45679 45628 45676 45757 45842 45872 45936 46012 46065 46041 45887 45766 45721 45707 45665 45678 45658 45630 45633 45532 45433 45419 45458 45510 45550 45641 45648 45639 45610 45413 45208 45044 44927 44947 45028 45101 45157 45210 45262 45254 45183 45099 45064 45098 45154 45206 45231 45184 45205 45195 45025 44878 44870 44902 44922 44926 44948 44996 45095 45182 45102 44960 44870 44854 44894 44929 44945 44975 45034 45051 44951 44827 44746 44707 44725 44754 44826 44892 44922 44931 44860 44747 44674 44675 44672 44655 44680 44720 44734 44736 44747 44611 44457 44403 44459 44607 44748 44828 44877 44932 44969 44873 44719 44576 44502 44524 44502 44502 44527 44599 44671 44619 44513 44493 44552 44678 44790 44835 44905 44980 45045 44928 44730 44573 44500 44430 44401 44430 44457 44497 44566 44560 44512 44557 44637 44712 44771 44853 44935 44969 44976 44899 44784 44676 44561 44558 44606 44655 44739 44821 44915 45002 44985 44938 44879 44923 45014 45099 45178 45199 45197 45202 45098 44945 44834 44813 44842 44909 45001 45064 45170 45261 45269 45193 45160 45135 45147 45126 45068 45089 45117 45137 45131 45092 45027 44997 45030 45141 45241 45337 45434 45479 45551 45589 45541 45490 45424 45383 45408 45463 45514 45508 45525 45550 45458 45346 45323 45403 45531 45614 45646 45665 45725 45778 45809 45721 45595 45524 45522 45594 45601 45650 45689 45750 45723 45633 45589 45532 45474 45458 45527 45610 45682 45737 45782 45733 45576 45534 45500 45502 45548 45648 45711 45757 45779 45784 45647 45467 45350 45337 45397 45498 45585 45663 45658 45670 45657 45510 45438 45426 45456 45497 45484 45535 45570 45610 45594 45535 45418 45325 45314 45314 45319 45328 45383 45386 45414 45395 45294 45179 45101 45107 45179 45226 45224 45215 45247 45267 45133 45005 44867 44799 44847 44887 44848 44888 44990 45088 44941 44746 44686 44713 44753 44797 44863 44932 44955 44961 44868 44638 44463 44392 44371 44393 44467 44518 44559 44638 44661 44545 44487 44427 44415 44450 44473 44515 44510 44498 44481 44318 44088 43946 43919 43913 43910 43999 44131 44272 44430 44550 44458 44343 44323 44363 44411 44443 44459 44520 44562 44608 44563 44466 44343 44264 44224 44294 44443 44561 44676 44757 44783 44668 44542 44450 44385 44419 44486 44561 44623 44722 44827 44808 44644 44559 44573 44689 44785 44871 44966 45018 45068 45033 44829 44691 44681 44692 44706 44719 44767 44775 44768 44767 44710 44741 44806 44881 44954 45046 45109 45126 45095 45045 44955 44776 44626 44646 44778 44896 45012 45103 45197 45303 45390 45345 45294 45282 45332 45370 45385 45351 45343 45411 45463 45390 45263 45221 45197 45212 45262 45352 45464 45595 45693 45699 45627 45551 45505 45485 45475 45477 45520 45608 45664 45676 45610 45520 45435 45491 45569 45644 45717 45763 45809 45849 45794 45675 45541 45493 45547 45600 45577 45576 45612 45621 45606 45549 45527 45554 45615 45677 45727 45771 45815 45809 45823 45710 45569 45518 45478 45487 45494 45511 45496 45494 45555 45586 45537 45456 45418 45400 45442 45457 45445 45390 45389 45372 45195 44994 44904 44910 44953 44997 45070 45126 45231 45319 45281 45114 45005 44925 44915 44866 44876 44876 44834 44836 44872 44776 44633 44564 44563 44645 44778 44887 44975 45046 45065 44965 44765 44584 44477 44459 44398 44353 44441 44514 44592 44587 44429 44302 44307 44397 44498 44522 44550 44577 44602 44559 44368 44144 43971 43680 43561 43620 43755 43850 43957 43953 43828 43744 43761 43832 43913 44003 44065 44085 44120 44192 44055 43808 43613 43581 43726 43876 43990 44190 44394 44574 44599 44403 44212 44149 44146 44173 44165 44126 44079 44013 43947 43784 43699 43757 43874 44014 44071 44056 44153 44243 44373 44312 44233 44125 44055 43983 43936 43931 44021 44004 43971 43987 43992 43992 43982 44044 44188 44320 44474 44524 44578 44497 44337 44227 44191 44198 44189 44191 44134 44126 44110 44070 43997 44037 44144 44282 44434 44613 44712 44792 44823 44783 44648 44599 44577 44582 44581 44560 44593 44657 44632 44443 44284 44296 44372 44502 44654 44713 44695 44644 44605 44504 44327 44238 44202 44127 44190 44287 44298 44286 44352 44422 44483 44531 44635 44692 44722 44680 44628 44570 44588 44583 44453 44325 44318 44359 44439 44450 44408 44457 44585 44757 44877 44893 44897 44895 44865 44841 44843 44832 44826 44812 44753 44652 44519 44388 44312 44329 44447 44596 44779 44955 45001 44902 44756 44634 44558 44579 44676 44806 44762 44698 44649 44575 44441 44389 44498 44701 44861 45039 45171 45187 45188 45087 44892 44747 44718 44715 44673 44694 44719 44691 44608 44507 44409 44427 44537 44692 44846 44954 44990 44986 44965 44920 44874 44848 44845 44834 44818 44858 44842 44742 44695 44750 44777 44745 44742 44712 44650 44599 44549 44516 44568 44699 44749 44572 44472 44350 44195 44108 44156 44337 44595 44798 44914 44857 44763 44667 44613 44591 44605 44705 44794 44764 44733 44635 44473 44312 44249 44275 44417 44594 44757 44869 44920 44885 44733 44591 44496 44509 44565 44559 44538 44591 44668 44646 44446 44357 44397 44542 44691 44783 44855 44916 44927 44859 44662 44484 44395 44384 44370 44407 44423 44416 44403 44383 44292 44300 44373 44448 44554 44635 44689 44735 44741 44694 44556 44462 44397 44333 44371 44394 44393 44404 44443 44513 44502 44481 44542 44598 44641 44681 44739 44755 44745 44749 44661 44529 44470 44457 44439 44420 44462 44523 44590 44695 44714 44684 44647 44665 44697 44751 44756 44760 44818 44874 44809 44690 44604 44555 44523 44576 44651 44767 44902 45026 45036 44980 44953 44955 45003 45132 45179 45176 45174 45190 45178 45101 45048 44992 44932 44954 45011 45092 45166 45206 45183 45065 45011 44987 44975 45016 45025 45036 45099 45134 45091 44863 44758 44803 44927 45034 45171 45285 45391 45448 45360 45229 45131 45118 45139 45257 45285 45341 45382 45354 45169 45090 45134 45245 45342 45409 45481 45581 45634 45659 45521 45388 45340 45319 45312 45297 45297 45255 45201 45201 45169 45208 45275 45355 45420 45499 45572 45598 45622 45558 45401 45244 45075 45023 45070 45112 45164 45201 45249 45276 45258 45224 45196 45226 45275 45306 45319 45297 45280 45222 45059 44940 44862 44833 44848 44892 44944 45010 45106 45162 45045 44916 44883 44923 44950 44941 44931 44934 44969 44936 44801 44688 44574 44555 44609 44682 44780 44885 44977 45045 44923 44761 44632 44525 44459 44480 44505 44499 44468 44486 44424 44249 44146 44162 44242 44364 44474 44577 44653 44724 44624 44476 44297 44211 44230 44280 44304 44346 44420 44468 44393 44270 44236 44320 44426 44513 44576 44668 44724 44771 44682 44438 44268 44193 44188 44213 44293 44360 44414 44468 44417 44267 44198 44203 44222 44324 44391 44441 44500 44486 44395 44218 44056 43984 44021 44071 44118 44159 44207 44288 44366 44335 44296 44285 44316 44415 44478 44519 44527 44560 44579 44470 44297 44195 44114 44069 44064 44120 44202 44363 44531 44611 44557 44515 44482 44492 44479 44458 44432 44401 44373 44344 44237 44151 44149 44226 44339 44521 44697 44849 44909 44978 44929 44869 44845 44828 44891 44900 44978 45034 45089 45173 45140 44988 44868 44853 44907 45064 45147 45224 45275 45299 45198 45058 44978 44902 44848 44828 44858 44883 44880 44817 44628 44470 44453 44514 44651 44755 44816 44858 44901 44897 44771 44658 44667 44715 44767 44831 44875 44796 44705 44657 44647 44667 44759 44844 44908 44926 44914 44886 44886 44924 44942 44914 44796 44758 44755 44770 44771 44833 44948 45076 45148 45123 45077 45107 45066 45012 44987 44966 44956 44953 44917 44757 44652 44541 44432 44402 44473 44628 44736 44834 44798 44758 44694 44640 44586 44581 44628 44678 44692 44667 44662 44583 44463 44266 44197 44270 44440 44613 44758 44859 44880 44772 44630 44495 44439 44391 44320 44298 44293 44334 44406 44313 44223 44195 44287 44464 44630 44760 44850 44855 44824 44673 44531 44531 44628 44741 44865 44947 44967 44988 44885 44625 44417 44325 44330 44399 44433 44442 44444 44428 44377 44163 44025 43961 43957 43979 44004 44004 43968 43960 43956 43938 43949 44008 44123 44262 44350 44429 44436 44409 44404 44307 44199 44128 44165 44175 44161 44127 44080 44082 44205 44307 44317 44397 44414 44388 44391 44382 44351 44375 44356 44330 44279 44284 44303 44314 44298 44340 44415 44586 44738 44885 44879 44840 44788 44737 44650 44652 44712 44787 44825 44839 44824 44785 44741 44736 44789 44907 45053 45199 45325 45457 45480 45372 45299 45225 45213 45302 45348 45346 45362 45396 45364 45225 45126 45134 45222 45361 45463 45532 45630 45692 45681 45552 45395 45312 45337 45385 45406 45452 45490 45501 45505 45413 45361 45395 45491 45587 45665 45772 45799 45795 45776 45606 45478 45391 45380 45432 45484 45519 45466 45448 45425 45411 45392 45408 45453 45524 45603 45637 45673 45669 45668 45534 45383 45279 45262 45258 45287 45275 45231 45248 45295 45239 45137 45069 45061 45117 45149 45117 45072 45086 45115 45063 44895 44832 44790 44757 44709 44699 44694 44775 44902 44949 44836 44752 44660 44620 44600 44582 44523 44494 44404 44324 44202 44120 44037 44025 44089 44160 44300 44433 44520 44565 44484 44401 44476 44609 44687 44789 44780 44722 44769 44813 44758 44616 44422 44383 44377 44364 44459 44543 44611 44637 44508 44350 44202 44191 44240 44217 44148 44085 44072 44043 43878 43710 43674 43778 43916 44068 44209 44249 44288 44287 44100 43890 43772 43760 43748 43832 43943 43999 44014 43987 43878 43877 43886 43925 44076 44234 44315 44375 44378 44446 44384 44207 44044 43978 44038 44106 44106 44106 44165 44267 44286 44227 44191 44187 44157 44174 44201 44226 44248 44242 44160 44033 44005 44037 44051 44086 44125 44255 44414 44588 44614 44565 44548 44539 44536 44536 44596 44713 44738 44784 44733 44563 44416 44323 44281 44324 44429 44581 44771 44924 44986 44890 44799 44690 44603 44636 44714 44759 44683 44576 44440 44328 44233 44224 44303 44454 44624 44806 44923 45027 44996 44878 44732 44674 44714 44720 44662 44617 44573 44570 44552 44455 44419 44478 44649 44810 44921 44976 44976 44953 44903 44755 44637 44554 44481 44414 44448 44497 44522 44562 44570 44522 44536 44634 44807 44798 44906 44913 44856 44842 44799 44713 44680 44631 44540 44564 44612 44707 44817 44947 45076 45095 45064 45007 45077 45180 45200 45223 45168 45125 45133 45070 44973 44906 44900 44929 44930 44866 44831 44902 44961 44892 44882 44918 44918 44920 44937 44913 44929 44952 44899 44615 44279 43998 43911 43891 43971 44052 44215 44367 44498 44556 44494 44425 44359 44322 44317 44391 44302 44170 44115 44125 44078 43987 43902 43877 43928 44068 44176 44395 44516 44476 44292 44147 44048 44027 44107 44091 44009 43952 43943 43869 43698 43583 43600 43770 43975 44136 44200 44233 44206 44095 43880 43723 43730 43761 43777 43803 43866 43936 43948 43858 43756 43784 43925 44068 44192 44253 44325 44283 44225 44072 43846 43737 43714 43629 43591 43646 43690 43720 43779 43719 43691 43763 43884 43999 44097 44094 44087 44071 44014 43897 43825 43739 43656 43676 43772 43829 43798 43842 43900 43911 43939 44005 44048 44080 44090 44161 44178 44222 44243 44130 44058 43980 44006 44064 44106 44112 44192 44349 44538 44562 44590 44664 44701 44685 44641 44582 44569 44649 44759 44654 44526 44430 44334 44226 44205 44275 44453 44608 44776 44834 44784 44687 44578 44484 44421 44502 44505 44419 44412 44446 44378 44272 44229 44330 44530 44682 44805 44884 44943 44913 44815 44734 44677 44727 44784 44875 44787 44795 44841 44832 44718 44664 44695 44798 44910 45004 45116 45199 45205 45163 45028 44880 44824 44842 44874 44766 44760 44764 44742 44657 44558 44570 44685 44743 44934 45016 45048 45017 44989 44819 44674 44606 44540 44400 44375 44428 44457 44413 44395 44325 44357 44419 44558 44669 44763 44741 44720 44708 44683 44594 44452 44249 44070 44096 44138 44212 44235 44250 44267 44267 44218 44239 44163 44198 44251 44280 44276 44226 44172 44076 43917 43679 43560 43515 43499 43542 43589 43698 43845 43960 44029 44000 43966 44009 44023 44006 44038 44122 44132 44074 43871 43720 43662 43648 43681 43751 43884 44059 44221 44252 44121 43924 43785 43696 43628 43648 43752 43871 43890 43884 43899 43872 43764 43681 43753 43924 44071 44197 44336 44428 44381 44210 44040 43919 43922 43933 43894 43884 43997 44092 44105 43895 43764 43814 43991 44114 44207 44255 44231 44157 44075 43908 43790 43797 43847 43792 43725 43713 43737 43819 43928 44000 44099 44231 44352 44509 44641 44669 44665 44662 44617 44543 44490 44479 44395 44339 44300 44230 44158 44122 44179 44243 44261 44332 44420 44448 44398 44345 44297 44270 44272 44197 44071 44006 44033 44056 44061 44096 44182 44282 44424 44512 44583 44626 44638 44625 44613 44603 44594 44586 44565 44510 44478 44461 44391 44263 44221 44277 44407 44566 44723 44821 44863 44785 44724 44618 44516 44470 44431 44302 44189 44222 44217 44197 44210 44237 44290 44424 44563 44721 44855 44881 44771 44652 44572 44562 44626 44691 44659 44606 44583 44558 44379 44237 44219 44346 44497 44665 44795 44835 44773 44711 44588 44424 44397 44346 44303 44271 44272 44253 44222 44219 44225 44250 44365 44478 44610 44674 44674 44665 44657 44622 44549 44507 44485 44356 44358 44466 44552 44546 44450 44425 44477 44509 44564 44597 44713 44783 44800 44813 44799 44828 44836 44726 44467 44188 44031 44025 44044 44058 44080 44234 44411 44461 44403 44341 44291 44303 44269 44254 44325 44336 44252 44101 44006 44065 44111 44123 44109 44113 44168 44266 44263 44079 43904 43755 43678 43619 43566 43515 43418 43243 43213 43223 43197 43212 43333 43513 43747 43944 44166 44257 44314 44254 44081 43943 43873 43926 43952 43889 43845 43836 43800 43688 43528 43468 43597 43892 44086 44288 44453 44543 44569 44475 44290 44201 44171 44118 44045 43968 43882 43786 43742 43696 43723 43890 44034 44189 44279 44299 44267 44252 44214 44128 44068 44052 43918 43900 43948 44004 44032 44040 44077 44077 44110 44219 44329 44442 44478 44465 44457 44407 44430 44352 44203 44107 44130 44157 44128 44088 44077 44154 44318 44366 44406 44345 44301 44295 44288 44241 44214 44197 44157 44094 44042 44067 44108 44117 44128 44236 44331 44530 44706 44803 44770 44723 44679 44630 44566 44520 44548 44591 44590 44621 44661 44673 44724 44724 44703 44694 44789 44860 44994 45055 44986 44869 44779 44722 44674 44650 44756 44879 44931 44958 44869 44723 44595 44664 44862 45044 45096 45174 45174 45059 44926 44785 44676 44588 44471 44279 44260 44296 44320 44341 44338 44390 44464 44604 44781 44886 44967 45014 44966 44845 44712 44666 44605 44525 44446 44445 44442 44397 44319 44248 44199 44192 44305 44423 44554 44720 44850 44934 44932 44779 44580 44481 44365 44268 44191 44251 44374 44483 44548 44486 44467 44518 44572 44650 44750 44806 44819 44801 44742 44546 44423 44309 44152 44021 43932 43931 43978 44070 44141 44098 44020 44000 44084 44165 44221 44257 44275 44253 44201 43959 43742 43629 43629 43686 43710 43767 43836 43917 44037 44042 44018 44030 44039 44050 44048 44031 44014 44012 43969 43864 43761 43680 43559 43449 43459 43538 43608 43669 43761 43799 43806 43853 43910 43986 44047 44094 44107 44094 44089 44025 43926 43894 43934 43967 43994 44038 44087 44086 44054 43957 43842 43818 43881 43969 44065 44197 44323 44481 44625 44736 44695 44667 44669 44703 44816 44940 45016 45045 44884 44821 44744 44651 44638 44674 44713 44785 44859 44911 44910 44891 44797 44693 44651 44675 44714 44771 44814 44861 44876 44920 44889 44770 44694 44677 44685 44703 44726 44771 44767 44801 44788 44702 44659 44653 44673 44692 44707 44734 44754 44743 44731 44632 44542 44517 44569 44630 44689 44749 44797 44849 44883 44815 44778 44763 44794 44808 44851 44864 44869 44878 44867 44825 44749 44701 44692 44695 44703 44689 44715 44745 44769 44780 44726 44669 44662 44679 44722 44756 44779 44789 44816 44825 44775 44698 44663 44650 44620 44620 44632 44614 44647 44673 44647 44576 44559 44583 44628 44682 44717 44738 44760 44812 44848 44787 44714 44674 44661 44660 44670 44663 44662 44656 44648 44582 44462 44392 44367 44378 44384 44388 44412 44424 44463 44457 44363 44295 44257 44281 44300 44330 44352 44362 44385 44386 44296 44189 44119 44111 44129 44162 44175 44220 44233 44258 44222 44099 43998 43958 43964 43999 44012 44044 44055 44075 44064 43970 43862 43852 43871 43885 43929 43958 43990 44027 44057 43992 43877 43818 43820 43854 43893 43918 43948 43992 44028 44029 43914 43859 43843 43872 43920 43952 43992 44016 44060 44083 44014 43932 43889 43886 43928 43973 43987 44012 44033 44066 44038 43936 43883 43880 43905 43933 43961 43992 44016 44041 44022 43943 43871 43856 43870 43911 43943 43988 44024 44041 44069 44001 43935 43906 43917 43948 43986 44031 44085 44100 44130 44108 44038 44030 44048 44098 44148 44190 44236 44273 44304 44316 44244 44216 44231 44259 44293 44320 44369 44397 44439 44471 44429 44380 44376 44415 44446 44494 44521 44565 44591 44631 44641 44600 44583 44579 44613 44660 44702 44751 44758 44799 44823 44816 44764 44740 44737 44757 44790 44813 44855 44874 44903 44927 44902 44850 44810 44819 44845 44872 44899 44929 44957 44981 44993 44922 44882 44828 44863 44883 44913 44939 44954 44967 45006 44995 44933 44889 44890 44903 44931 44951 44963 44963 44978 44989 44979 44875 44828 44830 44834 44868 44898 44944 44986 45027 45089 45092 45050 44994 45017 45020 45025 45112 45187 45260 45358 45410 45305 45175 45110 45104 45122 45169 45203 45238 45278 45308 45333 45258 45196 45144 45117 45125 45168 45176 45198 45201 45240 45232 45175 45008 44830 44827 44851 44846 44844 44833 44891 44924 44938 44803 44626 44498 44453 44455 44487 44538 44601 44693 44754 44696 44591 44540 44529 44549 44582 44642 44732 44809 44870 44837 44708 44631 44607 44634 44670 44684 44697 44704 44700 44723 44651 44514 44434 44423 44469 44502 44550 44597 44615 44655 44657 44543 44437 44390 44393 44429 44480 44538 44586 44630 44653 44581 44451 44365 44352 44408 44454 44508 44551 44589 44619 44632 44529 44373 44307 44297 44335 44391 44435 44475 44512 44550 44547 44386 44251 44201 44202 44258 44321 44352 44397 44428 44450 44416 44247 44138 44099 44119 44171 44230 44281 44305 44346 44375 44307 44153 44088 44067 44103 44175 44212 44261 44293 44339 44370 44316 44190 44133 44129 44158 44221 44263 44309 44358 44398 44446 44441 44357 44273 44273 44295 44334 44399 44420 44476 44525 44583 44615 44562 44466 44427 44425 44467 44504 44579 44610 44646 44686 44727 44777 44740 44661 44643 44659 44695 44740 44770 44818 44861 44898 44921 44967 44905 44828 44815 44818 44866 44893 44935 44973 45002 45032 45077 45073 45007 44933 44911 44917 44944 44991 45033 45071 45088 45134 45137 45125 45060 45001 44987 45019 45050 45095 45124 45144 45173 45202 45218 45180 45120 45062 45073 45083 45122 45144 45175 45206 45228 45244 45268 45241 45157 45110 45087 45106 45141 45172 45195 45208 45231 45249 45266 45262 45192 45136 45098 45115 45137 45179 45218 45249 45264 45294 45345 45382 45350 45256 45231 45227 45239 45270 45302 45320 45367 45412 45441 45483 45481 45395 45292 45256 45240 45248 45305 45321 45355 45347 45332 45344 45347 45342 45286 45217 45192 45188 45219 45233 45278 45303 45376 45403 45437 45403 45330 45284 45295 45310 45342 45365 45398 45451 45480 45516 45536 45530 45426 45374 45351 45361 45384 45418 45450 45485 45504 45532 45566 45548 45465 45384 45372 45383 45403 45428 45471 45481 45510 45543 45562 45557 45465 45387 45345 45339 45374 45407 45421 45461 45485 45517 45556 45600 45567 45484 45430 45412 45416 45439 45468 45478 45514 45531 45553 45565 45579 45451 45379 45344 45338 45367 45382 45414 45431 45454 45467 45511 45466 45377 45293 45279 45274 45298 45318 45365 45391 45420 45458 45476 45478 45385 45325 45296 45289 45317 45350 45378 45413 45449 45489 45524 45530 45424 45368 45341 45349 45369 45393 45422 45438 45465 45506 45512 45486 45385 45286 45245 45241 45247 45284 45322 45340 45378 45412 45438 45472 45371 45279 45238 45240 45269 45312 45347 45386 45437 45494 45533 45586 45549 45438 45394 45394 45424 45437 45485 45513 45557 45597 45642 45677 45676 45575 45538 45545 45585 45671 45748 45809 45845 45889 45910 45953 45976 45952 45907 45922 45938 45984 46022 46063 46094 46123 46158 46184 46161 46034 45985 45949 45961 45987 46010 46035 46073 46113 46135 46165 46132 46053 45988 45976 45992 46028 46043 46091 46113 46166 46203 46259 46254 46158 46090 46060 46062 46101 46124 46153 46183 46214 46245 46272 46301 46211 46125 46056 46041 46065 46092 46099 46128 46152 46182 46211 46237 46260 46186 46112 46070 46081 46102 46127 46148 46185 46199 46228 46251 46274 46287 46191 46107 46050 46043 46049 46077 46079 46119 46139 46171 46201 46235 46200 46099 46014 45969 45991 46005 46030 46057 46099 46144 46161 46205 46232 46148 46055 45984 45975 45994 46023 46042 46083 46117 46152 46183 46211 46230 46111 46027 45997 45991 46003 46018 46044 46071 46091 46127 46195 46204 46185 46065 45997 45950 45954 45962 45992 46022 46051 46078 46118 46148 46173 46197 46074 45973 45939 45912 45920 45961 45973 46000 46032 46054 46077 46120 46133 46110 46007 45933 45910 45930 45962 45969 45997 46034 46072 46095 46143 46179 46206 46084 45986 45923 45913 45919 45954 45974 46000 46019 46049 46080 46112 46112 46020 45890 45835 45810 45818 45855 45873 45904 45933 45967 45995 46031 46009 45881 45775 45738 45721 45732 45763 45791 45810 45857 45901 45910 45941 45911 45775 45651 45616 45591 45620 45641 45670 45689 45707 45723 45768 45791 45725 45586 45471 45433 45405 45428 45434 45473 45485 45515 45529 45563 45599 45527 45374 45267 45197 45173 45183 45196 45232 45231 45256 45289 45313 45338 45327 45185 45057 44982 44988 44991 45011 45020 45068 45073 45106 45150 45179 45201 45120 44993 44885 44834 44826 44840 44856 44872 44895 44914 44940 44963 44962 44834 44656 44528 44471 44435 44459 44468 44470 44489 44528 44570 44614 44643 44551 44433 44393 44411 44479 44552 44651 44746 44835 44932 45006 45088 45145 45112 45029 44960 44933 44951 44958 44978 44993 45006 45036 45069 45112 45103 44997 44886 44830 44814 44824 44848 44876 44906 44923 44951 44971 45001 44933 44815 44728 44692 44680 44691 44716 44738 44781 44788 44825 44833 44846 44735 44586 44512 44467 44492 44536 44563 44622 44687 44748 44791 44837 44883 44902 44863 44830 44825 44867 44905 44945 44998 45060 45083 45140 45186 45226 45205 45115 45050 45006 44992 44993 45022 45024 45062 45094 45137 45174 45187 45149 45094 45062 45047 45075 45116 45150 45168 45201 45228 45270 45306 45322 45280 45233 45232 45235 45275 45311 45392 45547 45502 45421 45411 45461 45504 45517 45529 45514 45511 45538 45538 45553 45563 45594 45633 45657 45676 45706 45859 46058 46105 45711 45478 45453 45418 45394 45389 45366 45368 45365 45382 45381 45332 45181 45005 44933 44724 44614 44661 44709 44722 44737 44740 44791 44819 44863 44907 44921 44923 44937 44967 44981 45009 45020 45037 45062 45077 45073 45087 45041 45022 44988 44967 44993 45011 45011 45048 45063 45064 45095 45094 45122 45103 45067 45019 44976 44958 44936 44943 44956 44959 44984 44976 44991 44999 45008 45013 45007 45013 45018 45015 45013 44995 45006 45014 45004 45017 45031 45018 45012 44949 44832 44760 44724 44725 44730 44730 44734 44749 44762 44759 44761 44770 44702 44572 44459 44390 44338 44329 44337 44377 44420 44449 44501 44544 44576 44573 44538 44482 44476 44465 44491 44536 44553 44599 44615 44633 44661 44684 44709 44694 44659 44631 44630 44648 44668 44692 44711 44726 44751 44785 44802 44819 44810 44748 44706 44666 44659 44666 44672 44692 44695 44722 44731 44740 44756 44716 44611 44522 44472 44443 44440 44463 44468 44478 44494 44516 44543 44544 44545 44420 44263 44150 44085 44050 44023 44015 43983 43943 43963 44017 44054 44112 44110 44015 43912 43870 43850 43848 43882 43932 43977 44033 44084 44141 44217 44317 44310 44233 44314 44489 44477 44511 44638 44720 44805 44847 44971 44851 44735 44594 44488 44409 44380 44350 44374 44405 44447 44513 44559 44618 44659 44713 44743 44751 44737 44681 44645 44622 44596 44600 44586 44570 44581 44600 44603 44525 44426 44371 44298 44287 44299 44327 44348 44402 44434 44483 44525 44561 44627 44749 45019 45427 45603 45522 45333 45299 45306 45327 45338 45366 45368 45358 45370 45372 45346 45321 45312 45310 45299 45287 45276 45270 45272 45247 45258 45236 45225 45215 45231 45226 45225 45231 45231 45247 45263 45259 45281 45284 45299 45305 45315 45306 45314 45328 45326 45334 45339 45347 45379 45364 45385 45383 45400 45408 45396 45392 45416 45415 45422 45433 45446 45472 45492 45497 45518 45519 45533 45535 45542 45544 45561 45563 45568 45588 45592 45591 45605 45609 45621 45639 45660 45652 45656 45674 45670 45666 45686 45684 45678 45695 45707 45727 45729 45752 45752 45749 45764 45750 45773 45767 45777 45782 45770 45804 45788 45810 45823 45826 45845 45848 45843 45837 45844 45843 45842 45843 45831 45822 45819 45822 45839 45848 45856 45877 45865 45865 45868 45897 45903 45903 45923 45934 45935 45947 45969 45976 45986 45990 45999 46007 46014 46023 46019 46024 46030 46038 46044 46045 46041 46045 46050 46045 46060 46064 46075 46081 46080 46081 46090 46102 46102 46121 46133 46137 46136 46125 46144 46130 46137 46145 46141 46154 46172 46166 46170 46168 46122 45989 45985 46095 46113 46130 46136 46138 46145 46145 46149 46129 46142 46138 46144 46144 46127 46116 46120 46114 46111 46116 46113 46133 46134 46140 46151 46146 46178 46177 46193 46183 46185 46191 46216 46221 46228 46239 46263 46263 46283 46305 46333 46347 46344 46319 46315 46294 46298 46298 46277 46298 46296 46292 46277 46261 46260 46254 46258 46240 46239 46218 46231 46225 46207 46198 46199 46202 46212 46209 46202 46188 46167 46134 46115 46085 46086 46083 46070 46057 46054 46036 46038 46031 46013 45981 45965 45945 45918 45904 45879 45879 45878 45880 45858 45865 45863 45838 45817 45795 45781 45764 45747 45714 45720 45716 45690 45697 45697 45706 45693 45688 45669 45633 45626 45595 45583 45571 45565 45548 45549 45530 45540 45540 45513 45471 45440 45384 45357 45320 45303 45266 45272 45246 45241 45238 45224 45208 45180 45125 45055 45003 44976 44941 44916 44899 44898 44869 44867 44872 44857 44835 44756 44702 44630 44597 44563 44543 44528 44504 44501 44494 44489 44476 44453 44416 44317 44210 44092 44026 43958 43929 43900 43871 43828 43768 43736 43688 43673 43628 43466 43286 43112 42993 42950 42902 42865 42832 42823 42832 42790 42742 42748 42785 42838 42743 42576 42450 42421 42403 42443 42496 42539 42562 42585 42621 42653 42682 42720 42754 42675 42490 42349 42301 42324 42355 42389 42449 42496 42546 42571 42616 42670 42725 42711 42584 42461 42386 42339 42333 42348 42388 42401 42429 42470 42503 42547 42600 42531 42361 42204 42143 42099 42110 42138 42162 42181 42223 42259 42296 42336 42375 42324 42168 42006 41922 41901 41916 41952 41996 42042 42082 42127 42181 42240 42296 42353 42327 42202 42070 41989 41967 42001 42040 42085 42130 42166 42214 42277 42349 42392 42439 42510 42561 42482 42373 42312 42269 42279 42314 42356 42410 42469 42507 42553 42609 42659 42730 42778 42852 42837 42744 42671 42622 42616 42643 42685 42721 42776 42836 42878 42914 42941 42965 42999 42976 42904 42848 42826 42819 42831 42882 42933 42994 43055 43099 43156 43217 43294 43290 43282 43301 43297 43333 43367 43420 43479 43522 43581 43638 43679 43727 43776 43801 43773 43716 43684 43684 43712 43740 43765 43800 43831 43853 43890 43908 43944 43961 43883 43799 43738 43700 43670 43690 43692 43688 43719 43734 43762 43838 43928 43993 44069 44104 44081 44058 44096 44181 44235 44272 44339 44411 44449 44469 44492 44550 44557 44516 44483 44436 44437 44452 44482 44532 44562 44601 44630 44669 44707 44741 44772 44732 44601 44425 44409 44436 44567 44596 44639 44654 44671 44704 44731 44764 44755 44681 44586 44520 44486 44408 44360 44371 44345 44345 44329 44341 44366 44365 44287 44151 44030 43969 43923 43905 43897 43887 43892 43884 43905 43912 43915 43903 43762 43636 43537 43501 43475 43476 43497 43495 43504 43520 43552 43571 43589 43534 43406 43260 43201 43180 43216 43241 43279 43305 43333 43371 43420 43444 43482 43421 43294 43201 43149 43168 43195 43231 43246 43272 43310 43354 43375 43406 43392 43316 43211 43146 43141 43179 43211 43216 43249 43278 43320 43378 43429 43471 43433 43330 43250 43238 43206 43223 43266 43298 43352 43396 43442 43490 43528 43499 43415 43352 43355 43376 43405 43451 43496 43531 43559 43607 43657 43691 43680 43611 43548 43517 43530 43572 43617 43640 43699 43735 43782 43818 43870 43892 43852 43793 43769 43788 43815 43842 43881 43913 43951 43987 44023 44073 44110 44121 44086 44063 44036 44031 44053 44096 44128 44167 44209 44264 44294 44353 44389 44418 44398 44351 44344 44336 44348 44376 44415 44429 44458 44496 44535 44550 44601 44614 44591 44549 44515 44507 44538 44539 44567 44597 44627 44656 44675 44705 44738 44737 44691 44640 44619 44624 44623 44661 44683 44696 44723 44754 44771 44803 44817 44788 44734 44693 44676 44683 44688 44728 44733 44753 44789 44816 44837 44874 44880 44841 44767 44709 44664 44672 44685 44699 44720 44729 44737 44760 44805 44810 44839 44841 44762 44655 44591 44555 44546 44556 44563 44566 44564 44579 44582 44608 44627 44670 44663 44567 44447 44359 44329 44332 44329 44337 44327 44331 44345 44354 44376 44412 44417 44394 44263 44134 44054 44034 44047 44049 44065 44074 44087 44105 44139 44161 44195 44133 43984 43822 43735 43739 43780 43849 43929 43993 44064 44125 44182 44224 44285 44365 44339 44322 44289 44257 44238 44203 44159 44141 44137 44148 44162 44163 44180 44179 44098 43985 43921 43901 43909 43926 43971 43995 44017 44047 44078 44137 44180 44160 44050 43976 43944 43950 43954 43974 44020 44051 44083 44109 44149 44190 44221 44213 44129 44067 44031 44032 44063 44081 44106 44135 44181 44212 44256 44297 44342 44352 44313 44256 44223 44222 44263 44277 44303 44334 44370 44402 44439 44482 44524 44544 44529 44464 44431 44417 44434 44456 44483 44516 44547 44578 44606 44642 44685 44697 44651 44611 44577 44574 44583 44620 44647 44674 44689 44713 44758 44786 44808 44805 44765 44727 44705 44702 44723 44753 44777 44809 44828 44870 44888 44922 44947 44942 44886 44844 44837 44847 44854 44881 44902 44921 44950 44986 45008 45042 45044 45027 44982 44941 44942 44961 44964 44977 45010 45023 45048 45068 45111 45136 45174 45162 45106 45072 45032 45049 45065 45084 45119 45148 45180 45198 45216 45261 45290 45313 45290 45254 45211 45197 45211 45222 45237 45252 45287 45301 45339 45367 45384 45405 45398 45342 45302 45275 45268 45279 45294 45320 45325 45344 45365 45391 45410 45442 45429 45376 45314 45296 45283 45294 45318 45348 45345 45372 45391 45413 45442 45472 45440 45370 45316 45277 45272 45276 45297 45308 45301 45326 45345 45353 45376 45406 45367 45290 45226 45165 45144 45135 45152 45167 45188 45212 45239 45249 45237 45229 45239 45181 45079 44992 44929 44913 