47485 44888 44877 44880 44898 44908 44929 44896 44839 44778 44735 44719 44732 44732 44716 44695 44688 44696 44700 44691 44712 44732 44755 44729 44685 44645 44697 44698 44702 44702 44735 44772 44804 44819 44865 44899 44934 44988 45023 45056 45056 45042 44995 44981 44974 44983 44985 44998 45007 45010 45049 45058 45092 45113 45127 45127 45114 45101 45119 45138 45150 45160 45194 45207 45238 45270 45303 45323 45371 45377 45394 45395 45391 45415 45427 45449 45475 45498 45519 45554 45577 45597 45621 45656 45652 45645 45634 45633 45641 45645 45677 45678 45697 45702 45725 45738 45753 45754 45756 45755 45715 45688 45683 45693 45691 45693 45685 45704 45692 45708 45718 45722 45746 45755 45753 45734 45714 45710 45699 45682 45701 45696 45695 45701 45736 45734 45736 45751 45763 45771 45766 45738 45730 45730 45706 45730 45715 45724 45736 45739 45751 45769 45761 45780 45788 45789 45791 45760 45752 45750 45748 45738 45753 45759 45764 45775 45769 45781 45798 45811 45825 45813 45783 45756 45728 45741 45731 45727 45743 45749 45748 45772 45768 45790 45787 45798 45777 45744 45718 45688 45683 45667 45658 45659 45657 45649 45663 45663 45666 45683 45684 45692 45646 45604 45560 45521 45507 45503 45484 45501 45475 45473 45472 45471 45482 45493 45485 45494 45465 45415 45364 45333 45312 45303 45283 45284 45272 45270 45285 45274 45283 45280 45302 45309 45294 45241 45176 45132 45111 45093 45093 45080 45084 45075 45077 45080 45098 45096 45130 45134 45139 45106 45065 45014 44980 44964 44966 44948 44944 44947 44948 44953 44953 44959 44983 44997 45015 45000 44944 44883 44855 44833 44842 44819 44817 44826 44842 44844 44848 44866 44872 44887 44899 44870 44793 44754 44733 44725 44720 44719 44718 44711 44715 44725 44735 44745 44763 44783 44772 44722 44672 44635 44614 44607 44597 44591 44594 44604 44622 44643 44648 44663 44683 44688 44687 44645 44586 44573 44558 44558 44555 44575 44554 44575 44584 44604 44624 44643 44670 44670 44675 44626 44602 44585 44565 44566 44580 44583 44584 44614 44637 44642 44672 44697 44709 44746 44741 44701 44678 44655 44643 44654 44673 44697 44687 44709 44724 44752 44784 44796 44837 44854 44868 44841 44809 44793 44810 44819 44829 44833 44843 44848 44874 44889 44927 44947 44967 44984 45006 44973 44952 44943 44945 44938 44961 44965 44983 44997 45030 45036 45057 45076 45093 45114 45125 45103 45073 45080 45084 45064 45099 45112 45122 45146 45141 45171 45207 45219 45251 45275 45252 45239 45240 45230 45244 45252 45261 45271 45305 45314 45335 45337 45362 45394 45418 45447 45445 45436 45436 45419 45433 45432 45448 45456 45477 45489 45494 45525 45549 45560 45585 45611 45644 45622 45613 45609 45615 45614 45627 45617 45648 45650 45667 45670 45692 45703 45729 45752 45764 45781 45775 45758 45762 45751 45755 45744 45765 45763 45777 45779 45786 45800 45812 45823 45831 45851 45862 45863 45844 45840 45820 45801 45808 45801 45797 45801 45797 45802 45809 45820 45825 45830 45839 45848 45836 45785 45761 45728 45714 45700 45678 45670 45669 45651 45648 45643 45640 45649 45675 45662 45667 45597 45546 45496 45464 45431 45409 45387 45372 45377 45348 45352 45362 45355 45349 45364 45345 45276 45212 45161 45106 45076 45063 45039 45036 45026 45013 45017 45030 45029 45033 45049 45020 44944 44876 44823 44778 44746 44722 44711 44687 44674 44681 44698 44702 44704 44711 44730 44742 44714 44626 44538 44486 44443 44424 44403 44406 44408 44395 44402 44406 44425 44445 44451 44460 44490 44441 44353 44291 44242 44203 44206 44208 44202 44208 44215 44229 44237 44254 44273 44302 44320 44329 44257 44196 44156 44136 44130 44134 44135 44155 44156 44178 44206 44242 44290 44308 44339 44345 44314 44257 44237 44234 44233 44258 44261 44261 44274 44313 44345 44375 44401 44429 44463 44456 44442 44417 44409 44399 44419 44434 44447 44466 44489 44515 44532 44573 44599 44632 44645 44640 44622 44626 44630 44636 44656 44666 44701 44729 44736 44781 44812 44824 44872 44893 44886 44879 44868 44903 44915 44923 44953 44966 44982 45004 45031 45061 45094 45125 45149 45182 45174 45184 45186 45198 45212 45231 45255 45278 45291 45318 45328 45356 45388 45420 45431 45444 45448 45453 45461 45461 45483 45482 45496 45509 45515 45539 45559 45571 45598 45624 45635 45651 45648 45657 45661 45660 45656 45660 45667 45672 45678 45696 45710 45734 45756 45766 45787 45792 45798 45773 45769 45768 45761 45758 45769 45771 45789 45782 45790 45800 45820 45824 45847 45848 45843 45802 45789 45770 45758 45757 45749 45772 45770 45770 45788 45783 45795 45818 45809 45828 45813 45767 45748 45734 45708 45709 45710 45707 45703 45693 45713 45722 45730 45735 45749 45760 45739 45710 45666 45645 45632 45614 45601 45591 45599 45584 45592 45591 45603 45612 45611 45634 45637 45619 45558 45510 45462 45434 45417 45399 45403 45393 45378 45381 45383 45395 45401 45416 45422 45441 45429 45367 45315 45254 45221 45191 45187 45179 45151 45144 45170 45170 45162 45178 45193 45193 45212 45218 45188 45122 45072 45037 45030 45005 45006 45006 45001 45000 45006 45015 45035 45031 45044 45068 45069 45019 44935 44906 44865 44878 44880 44878 44867 44872 44866 44875 44902 44902 44923 44934 44908 44837 44779 44731 44687 44675 44650 44654 44647 44656 44671 44676 44691 44712 44744 44738 44714 44674 44640 44622 44615 44601 44603 44608 44617 44618 44636 44647 44677 44679 44686 44655 44615 44575 44553 44541 44542 44548 44567 44566 44577 44607 44628 44660 44681 44722 44706 44675 44635 44616 44590 44600 44597 44599 44607 44606 44606 44619 44643 44658 44666 44683 44664 44617 44579 44579 44568 44573 44563 44587 44584 44614 44621 44634 44656 44681 44695 44691 44670 44636 44623 44610 44608 44620 44646 44632 44638 44667 44678 44699 44725 44747 44756 44734 44705 44700 44688 44671 44690 44715 44730 44730 44750 44760 44772 44806 44822 44834 44839 44813 44801 44794 44789 44796 44814 44818 44830 44844 44873 44903 44917 44941 44961 44983 44969 44970 44957 44945 44935 44933 44940 44956 44969 44974 44995 45000 45023 45029 45067 45098 45133 45148 45139 45162 45148 45157 45163 45168 45164 45192 45197 45228 45230 45259 45283 45294 45313 45337 45337 45322 45309 45319 45321 45353 45393 45437 45483 45516 45534 45557 45584 45605 45623 45625 45649 45633 45614 45633 45633 45645 45638 45654 45645 45653 45648 45656 45650 45640 45624 45608 45564 45491 45452 45415 45395 45392 45393 45398 45411 45429 45460 45486 45528 45551 45574 45565 45541 45499 45474 45432 45421 45441 45457 45495 45566 45581 45588 45585 45581 45543 45491 45433 45399 45376 45362 45346 45335 45337 45351 45360 45372 45395 45390 45390 45327 45263 45233 45184 45166 45183 45211 45262 45302 45338 45372 45371 45391 45395 45408 45352 45318 45257 45224 45220 45201 45225 45227 45265 45294 45312 45329 45343 45359 45336 45306 45256 45197 45143 45116 45100 45107 45121 45156 45204 45284 45363 45435 45470 45496 45472 45464 45439 45420 45411 45433 45437 45422 45417 45414 45425 45464 45478 45458 45430 45387 45338 45318 45307 45327 45369 45411 45448 45473 45469 45467 45446 45388 45336 45303 45293 45278 45295 45307 45315 45334 45359 45376 45408 45439 45456 45449 45413 45370 45363 45384 45382 45391 45390 45384 45395 45416 45439 45467 45490 45497 45480 45475 45482 45544 45592 45601 45646 45683 45718 45715 45731 45732 45739 45723 45727 45700 45694 45707 45699 45723 45732 45780 45803 45824 45840 45821 45824 45805 45794 45797 45815 45820 45841 45868 45881 45916 45933 45938 45931 45946 45962 45984 45994 46009 46022 46038 46065 46086 46099 46101 46113 46125 46137 46128 46139 46145 46140 46149 46133 46171 46205 46222 46233 46258 46267 46297 46286 46279 46262 46253 46222 46214 46227 46225 46223 46232 46264 46297 46306 46322 46323 46312 46307 46315 46315 46332 46327 46328 46323 46335 46352 46366 46393 46412 46380 46340 46317 46305 46322 46329 46340 46366 46370 46375 46403 46406 46384 46353 46325 46288 46282 46290 46301 46308 46291 46295 46319 46342 46373 46377 46362 46350 46335 46318 46296 46273 46276 46278 46307 46327 46351 46330 46352 46354 46344 46325 46328 46370 46389 46441 46448 46471 46479 46495 46497 46504 46471 46466 46442 46422 46368 46342 46347 46334 46337 46345 46351 46365 46354 46372 46357 46316 46275 46248 46204 46188 46173 46175 46169 46163 46160 46195 46217 46239 46207 46161 46118 46078 46081 46072 46065 46065 46061 46023 46011 46014 46014 46003 45960 45918 45881 45882 45889 45905 45911 45924 45935 45948 45974 45955 45897 45840 45793 45773 45760 45759 45761 45757 45752 45753 45778 45806 45823 45804 45704 45656 45603 45577 45558 45509 45504 45512 45513 45542 45559 45574 45526 45451 45388 45347 45335 45323 45311 45312 45343 45342 45370 45361 45347 45283 45188 45112 45065 45051 45033 45046 45029 45038 45020 45043 45037 45033 45006 44958 44922 44898 44911 44934 44958 44977 44971 44991 45020 45038 45063 45051 45047 45016 45003 45007 45025 45056 45111 45158 45182 45211 45256 45259 45269 45263 45240 45228 45233 45227 45242 45273 45309 45357 45389 45426 45460 45472 45466 45471 45485 45507 45527 45539 45567 45584 45592 45619 45648 45677 45713 45728 45733 45741 45748 45784 45800 45807 45843 45858 45867 45899 45904 45926 45920 45949 45948 45972 45996 46068 46091 46102 46128 46150 46157 46150 46164 46183 46208 46212 46237 46228 46246 46248 46267 46292 46299 46317 46338 46366 46355 46394 46397 46408 46427 46428 46445 46452 46463 46464 46467 46484 46463 46468 46466 46462 46486 46517 46532 46529 46537 46515 46517 46512 46496 46494 46475 46471 46453 46468 46454 46457 46475 46480 46459 46433 46443 46437 46439 46422 46414 46402 46417 46429 46433 46434 46416 46372 46351 46323 46325 46312 46314 46313 46328 46337 46378 46414 46390 46355 46347 46296 46271 46249 46230 46221 46218 46239 46248 46260 46259 46199 46126 46066 46038 46013 46019 46030 46035 46026 46030 46053 46024 45934 45822 45733 45657 45627 45598 45584 45565 45545 45552 45581 45638 45599 45499 45412 45360 45326 45304 45295 45278 45276 45298 45318 45321 45305 45237 45172 45080 45041 45055 45073 45096 45107 45099 45100 45116 45109 45016 44929 44872 44862 44878 44908 44940 44942 44936 44921 44927 44941 44924 44873 44826 44807 44807 44838 44865 44888 44898 44906 44934 44940 44908 44886 44838 44816 44801 44807 44852 44908 44966 45012 45038 45059 45070 45049 45006 44992 44995 45024 45037 45037 45065 45093 45114 45165 45170 45192 45199 45205 45227 45226 45243 45278 45312 45331 45355 45380 45381 45353 45372 45380 45384 45398 45425 45475 45506 45571 45611 45637 45650 45652 45673 45684 45691 45713 45720 45747 45793 45825 45851 45851 45834 45839 45850 45882 45943 45976 45994 45994 46037 46065 46070 46057 46040 46048 46055 46068 46076 46088 46085 46085 46098 46119 46180 46210 46196 46193 46193 46188 46201 46231 46228 46256 46260 46284 46289 46292 46283 46256 46234 46259 46268 46298 46334 46371 46385 46398 46395 46393 46364 46362 46353 46349 46323 46352 46366 46373 46368 46370 46337 46315 46310 46301 46315 46335 46327 46342 46365 46388 46383 46352 46308 46275 46255 46243 46228 46206 46188 46186 46184 46251 46291 46316 46304 46280 46269 46288 46283 46286 46282 46270 46284 46282 46293 46253 46228 46190 46192 46203 46212 46252 46276 46272 46292 46311 46289 46237 46163 46118 46088 46067 46079 46072 46079 46075 46035 46019 45958 45919 45893 45880 45891 45884 45880 45879 45891 45890 45896 45850 45752 45681 45632 45600 45565 45536 45520 45524 45565 45628 45629 45580 45503 45440 45411 45377 45357 45347 45355 45347 45368 45353 45316 45211 45079 44981 44973 45007 45077 45136 45158 45178 45195 45191 45138 45050 44971 44943 44953 44984 45037 45067 45068 45089 45075 45028 44994 45012 45019 45036 45058 45070 45112 45145 45168 45201 45212 45184 45155 45143 45157 45154 45182 45205 45275 45327 45388 45418 45434 45426 45440 45450 45475 45491 45501 45549 45571 45603 45618 45659 45660 45656 45670 45697 45703 45752 45788 45811 45836 45876 45895 45898 45904 45905 45916 45938 45954 45986 46004 46001 46010 46035 46040 46062 46055 46083 46092 46117 46136 46179 46191 46206 46221 46246 46248 46242 46243 46240 46251 46235 46245 46270 46304 46343 46378 46413 46424 46432 46430 46425 46437 46433 46431 46438 46460 46475 46478 46482 46455 46445 46430 46452 46466 46477 46479 46482 46495 46507 46520 46492 46464 46435 46402 46379 46382 46367 46345 46337 46351 46371 46435 46466 46447 46434 46412 46426 46426 46426 46417 46432 46453 46469 46492 46467 46455 46426 46402 46400 46425 46451 46492 46485 46534 46514 46509 46504 46474 46434 46450 46442 46443 46449 46459 46467 46451 46448 46400 46354 46303 46274 46248 46229 46243 46250 46274 46277 46277 46205 46113 46016 45964 45942 45909 45875 45872 45862 45913 45943 45971 45899 45834 45782 45749 45746 45720 45697 45704 45700 45687 45701 45696 45656 45589 45513 45493 45519 45545 45565 45564 45558 45558 45580 45549 45458 45337 45275 45241 45239 45241 45270 45272 45315 45329 45285 45208 45168 45121 45073 45075 45086 45106 45158 45155 45170 45133 45031 44920 44852 44826 44811 44806 44775 44749 44759 44810 44830 44793 44701 44644 44621 44637 44644 44653 44663 44679 44694 44717 44729 44693 44654 44619 44592 44598 44643 44706 44742 44793 44806 44824 44786 44771 44764 44752 44768 44820 44847 44890 44910 44937 44931 44903 44880 44899 44953 44979 45046 45103 45161 45181 45227 45256 45260 45249 45261 45247 45283 45302 45294 45299 45298 45367 45407 45455 45520 45554 45582 45599 45637 45689 45721 45743 45771 45808 45825 45834 45844 45865 45861 45883 45888 45932 45992 46061 46104 46133 46142 46165 46176 46181 46207 46242 46265 46295 46307 46322 46333 46348 46345 46360 46370 46410 46432 46436 46445 46440 46463 46471 46469 46459 46458 46455 46469 46474 46514 46523 46526 46544 46550 46537 46527 46516 46523 46538 46549 46559 46570 46566 46569 46569 46559 46553 46544 46518 46503 46479 46472 46480 46497 46522 46527 46534 46527 46523 46501 46483 46469 46443 46468 46473 46477 46496 46518 46517 46482 46438 46404 46376 46396 46415 46452 46471 46491 46509 46511 46487 46440 46395 46366 46345 46343 46322 46316 46320 46313 46337 46345 46330 46317 46286 46256 46244 46254 46239 46228 46213 46218 46207 46184 46156 46095 46029 45967 45971 45986 46022 46036 46076 46095 46079 46025 45956 45893 45804 45774 45766 45751 45753 45738 45728 45703 45615 45487 45412 45408 45434 45479 45529 45522 45535 45547 45562 45536 45423 45330 45253 45215 45192 45169 45140 45085 45054 45038 45092 45108 45077 45031 45018 45008 45014 45002 44979 44974 44964 44959 44967 44938 44874 44787 44720 44724 44752 44804 44862 44911 44938 44987 44993 44935 44857 44795 44779 44757 44760 44791 44799 44794 44808 44790 44711 44638 44608 44625 44637 44683 44726 44749 44781 44803 44800 44728 44651 44588 44598 44601 44647 44681 44702 44746 44805 44872 44895 44860 44803 44780 44778 44792 44810 44847 44900 44947 44986 45008 45025 44994 44953 44913 44902 44935 44993 45051 45103 45148 45181 45206 45209 45180 45170 45183 45218 45261 45297 45326 45345 45367 45390 45396 45393 45430 45472 45513 45533 45566 45600 45627 45646 45665 45666 45654 45640 45649 45658 45654 45688 45678 45694 45723 45752 45782 45789 45783 45779 45789 45798 45812 45841 45855 45889 45922 45920 45898 45852 45821 45801 45817 45883 45948 46006 46036 46058 46074 46060 46038 46014 45997 46018 46046 46086 46118 46123 46141 46095 46046 46025 46059 46120 46168 46201 46235 46236 46270 46300 46264 46220 46195 46180 46193 46172 46174 46181 46185 46194 46215 46228 46211 46182 46138 46118 46116 46130 46149 46165 46154 46159 46165 46126 46070 46045 46023 46014 45988 45959 45942 45995 46067 46073 46041 46007 45987 45952 45945 45945 45932 45980 45993 46006 46013 45965 45876 45799 45741 45734 45750 45771 45793 45795 45806 45808 45740 45632 45531 45483 45481 45462 45431 45415 45418 45432 45458 45435 45403 45375 45386 45379 45406 45446 45490 45490 45508 45486 45358 45277 45213 45192 45182 45190 45195 45204 45190 45203 45202 45146 45069 44953 44911 44939 44933 44908 44898 44887 44908 44882 44826 44800 44767 44738 44721 44717 44748 44781 44812 44821 44818 44741 44635 44532 44472 44432 44444 44476 44494 44524 44574 44601 44567 44489 44452 44455 44531 44571 44587 44636 44668 44700 44726 44647 44558 44472 44489 44509 44532 44560 44604 44633 44672 44696 44677 44689 44630 44590 44605 44617 44673 44731 44780 44827 44866 44862 44840 44803 44816 44830 44870 44877 44883 44919 44992 45014 45020 45007 45008 45044 45075 45103 45136 45184 45219 45250 45292 45321 45321 45291 45255 45268 45309 45374 45415 45467 45493 45536 45550 45547 45541 45546 45578 45608 45648 45687 45728 45763 45789 45803 45813 45818 45819 45811 45837 45858 45872 45906 45940 45975 46002 46045 46036 46039 46055 46061 46081 46100 46135 46162 46196 46206 46201 46179 46164 46167 46184 46203 46199 46224 46251 46266 46270 46298 46266 46243 46237 46223 46256 46277 46279 46302 46320 46313 46350 46328 46317 46306 46319 46310 46327 46334 46353 46353 46344 46347 46342 46356 46335 46306 46302 46316 46328 46327 46347 46367 46382 46393 46357 46309 46281 46274 46253 46213 46222 46259 46308 46341 46355 46325 46280 46251 46231 46212 46199 46183 46188 46170 46162 46149 46114 46036 45959 45906 45925 45969 46031 46065 46087 46118 46133 46104 46020 45930 45894 45917 45918 45921 45911 45930 45935 45942 45922 45901 45860 45826 45784 45774 45775 45792 45776 45777 45784 45814 45768 45700 45651 45642 45661 45659 45655 45650 45688 45742 45740 45680 45603 45516 45463 45429 45426 45437 45443 45463 45473 45492 45489 45427 45339 45274 45250 45259 45279 45293 45301 45314 45347 45319 45213 45103 45014 44943 44912 44896 44885 44880 44842 44812 44759 44690 44649 44657 44661 44679 44699 44759 44788 44842 44899 44929 44878 44778 44765 44744 44724 44732 44740 44780 44836 44909 44822 44682 44584 44523 44485 44468 44446 44409 44368 44334 44285 44227 44123 43975 43775 43634 43601 43669 43727 43787 43868 43935 43928 43837 43707 43585 43508 43510 43545 43515 43484 43449 43388 43286 43188 43276 43496 43672 43819 43925 44013 44089 44177 44273 44347 44284 44192 44120 44114 44111 44146 44192 44225 44227 44191 44146 44019 43956 43942 43958 43963 44000 44000 43970 43942 43900 43812 43665 43568 43503 43479 43483 43455 43400 43446 43554 43691 43816 43879 43941 43967 43977 43974 43985 43999 44006 43966 43940 43880 43786 43686 43614 43593 43667 43826 43972 44144 44308 44397 44415 44370 44318 44228 44189 44242 44267 44281 44292 44318 44301 44259 44199 44226 44329 44420 44519 44663 44776 44836 44888 44921 44897 44865 44853 44907 44947 44959 44938 44907 44866 44847 44864 44925 44979 45044 45136 45200 45258 45303 45330 45349 45361 45355 45292 45229 45191 45149 45081 44998 44930 44870 44867 44960 45059 45192 45296 45345 45386 45400 45398 45395 45396 45423 45492 45498 45473 45402 45312 45242 45174 45148 45200 45321 45395 45546 45632 45684 45689 45691 45686 45678 45666 45667 45666 45655 45600 45501 45387 45284 45263 45321 45400 45552 45683 45761 45794 45782 45732 45666 45610 45569 45536 45508 45459 45361 45294 45235 45181 45208 45336 45482 45612 45716 45770 45786 45799 45802 45773 45732 45754 45765 45738 45742 45715 45669 45645 45660 45753 45823 45821 45829 45859 45845 45847 45825 45803 45780 45773 45783 45747 45693 45664 45673 45653 45562 45490 45498 45567 45641 45682 45690 45660 45629 45594 45568 45543 45505 45481 45477 45477 45448 45348 45234 45120 45116 45206 45325 45436 45512 45569 45589 45537 45439 45320 45227 45166 45150 45108 45070 45035 44975 44905 44770 44672 44653 44747 44832 44902 44979 45027 45060 45064 44994 44886 44815 44808 44818 44835 44823 44833 44834 44791 44653 44528 44502 44494 44511 44556 44581 44576 44570 44570 44532 44389 44235 44185 44142 44092 44083 44089 44055 43986 44039 44090 44083 43998 43984 44021 44095 44138 44172 44193 44216 44258 44136 43991 43841 43706 43578 43497 43534 43693 43872 43984 44046 43989 43932 43901 43888 43877 43870 43912 43958 44001 44031 43996 43899 43769 43587 43518 43607 43789 43944 44054 44147 44185 44135 44089 44056 44005 44023 44062 44079 44059 44051 44016 43924 43798 43733 43823 43958 44077 44190 44280 44320 44335 44308 44220 44127 44088 44074 44029 43965 43914 43846 43796 43794 43850 43949 44059 44216 44350 44472 44561 44675 44739 44778 44798 44797 44821 44821 44806 44770 44710 44656 44610 44548 44545 44565 44639 44776 44858 44883 44895 44917 44900 44873 44910 45000 44998 44938 44807 44673 44586 44515 44564 44764 44903 45062 45187 45234 45206 45165 45100 45060 45083 45165 45198 45155 45120 45034 44906 44784 44750 44842 45029 45208 45379 45519 45589 45630 45607 45560 45522 45552 45668 45703 45730 45704 45672 45634 45543 45470 45461 45508 45576 45662 45728 45722 45706 45677 45658 45598 45551 45578 45582 45533 45466 45386 45316 45224 45201 45313 45465 45526 45614 45661 45702 45711 45727 45723 45727 45737 45782 45730 45656 45563 45486 45372 45273 45274 45387 45554 45707 45786 45793 45742 45691 45642 45599 45560 45583 45624 45644 45629 45594 45470 45317 45200 45174 45275 45416 45540 45644 45705 45723 45714 45625 45533 45434 45371 45331 45256 45192 45096 45027 44929 44830 44751 44743 44823 44944 45085 45209 45279 45288 45297 45284 45200 45140 45111 45080 45040 44983 44904 44796 44726 44672 44696 44749 44762 44768 44783 44772 44764 44746 44695 44645 44682 44726 44649 44462 44266 44079 43974 43954 44022 44169 44347 44512 44609 44597 44490 44361 44246 44175 44200 44326 44394 44378 44348 44305 44175 44029 43939 43945 44085 44225 44339 44425 44493 44549 44593 44565 44521 44474 44422 44449 44497 44584 44662 44725 44787 44789 44728 44650 44553 44511 44528 44511 44490 44490 44456 44396 44269 44030 43832 43774 43780 43789 43817 43793 43803 43925 44063 44095 44065 44039 44015 44036 44092 44120 44124 44161 44238 44277 44283 44195 44119 44047 43961 43953 44060 44178 44212 44295 44366 44333 44246 44139 44026 44014 44044 44076 44072 44056 44006 43947 43816 43656 43637 43765 43863 43944 44080 44139 44144 44121 44088 43955 43783 43738 43761 43723 43644 43621 43549 43521 43559 43606 43681 43793 43908 44051 44172 44258 44290 44318 44338 44317 44217 44085 43967 43860 43806 43718 43653 43631 43758 43956 44067 44139 44219 44284 44305 44297 44263 44205 44319 44402 44401 44324 44181 44012 43874 43778 43766 43922 44158 44358 44550 44680 44703 44660 44623 44612 44623 44724 44810 44871 44859 44838 44789 44680 44521 44459 44535 44703 44838 44975 45086 45109 45134 45114 45063 45012 45012 45118 45199 45234 45254 45257 45231 45172 45088 45089 45165 45244 45303 45378 45434 45472 45484 45473 45438 45352 45279 45167 45062 44978 44897 44835 44838 44968 45129 45230 45270 45306 45328 45331 45350 45352 45334 45353 45359 45427 45424 45395 45343 45333 45271 45279 45389 45521 45639 45669 45690 45655 45642 45596 45613 45586 45599 45638 45635 45621 45551 45429 45279 45153 45119 45195 45303 45430 45525 45616 45670 45652 45583 45495 45424 45442 45536 45586 45623 45606 45604 45549 45404 45313 45376 45453 45506 45572 45612 45662 45676 45680 45609 45483 45345 45313 45258 45188 45176 45213 45217 45226 45269 45271 45253 45235 45237 45266 45307 45332 45355 45335 45351 45365 45282 45162 45058 44987 44897 44784 44698 44705 44815 44916 44931 44885 44857 44822 44817 44804 44800 44830 44903 44981 45022 44957 44807 44673 44545 44547 44680 44804 44884 44901 44943 44920 44842 44746 44658 44570 44548 44597 44639 44614 44566 44517 44434 44311 44286 44378 44496 44576 44620 44665 44691 44763 44765 44676 44487 44333 44302 44341 44386 44436 44509 44581 44664 44674 44619 44535 44454 44418 44421 44452 44513 44551 44580 44564 44456 44293 44151 44043 43958 43890 43809 43818 43918 44101 44227 44221 44149 44098 44076 44157 44249 44343 44417 44498 44570 44618 44541 44481 44413 44365 44382 44485 44555 44611 44638 44691 44650 44545 44478 44388 44326 44287 44284 44230 44210 44185 44194 44137 44030 43980 44037 44161 44274 44353 44439 44491 44499 44504 44434 44283 44199 44239 44269 44286 44253 44261 44261 44252 44236 44264 44317 44385 44442 44509 44571 44620 44660 44656 44660 44564 44488 44435 44335 44236 44201 44122 44083 44116 44188 44300 44340 44369 44419 44444 44458 44506 44523 44527 44565 44596 44592 44514 44466 44441 44418 44368 44404 44517 44602 44693 44777 44791 44761 44737 44701 44662 44653 44682 44673 44615 44597 44572 44486 44361 44331 44430 44603 44755 44894 44989 45053 45116 45142 45103 45047 45023 45047 45077 45090 45096 45068 45002 44931 44799 44697 44703 44792 44919 45024 45098 45141 45170 45181 45134 45040 44960 44870 44773 44698 44645 44623 44597 44635 44714 44815 44852 44873 44904 44936 44994 45045 45082 45061 45039 45019 44962 44894 44831 44813 44816 44775 44768 44843 44931 45030 45063 44990 44923 44881 44890 44947 44995 45003 45032 45066 45071 45018 44902 44775 44647 44543 44552 44620 44725 44822 44895 44929 44859 44769 44726 44680 44663 44665 44731 44780 44807 44826 44810 44620 44416 44317 44378 44494 44575 44625 44667 44706 44703 44591 44448 44338 44288 44300 44292 44284 44274 44306 44281 44170 44087 44084 44109 44138 44190 44251 44321 44386 44430 44358 44206 44036 43970 43966 43990 44040 44000 43926 43850 43779 43683 43646 43654 43684 43740 43830 43899 43941 43975 43961 43850 43653 43518 43451 43406 43362 43355 43415 43567 43751 43761 43658 43568 43527 43503 43490 43473 43486 43583 43667 43651 43532 43482 43402 43310 43310 43387 43541 43664 43781 43849 43780 43685 43646 43631 43645 43699 43797 43858 43920 43964 43921 43757 43549 43432 43486 43614 43735 43790 43873 43936 43943 43866 43796 43706 43731 43830 43905 43932 43919 43898 43811 43648 43625 43728 43847 43919 43986 44033 44103 44154 44158 44069 43934 43850 43848 43825 43773 43704 43634 43589 43607 43621 43709 43784 43846 43915 44008 44097 44140 44189 44189 44093 43999 43977 43919 43833 43771 43688 43609 43585 43730 43869 43937 43960 44005 44065 44130 44173 44172 44129 44111 44043 43869 43704 43542 43451 43405 43447 43563 43778 44008 44157 44181 44180 44177 44225 44244 44261 44229 44238 44254 44202 44120 44012 43860 43667 43597 43647 43837 44096 44302 44441 44503 44485 44460 44402 44318 44302 44358 44449 44509 44437 44388 44257 44036 43857 43870 44060 44231 44397 44534 44592 44588 44475 44335 44176 44035 44063 44126 44096 44032 44022 43956 43881 43880 44015 44210 44367 44515 44631 44669 44667 44641 44553 44401 44334 44289 44247 44174 44120 44017 43875 43771 43795 43872 43915 44040 44185 44199 44160 44084 43977 43905 43911 43988 43922 43813 43765 43679 43623 43679 43828 44033 44251 44350 44436 44496 44588 44676 44793 44876 44943 44962 44955 44975 44914 44827 44795 44826 44874 44884 44856 44865 44803 44832 44841 44814 44753 44692 44661 44626 44654 44711 44733 44710 44665 44522 44269 43997 43921 44075 44217 44384 44596 44701 44690 44568 44382 44225 44142 44196 44283 44249 44267 44297 44295 44094 43859 43811 43898 44051 44231 44438 44570 44614 44632 44522 44339 44205 44152 44066 43977 43936 43893 43837 43720 43555 43522 43570 43660 43862 44013 44074 44077 44107 44109 44080 44016 43978 43929 43890 43880 43887 43851 43710 43619 43699 43743 43744 43785 43868 43927 43961 43968 43920 43858 43821 43765 43623 43487 43506 43591 43658 43628 43491 43516 43724 43856 43832 43791 43775 43803 43838 43866 43857 43876 43944 43973 43886 43703 43468 43206 43055 43082 43304 43581 43766 43926 43994 43927 43876 43872 43861 43871 43905 43969 43988 44029 44052 44003 43835 43589 43362 43368 43545 43715 43890 44034 44111 44134 44032 43904 43802 43777 43835 43893 43916 43895 43807 43709 43546 43434 43535 43689 43862 44010 44138 44221 44266 44276 44227 44090 44025 44039 44058 44065 44070 44089 44024 43902 43896 43912 43923 43981 44079 44117 44120 44136 44111 44083 44050 43980 43868 43805 43810 43769 43659 43564 43588 43783 44032 44201 44270 44288 44327 44374 44427 44457 44477 44568 44657 44708 44704 44638 44541 44386 44262 44281 44419 44560 44696 44815 44886 44860 44810 44780 44770 44769 44819 44861 44863 44850 44848 44832 44699 44507 44452 44539 44647 44789 44923 44999 45037 45060 44999 44855 44674 44620 44623 44590 44568 44512 44443 44365 44329 44345 44459 44554 44666 44774 44836 44885 44868 44849 44786 44699 44638 44556 44495 44427 44328 44209 44125 44163 44287 44453 44547 44612 44662 44707 44752 44761 44734 44711 44741 44774 44699 44556 44454 44364 44261 44223 44305 44471 44662 44802 44913 44925 44860 44816 44746 44656 44647 44714 44757 44729 44670 44622 44451 44231 44048 44010 44133 44321 44502 44646 44723 44757 44736 44576 44387 44293 44305 44297 44276 44281 44299 44235 44137 44005 43961 44010 44085 44219 44320 44390 44470 44557 44621 44634 44508 44339 44249 44301 44396 44527 44662 44787 44880 44943 44899 44697 44465 44311 44280 44311 44359 44368 44404 44425 44453 44410 44301 44210 44234 44261 44318 44358 44386 44428 44473 44505 44442 44295 44156 44058 43999 43918 43835 43806 43768 43770 43741 43610 43462 43316 43224 43273 43289 43347 43389 43571 43753 43909 43970 43948 43922 43921 43956 43996 44075 44154 44223 44281 44252 44105 44006 43951 43931 43961 44026 44092 44174 44225 44247 44144 43955 43794 43679 43611 43522 43434 43356 43343 43452 43580 43547 43514 43489 43535 43588 43635 43653 43652 43706 43765 43733 43575 43463 43374 43247 43119 43081 43189 43388 43553 43722 43788 43739 43712 43701 43689 43674 43736 43747 43732 43695 43660 43526 43260 43022 42911 43028 43226 43409 43570 43695 43801 43822 43728 43587 43503 43523 43589 43620 43613 43645 43631 43512 43327 43232 43289 43408 43521 43658 43757 43856 43933 43997 43975 43827 43784 43810 43804 43803 43859 43866 43811 43717 43704 43800 43833 43836 43850 43882 43947 44013 44051 44046 44072 44114 43965 43816 43749 43660 43498 43325 43261 43436 43664 43875 43961 43948 43936 43930 43958 43979 44004 44049 44155 44184 44149 44028 43752 43503 43367 43365 43485 43693 43885 44058 44152 44148 44075 43983 43900 43890 43945 43995 43968 43966 43986 43957 43752 43601 43652 43817 43957 44122 44254 44320 44385 44418 44339 44217 44169 44209 44200 44137 44070 43951 43807 43727 43653 43665 43773 43916 44074 44190 44261 44336 44371 44373 44378 44339 44269 44186 44119 44045 43914 43800 43781 43938 44130 44194 44176 44202 44235 44293 44339 44344 44315 44295 44364 44310 44161 44080 43980 43765 43635 43632 43797 44019 44224 44337 44319 44296 44284 44314 44359 44383 44393 44472 44563 44646 44651 44572 44414 44187 44005 44013 44127 44264 44396 44511 44515 44398 44317 44332 44374 44409 44420 44471 44537 44573 44553 44445 44384 44384 44463 44522 44529 44582 44625 44654 44632 44479 44284 44088 44037 44035 44074 44104 44118 44136 44106 43906 43815 43882 43903 43969 44089 44169 44198 44230 44222 44136 43960 43856 43788 43745 43716 43622 43490 43372 43340 43394 43459 43453 43539 43617 43694 43744 43805 43799 43772 43755 43625 43473 43339 43252 43176 43050 42903 42836 42976 43184 43288 43301 43318 43327 43363 43396 43408 43435 43490 43518 43457 43358 43245 43147 43011 42887 42914 43071 43195 43344 43481 43500 43394 43223 43047 42921 42837 42952 43120 43146 43134 43035 42809 42569 42478 42663 42913 43098 43280 43416 43513 43591 43516 43377 43241 43239 43352 43400 43409 43352 43287 43178 43005 42911 43015 43143 43251 43355 43454 43509 43554 43571 43445 43279 43232 43259 43272 43274 43321 43312 43217 43167 43211 43248 43279 43319 43393 43480 43554 43625 43688 43714 43739 43720 43643 43551 43493 43422 43311 43187 43124 43174 43368 43505 43518 43524 43560 43598 43676 43737 43764 43769 43761 43757 43618 43454 43368 43293 43221 43162 43284 43499 43637 43770 43779 43732 43689 43649 43632 43622 43637 43722 43812 43846 43822 43660 43437 43309 43320 43488 43703 43872 43980 44073 44130 44125 44053 43969 43921 43934 43998 44032 44022 44002 43978 43854 43671 43553 43557 43686 43828 43964 44093 44172 44258 44306 44219 44081 44006 43988 43928 43862 43789 43721 43610 43479 43365 43351 43452 43575 43754 43887 43973 44025 44056 44058 44001 43892 43813 43697 43642 43600 43495 43406 43473 43636 43790 43810 43824 43829 43859 43867 43881 43801 43748 43730 43814 43729 43588 43509 43396 43280 43288 43326 43471 43663 43872 44009 44044 44024 44003 43962 43930 43909 43958 44024 44044 44045 44035 43898 43680 43378 43122 43022 43153 43331 43557 43717 43745 43638 43480 43332 43192 43145 43193 43177 43168 43144 43083 42907 42716 42639 42777 43072 43336 43555 43699 43804 43860 43800 43619 43474 43486 43531 43572 43548 43478 43388 43369 43354 43292 43368 43472 43555 43666 43737 43811 43894 43978 43964 43810 43627 43524 43508 43496 43479 43478 43481 43544 43614 43610 43551 43499 43496 43553 43638 43736 43831 43901 43956 43880 43682 43531 43478 43423 43371 43337 43359 43452 43593 43679 43642 43597 43592 43637 43678 43707 43729 43725 43739 43674 43512 43448 43422 43343 43278 43285 43424 43611 43780 43847 43723 43657 43660 43724 43784 43796 43782 43885 43962 43990 43963 43901 43796 43677 43690 43784 43900 43980 44077 44165 44151 44069 44007 43979 43989 43963 44002 44109 44190 44234 44275 44281 44295 44343 44436 44554 44651 44680 44726 44781 44764 44697 44627 44591 44603 44610 44635 44724 44795 44821 44837 44818 44767 44763 44799 44769 44751 44799 44844 44849 44807 44706 44570 44444 44417 44418 44449 44471 44528 44579 44573 44578 44652 44721 44749 44861 44980 45023 45019 45039 44980 44847 44759 44769 44752 44707 44691 44712 44745 44766 44793 44807 44850 44863 44916 44981 44982 44951 44927 44876 44783 44688 44584 44499 44452 44470 44531 44628 44725 44820 44880 44857 44846 44892 44924 44935 44957 44983 44980 44952 44894 44853 44792 44754 44727 44769 44747 44704 44770 44862 44848 44791 44771 44748 44730 44734 44723 44663 44592 44637 44602 44466 44393 44360 44364 44375 44408 44503 44637 44727 44832 44783 44679 44616 44573 44553 44538 44559 44637 44695 44703 44635 44515 44408 44213 44060 44091 44211 44298 44459 44576 44508 44377 44281 44180 44092 44081 44181 44199 44216 44237 44195 44063 43900 43899 44034 44172 44284 44359 44423 44421 44318 44141 43961 43850 43870 43912 43876 43852 43873 43854 43729 43649 43654 43776 43911 44084 44178 44236 44294 44276 44137 43938 43771 43735 43692 43713 43754 43803 43816 43791 43704 43653 43717 43774 43859 43953 44027 44046 44047 44042 43962 43973 44032 44142 44295 44431 44538 44612 44658 44653 44624 44539 44474 44429 44468 44552 44635 44695 44720 44735 44643 44524 44499 44524 44543 44640 44744 44831 44924 44978 44964 44858 44750 44714 44707 44734 44765 44780 44763 44746 44723 44604 44519 44449 44386 44349 44372 44445 44586 44675 44794 44798 44751 44731 44702 44692 44685 44724 44757 44745 44703 44640 44536 44454 44460 44573 44743 44874 44954 45023 45062 45109 45059 45010 44960 44954 44999 45046 45110 45162 45198 45200 45095 44983 44981 45060 45143 45190 45245 45297 45332 45368 45287 45163 45084 45090 45120 45104 45114 45089 45063 45026 44915 44840 44863 44907 44977 45051 45121 45161 45153 45149 45047 44963 44898 44873 44851 44841 44808 44801 44822 44846 44828 44760 44709 44711 44759 44776 44771 44766 44710 44689 44685 44597 44514 44484 44497 44427 44395 44441 44542 44655 44742 44721 44571 44458 44401 44381 44351 44303 44309 44363 44299 44225 44154 44083 44035 44039 44114 44201 44313 44418 44496 44519 44409 44321 44255 44191 44192 44242 44290 44324 44308 44327 44197 44046 43978 44003 44132 44281 44419 44472 44507 44541 44474 44330 44141 43997 43936 43949 43914 43910 43894 43881 43810 43640 43500 43502 43619 43768 43902 43999 43993 43992 43910 43676 43538 43489 43487 43513 43557 43545 43532 43547 43618 43664 43712 43765 43798 43837 43880 43911 43945 43958 44014 43997 43878 43778 43737 43703 43669 43707 43755 43858 44038 44131 44141 44125 44128 44170 44178 44176 44152 44223 44287 44247 44122 44011 43911 43860 43871 43978 44173 44348 44463 44550 44543 44514 44472 44442 44423 44478 44562 44585 44573 44571 44485 44373 44333 44373 44526 44692 44792 44880 44959 45028 45039 44997 44915 44903 44939 45025 45075 45128 45184 45253 45282 45200 45145 45157 45153 45194 45247 45282 45308 45307 45228 45062 45013 44949 44913 44896 44907 44869 44841 44941 45046 45051 45061 45080 45106 45173 45260 45300 45299 45331 45316 45253 45117 44995 44920 44840 44806 44834 44930 45053 45124 45118 45113 45083 45079 45059 45067 45123 45158 45121 44971 44807 44642 44528 44472 44516 44653 44851 44953 45066 45125 45071 44996 44918 44925 44980 45015 45014 44988 44920 44804 44655 44506 44498 44616 44769 44897 44967 45028 45096 45122 45023 44862 44833 44846 44913 44934 44909 44858 44759 44654 44493 44501 44636 44721 44796 44863 44911 44928 44935 44892 44763 44630 44454 44283 44203 44156 44131 44186 44326 44453 44466 44334 44239 44237 44284 44372 44406 44403 44452 44463 44312 44135 43963 43802 43710 43660 43747 43873 44051 44168 44142 44040 43943 43887 43843 43826 43817 43793 43752 43721 43598 43397 43323 43382 43552 43747 43902 43970 44054 44096 44092 43971 43846 43786 43852 43928 43973 43972 43934 43855 43704 43539 43516 43655 43779 43878 43951 43993 44021 44034 43951 43830 43765 43798 43778 43762 43754 43709 43655 43659 43704 43735 43739 43819 43928 44025 44121 44131 44152 44189 44082 43917 43772 43681 43636 43587 43563 43656 43824 43948 43932 43932 43896 43918 43941 43980 44061 44191 44332 44417 44470 44451 44399 44357 44311 44298 44354 44392 44487 44580 44546 44459 44339 44281 44270 44332 44327 44211 44098 44003 43895 43776 43758 43892 44071 44222 44410 44495 44510 44514 44385 44296 44349 44418 44516 44510 44442 44338 44283 44283 44362 44503 44599 44624 44705 44760 44779 44818 44770 44701 44668 44657 44598 44478 44330 44257 44253 44382 44533 44626 44637 44653 44703 44791 44894 44982 45003 45036 45098 45061 45001 44905 44795 44708 44716 44814 44945 45034 45021 44990 44954 44934 44881 44804 44756 44740 44771 44767 44627 44407 44200 44123 44196 44320 44465 44546 44679 44755 44698 44546 44380 44282 44357 44327 44234 44134 44098 44090 44015 43941 43976 44094 44203 44359 44496 44573 44586 44555 44339 44229 44276 44371 44345 44250 44161 44059 44088 44207 44318 44370 44335 44347 44399 44482 44523 44464 44400 44246 43996 43774 43665 43626 43622 43637 43685 43784 43833 43761 43700 43711 43661 43642 43606 43607 43707 43784 43725 43526 43388 43334 43358 43374 43389 43514 43629 43691 43712 43594 43402 43301 43213 43181 43284 43326 43298 43279 43197 43038 42936 42917 43040 43273 43550 43687 43756 43833 43818 43713 43572 43521 43603 43668 43694 43589 43514 43480 43412 43335 43387 43581 43757 43830 43908 43984 44055 44112 43984 43814 43772 43690 43594 43385 43196 43154 43155 43138 43140 43232 43290 43329 43527 43549 43534 43532 43537 43530 43414 43206 43068 42997 42966 43037 43129 43277 43498 43648 43691 43732 43800 43870 43867 43834 43807 43828 43894 43874 43764 43582 43449 43410 43457 43615 43802 43993 44115 44216 44248 44268 44292 44251 44191 44238 44350 44496 44550 44488 44329 44156 44016 44156 44368 44426 44517 44632 44710 44697 44572 44413 44348 44302 44176 44056 43981 43897 43859 43839 43908 44093 44224 44340 44531 44666 44715 44747 44702 44568 44518 44620 44684 44655 44583 44558 44497 44518 44568 44603 44568 44678 44776 44820 44836 44834 44798 44809 44782 44691 44553 44421 44344 44279 44218 44255 44458 44617 44641 44666 44681 44647 44601 44573 44547 44625 44744 44764 44634 44472 44328 44225 44271 44416 44609 44720 44777 44803 44775 44711 44674 44597 44589 44691 44758 44739 44633 44488 44246 44062 44039 44165 44327 44332 44441 44395 44268 44130 44012 43954 43980 44029 43959 43867 43836 43840 43723 43563 43510 43623 43750 43772 43923 44059 44158 44246 44135 44015 43993 44017 44052 43959 43782 43592 43577 43603 43560 43639 43794 43885 43976 44016 44017 44027 43944 43815 43710 43665 43563 43421 43314 43275 43286 43381 43461 43442 43393 43494 43601 43671 43695 43681 43624 43592 43530 43332 43125 42972 42972 42976 43004 43155 43376 43522 43455 43455 43459 43443 43459 43442 43488 43665 43715 43623 43436 43300 43108 42988 42953 43028 43190 43366 43543 43660 43625 43543 43452 43412 43488 43584 43664 43656 43634 43503 43333 43119 43093 43296 43546 43656 43829 43970 43979 43874 43743 43643 43622 43758 43908 43879 43894 44027 44025 43849 43813 43948 44051 44161 44255 44318 44322 44236 44018 43852 43864 44078 44215 44241 44249 44183 44077 43973 44047 44154 44150 44252 44355 44407 44447 44397 44319 44262 44275 44222 44083 43934 43792 43796 44010 44358 44586 44662 44576 44591 44638 44594 44542 44459 44374 44308 44144 43990 43880 43769 43771 43811 43918 44122 44274 44305 44328 44338 44316 44263 44227 44234 44342 44416 44427 44356 44199 44035 43949 43860 43854 43993 44064 44133 44326 44327 44245 44188 44073 44040 44081 44118 44086 43902 43679 43531 43442 43451 43605 43854 43977 44152 44273 44284 44203 44073 44027 44120 44203 44163 44036 43889 43743 43639 43563 43598 43764 43885 43916 44074 44178 44176 44156 44066 43872 43776 43824 43853 43781 43689 43689 43728 43754 43926 44173 44325 44400 44451 44534 44609 44618 44583 44426 44129 43878 43711 43512 43313 43205 43242 43384 43497 43471 43379 43410 43385 43412 43449 43397 43417 43517 43471 43210 42989 42824 42781 42829 42921 43025 43162 43184 43058 43000 42961 42907 42887 42876 42978 42904 42806 42743 42559 42420 42412 42469 42658 42952 43225 43316 43411 43409 43320 43214 43131 43083 43153 43151 43015 42863 42742 42684 42598 42579 42728 42982 43158 43245 43361 43385 43311 43133 42931 42811 42774 42848 42870 42859 42809 42734 42601 42519 42632 42813 42890 43092 43280 43326 43365 43309 43157 43138 43140 43147 43036 42829 42740 42814 42922 42917 42962 43011 43023 43122 43197 43279 43373 43398 43417 43342 43313 43346 43296 43242 43200 43186 43244 43411 43552 43548 43618 43734 43846 43893 43942 43917 43863 43833 43858 43914 43838 43818 43759 43623 43496 43501 43492 43525 43717 43695 43718 43737 43682 43693 43775 43914 43929 43851 43677 43465 43332 43387 43532 43689 43789 43972 44026 43932 43876 43758 43664 43678 43803 43786 43622 43501 43442 43402 43406 43527 43676 43737 43830 44003 44044 43992 43920 43859 43930 44105 44168 44048 43917 43737 43562 43479 43547 43738 43961 44126 44290 44298 44303 44240 44112 44073 44122 44204 44175 44023 43922 43870 43880 43939 44091 44267 44392 44485 44587 44666 44719 44707 44622 44571 44588 44576 44540 44469 44387 44289 44187 44170 44264 44310 44363 44468 44526 44516 44447 44393 44397 44465 44452 44348 44254 44200 44224 44226 44230 44330 44462 44443 44407 44423 44492 44495 44480 44450 44460 44446 44315 44101 43956 43813 43771 43787 43830 43906 44046 44107 44050 44007 43972 43947 43920 43931 44029 44152 44193 44140 43985 43786 43598 43528 43590 43730 43857 43970 44121 44059 43959 43862 43827 43850 43830 43759 43658 43536 43364 43236 43190 43229 43368 43582 43709 43875 44004 44112 44054 43953 43854 43816 43898 43999 43995 43928 43859 43729 43525 43494 43637 43700 43827 43951 44015 44050 44004 43809 43654 43614 43500 43364 43335 43288 43265 43263 43207 43228 43319 43358 43569 43738 43832 43833 43812 43742 43721 43731 43853 43814 43716 43614 43499 43531 43652 43737 43738 43807 43949 44071 44143 44151 44098 44048 44086 44103 44070 43937 43771 43626 43575 43662 43773 43887 43889 43933 44064 44188 44270 44267 44240 44321 44411 44420 44274 44106 43957 43811 43732 43785 43896 44024 43954 44116 44198 44178 44137 44081 44071 44077 44085 44061 43930 43784 43660 43575 43631 43802 44002 44075 44192 44323 44273 44194 44095 44018 44066 44102 44028 43964 43945 43883 43840 43818 43875 44001 44165 44180 44307 44468 44510 44421 44289 44200 44282 44367 44365 44230 44039 43862 43682 43576 43558 43639 43705 43821 44059 44072 44042 43938 43707 43633 43682 43746 43755 43761 43689 43681 43637 43623 43716 43846 43942 44069 44174 44147 44176 44094 43991 44045 44141 44134 43979 43812 43633 43615 43687 43766 43840 43897 44003 44164 44280 44314 44312 44313 44407 44366 44317 44309 44237 44134 44055 44136 44376 44551 44523 44364 44215 44237 44366 44450 44435 44383 44268 44069 44054 44005 43915 43977 44028 43951 44025 44165 44139 43914 43970 43975 43886 43850 43770 43719 43647 43602 43444 43233 43023 42894 42886 42990 43159 43338 43382 43491 43572 43525 43465 43366 43333 43438 43504 43425 43257 43089 42929 42779 42707 42793 43012 43179 43319 43486 43407 43174 42970 42821 42775 42841 42993 43046 43008 42948 42804 42682 42676 42798 42964 43008 43197 43377 43411 43321 43133 42987 42983 43070 43064 42973 42966 42886 42743 42587 42572 42759 42946 43174 43369 43427 43441 43410 43212 43042 43041 43044 43053 43065 43027 42923 42893 42820 42826 42959 43158 43340 43502 43594 43614 43582 43439 43267 43259 43327 43324 43291 43251 43194 43199 43170 43181 43289 43353 43539 43691 43792 43861 43862 43776 43647 43606 43593 43584 43582 43629 43592 43460 43370 43349 43363 43400 43584 43625 43615 43620 43582 43541 43506 43459 43394 43394 43383 43364 43385 43446 43561 43627 43663 43782 43846 43860 43948 43992 44021 44101 44188 44217 44254 44257 44202 44141 44038 43973 44069 44186 44172 44262 44321 44360 44391 44390 44383 44392 44581 44595 44505 44358 44261 44201 44080 44094 44314 44441 44517 44557 44586 44564 44571 44596 44540 44499 44661 44745 44688 44738 44763 44678 44587 44710 44832 44939 44985 44900 44805 44712 44623 44550 44480 44627 44668 44644 44617 44536 44479 44473 44570 44648 44625 44798 44881 44803 44699 44608 44547 44590 44672 44709 44694 44636 44547 44308 44113 44170 44389 44544 44630 44803 44851 44790 44748 44696 44636 44700 44910 45035 45042 45074 45049 45040 45021 45035 45141 45165 45182 45226 45235 45150 45031 44924 44898 44942 45013 45093 45135 45220 45316 45262 45189 45204 45389 45353 45298 45290 45323 45283 45127 44908 44754 44749 44810 44856 44926 45055 45125 44912 44873 44884 44776 44692 44668 44683 44737 44699 44470 44194 44073 44111 44147 44247 44386 44500 44531 44293 44100 43891 43670 43805 43942 44029 44074 44057 43934 43797 43666 43581 43645 43853 44076 44235 44345 44306 44090 43880 43737 43821 43820 43777 43736 43671 43510 43202 43003 42913 42859 42849 42842 42868 43012 43149 43095 43060 43097 43152 43289 43433 43582 43712 43829 43778 43661 43682 43811 43901 43993 44123 44224 44394 44344 44163 44043 44007 44144 44248 44220 44178 44221 44225 44139 43966 43787 43556 43429 43553 43873 44083 44277 44401 44435 44480 44564 44640 44570 44432 44389 44307 44227 44147 44080 44090 44220 44351 44386 44451 44658 44751 44709 44675 44591 44540 44567 44647 44768 44746 44735 44816 44839 44902 45041 45178 45248 45249 45250 45241 45176 45002 44828 44767 44861 45010 45110 45261 45417 45486 45436 45396 45378 45520 45544 45592 45605 45675 45683 45606 45489 45357 45264 45257 45326 45327 45349 45416 45440 45497 45532 45642 45689 45610 45604 45615 45690 45723 45601 45454 45395 45404 45448 45530 45609 45735 45820 45842 45749 45649 45607 45601 45669 45759 45783 45754 45585 45502 45468 45413 45480 45551 45672 45790 45885 45825 45668 45538 45505 45563 45631 45666 45609 45450 45390 45360 45393 45395 45416 45477 45506 45504 45583 45638 45623 45511 45394 45246 45086 44882 44677 44484 44331 44191 44055 43979 44060 44290 44582 44856 44922 44872 44922 44832 44692 44533 44406 44359 44271 44182 44026 43799 43642 43448 43322 43439 43641 43698 43811 43970 43982 43943 43740 43565 43558 43637 43648 43659 43635 43589 43721 43901 44039 44203 44368 44491 44536 44534 44607 44648 44597 44394 44142 43890 43684 43578 43609 43629 43796 43967 43989 44057 44145 44104 44098 44139 44150 44158 44075 43850 43712 43677 43617 43490 43376 43342 43391 43513 43673 43819 43783 43743 43847 43934 43945 43981 43897 43755 43667 43554 43592 43534 43454 43419 43458 43572 43699 43767 43682 43619 43682 43660 43650 43597 43518 43608 43742 43760 43718 43631 43529 43465 43454 43563 43754 43844 43768 43831 43825 43762 43727 43655 43632 43744 43732 43569 43536 43547 43635 43730 43868 44088 44292 44329 44331 44387 44358 44330 44289 44253 44284 44292 44181 43996 43929 43873 43865 43894 43967 44164 44421 44527 44638 44704 44730 44749 44756 44725 44789 44918 45021 44960 44798 44562 44348 44291 44393 44599 44788 44904 44976 44892 44822 44843 44821 44828 44908 45009 45106 45177 45139 45109 45155 45114 45092 45224 45220 45307 45349 45356 45288 45256 45194 45172 45343 45427 45398 45308 45183 44902 44700 44670 44839 45015 45116 45220 45311 45349 45298 45285 45236 45201 45186 45267 45388 45426 45522 45547 45497 45500 45623 45785 45827 45888 45918 45867 45761 45691 45648 45561 45684 45735 45739 45682 45567 45343 45229 45261 45241 45194 45306 45321 45249 45210 45023 44857 44809 44879 44898 44828 44794 44744 44665 44533 44502 44579 44631 44699 44827 44859 44834 44833 44681 44584 44648 44722 44677 44626 44623 44593 44529 44369 44337 44446 44554 44633 44734 44800 44839 44832 44687 44565 44561 44620 44668 44532 44399 44314 44268 44151 44111 44152 44212 44403 44504 44517 44487 44431 44235 44137 44150 44064 44002 44037 44039 44078 44123 44103 44136 44176 44278 44421 44525 44576 44584 44565 44400 44383 44376 44287 44211 44225 44202 44250 44384 44566 44674 44732 44811 44881 44975 45081 45174 45210 45127 44977 44848 44782 44750 44778 44797 44828 44929 45028 45021 44897 44914 45068 45198 45287 45328 45308 45234 45093 44929 44737 44585 44465 44516 44596 44746 44785 44693 44804 44913 44873 44878 44829 44780 44858 44918 44842 44653 44474 44352 44378 44518 44680 44866 44974 44953 45054 45128 45125 45150 45126 45122 45241 45392 45439 45469 45486 45531 45615 45750 45953 46150 46294 46179 46025 45943 45950 46016 46044 45978 46032 46035 45996 45900 45776 45716 45601 45572 45712 45864 45840 45691 45787 45748 45747 45793 45791 45758 45806 45886 45906 45838 45779 45829 45898 45989 46089 46167 46083 46013 45878 45853 45866 45912 45952 45945 45991 46025 45970 45920 45926 46021 46091 46089 46157 46436 46695 46290 46168 46151 46188 46161 46047 46189 46134 45986 45852 45612 45431 45318 45338 45416 45425 45511 45556 45518 45399 45288 45214 45234 45291 45281 45219 45182 45156 45073 44952 45080 45330 45546 45630 45594 45563 45513 45413 45303 45246 45210 45231 45218 45136 45094 45064 44886 44664 44679 44816 44784 44837 44872 44828 44666 44440 44202 44081 44150 44265 44347 44380 44472 44574 44606 44637 44810 44996 45001 44971 44964 44989 44939 44776 44620 44491 44431 44487 44433 44401 44426 44306 44255 44336 44463 44502 44500 44511 44417 44330 44122 43864 43758 43798 43752 43683 43684 43702 43720 43704 43735 43874 43937 44026 44165 44146 44121 44085 43894 43735 43800 43915 44045 44079 44107 44166 44339 44497 44652 44834 44960 44979 45007 45051 45132 45242 45111 44878 44740 44621 44480 44385 44371 44279 44183 44200 44286 44344 44367 44554 44626 44678 44778 44940 45032 45082 45102 45024 45154 45319 45397 45450 45434 45326 45215 45025 45093 45186 45113 45108 45107 45039 44955 45004 45022 44982 44927 45015 45206 45426 45646 45747 45729 45626 45609 45761 45873 45951 45960 45928 45773 45626 45549 45508 45432 45331 45195 45116 45186 45206 45104 45193 45188 45105 45092 45045 44964 44977 44972 44763 44612 44538 44498 44459 44483 44530 44659 44755 44691 44797 44948 44933 44914 44897 44869 44958 44932 44842 44787 44678 44608 44575 44568 44656 44797 44805 44879 44983 44919 44875 44873 44818 44767 44830 44856 44724 44612 44588 44627 44680 44789 44985 45211 45237 45152 45244 45306 45390 45498 45541 45548 45502 45586 45583 45455 45253 45132 45131 45287 45634 45869 45998 45893 45745 45708 45745 45826 45864 45841 45814 45823 45757 45703 45754 45852 46005 46189 46334 46358 46276 46135 46011 45937 45961 46002 45985 45972 45951 45876 45854 45832 45902 45993 46053 46159 46206 46232 46103 45894 45793 45930 45990 45978 45951 45928 45874 45906 45950 45904 45860 45868 45964 45991 46036 46004 45933 45826 45757 45707 45698 45639 45604 45543 45556 45574 45504 45356 45284 45329 45431 45479 45420 45474 45458 45337 45175 45027 44922 44936 45034 45058 45050 44989 44876 44830 44904 45080 45236 45320 45272 45284 45223 45144 45043 44970 44923 44904 44978 45044 44977 44886 44819 44880 45114 45354 45525 45568 45575 45565 45495 45401 45322 45319 45351 45387 45334 45288 45326 45233 45086 45157 45314 45474 45550 45586 45597 45565 45482 45451 45429 45350 45296 45274 45215 45199 45271 45432 45537 45658 45775 45807 45726 45796 45804 45709 45635 45538 45435 45552 45601 45601 45606 45660 45670 45720 45781 45908 46034 46090 46113 46165 46130 46026 45929 45810 45725 45687 45598 45534 45524 45564 45615 45673 45757 45880 45873 45874 46000 45986 45935 45853 45725 45726 45794 45767 45679 45556 45536 45602 45637 45665 45773 45856 45943 46095 46194 46238 46167 46062 45981 46010 46076 46052 45964 45895 45855 45825 45804 45873 45998 46064 46121 46234 46296 46270 46164 46047 45967 46088 46224 46363 46481 46546 46546 46460 46388 46331 46385 46560 46535 46471 46553 46525 46352 46206 46112 46072 46088 46110 46137 46131 46017 45910 45975 46061 46092 46158 46260 46330 46331 46241 46102 46000 46031 46053 45995 46008 45967 45900 45797 45743 45770 45803 45859 45968 45986 45956 45949 45786 45603 45585 45671 45657 45621 45643 45696 45663 45455 45352 45375 45338 45345 45451 45471 45479 45473 45290 45141 45085 45083 45088 45005 44972 44938 44846 44666 44639 44726 44759 44870 44960 44954 44987 44893 44652 44588 44669 44732 44653 44633 44629 44616 44522 44429 44489 44562 44595 44727 44840 44923 44990 44854 44642 44622 44732 44812 44829 44860 45001 45131 45079 44968 44908 44837 44776 44846 44831 44801 44754 44519 44322 44255 44236 44226 44251 44203 44166 44099 43955 43918 43904 44036 44203 44261 44275 44273 44222 44046 43993 44004 43942 43942 43950 44018 44094 44091 44088 44142 44161 44345 44451 44484 44535 44523 44454 44350 44374 44333 44330 44369 44380 44366 44469 44565 44529 44441 44562 44681 44726 44755 44784 44772 44780 44791 44743 44635 44557 44508 44518 44566 44621 44709 44692 44699 44866 44960 44998 45066 45073 45040 45091 45134 45023 44865 44788 44813 44848 44854 44916 45042 45105 45182 45296 45379 45402 45418 45418 45422 45425 45452 45531 45513 45504 45549 45496 45586 45766 45875 45854 45798 45806 45858 45943 45956 45901 45850 45969 46053 46016 45960 45922 45881 45816 45828 45902 45897 45978 45980 45963 45948 45966 45909 45919 46001 46023 45907 45768 45646 45545 45459 45525 45678 45808 45843 45924 45948 45939 45927 45974 45934 45935 46054 46129 46102 45991 45941 45895 45795 45770 45856 45926 46004 46061 46056 46052 46043 45974 45945 46036 46133 46212 46148 46002 45847 45672 45535 45589 45696 45759 45904 45955 45871 45847 45803 45758 45805 45898 46008 46061 45959 45723 45521 45433 45530 45686 45765 45811 45872 45822 45720 45607 45499 45430 45408 45463 45460 45387 45337 45230 45125 45142 45229 45347 45393 45470 45573 45629 45563 45426 45310 45339 45495 45590 45629 45637 45673 45680 45688 45753 45882 45948 45952 45940 45929 45898 45803 45683 45578 45467 45452 45518 45520 45484 45357 45099 44986 45027 45054 45046 45120 45190 45252 45196 45001 44823 44755 44812 44864 44890 44933 44939 44760 44573 44566 44602 44602 44721 44809 44824 44867 44827 44757 44702 44710 44753 44859 44993 45093 45174 45075 45003 45066 45145 45137 45137 45172 45261 45265 45105 44819 44617 44505 44360 44254 44205 44252 44313 44280 44204 44109 44073 44193 44349 44336 44347 44379 44285 44236 44308 44349 44340 44401 44443 44454 44555 44689 44827 44884 44947 45023 45038 45070 45069 45014 44953 44871 44924 44952 44888 44857 44835 44842 44906 44918 44824 44790 44990 45053 45039 45026 44974 44963 45011 45050 45044 45076 45144 45221 45340 45547 45769 45917 45977 45933 46031 46074 46144 46166 46171 46149 46032 45944 45944 45955 46002 46129 46228 46327 46441 46452 46263 46222 46282 46320 46350 46322 46276 46288 46268 46137 46004 45880 45784 45774 45764 45826 45931 45999 45968 46022 46046 46043 46049 46064 46110 46070 46122 46149 46153 46079 46000 45864 45812 45874 45990 46052 46051 46062 46066 46066 46078 46040 45997 46081 46209 46192 46104 46014 45913 45788 45686 45737 45811 45792 45787 45721 45637 45625 45671 45712 45764 45798 45809 45696 45490 45334 45283 45310 45407 45582 45671 45772 45835 45770 45721 45677 45642 45656 45774 45912 46011 46030 45919 45712 45502 45407 45470 45594 45675 45737 45801 45752 45709 45655 45587 45600 45680 45779 45850 45846 45716 45634 45616 45718 45882 45968 46025 46073 46026 45986 45893 45809 45727 45667 45588 45688 45781 45753 45634 45408 45256 45360 45514 45613 45691 45741 45722 45579 45460 45367 45323 45321 45469 45452 45416 45441 45225 45041 45139 45314 45390 45424 45441 45448 45356 45258 45171 45127 45118 45166 45222 45146 45048 44977 44799 44634 44620 44768 44842 44789 44817 44863 44736 44561 44398 44324 44322 44384 44424 44368 44331 44218 44048 44014 44122 44283 44335 44385 44459 44429 44263 44120 44059 44084 44099 44257 44427 44506 44572 44578 44623 44699 44818 44922 45045 45009 45041 45017 45004 44945 44896 44871 44854 44940 45014 45032 45128 45021 45018 45219 45314 45253 45268 45290 45396 45482 45380 45276 45232 45212 45270 45355 45435 45523 45567 45526 45531 45583 45636 45549 45556 45600 45692 45720 45720 45708 45716 45733 45769 45777 45744 45714 45585 45459 45477 45571 45572 45468 45570 45580 45520 45407 45266 45207 45320 45428 45515 45466 45531 45638 45574 45607 45647 45645 45625 45722 45852 45943 46002 45988 45941 45900 45894 45989 46092 46152 46235 46254 46229 46274 46302 46321 46357 46356 46398 46461 46464 46371 46241 46159 46185 46211 46212 46258 46277 46235 46197 46176 46165 46119 46111 46073 46016 45971 45830 45672 45610 45582 45560 45580 45612 45714 45922 46095 46143 46178 46171 46223 46268 46345 46421 46446 46407 46209 46042 46093 46125 46108 46199 46307 46418 46434 46372 46235 46195 46183 46206 46323 46370 46367 46226 46014 45967 45955 45935 45992 46112 46244 46294 46204 46088 45942 45943 45922 45925 45949 45896 45841 45728 45603 45501 45388 45359 45498 45710 45935 46149 46196 46071 46003 45994 46036 46123 46221 46256 46223 46060 45895 45847 45861 45947 46024 46064 46109 46234 46071 45859 45793 45783 45815 45861 45885 45828 45729 45541 45364 45274 45341 45496 45653 45789 45891 45960 45779 45488 45424 45471 45475 45505 45460 45385 45336 45245 45071 45000 44993 45080 45276 45482 45674 45774 45616 45366 45304 45353 45395 45414 45421 45415 45467 45373 45273 45161 45172 45247 45373 45534 45664 45686 45514 45400 45340 45355 45403 45431 45417 45389 45421 45378 45264 45179 45208 45263 45363 45497 45565 45597 45463 45353 45320 45319 45309 45245 45199 45257 45162 44966 44806 44749 44778 44839 44944 45068 45112 45152 45190 45222 45265 45354 45424 45423 45454 45521 45585 45569 45540 45604 45712 45854 46085 46208 46173 46118 46019 46031 46157 46254 46318 46297 46198 46157 46159 46092 46063 46105 46176 46288 46361 46340 46320 46258 46231 46253 46328 46361 46290 46215 46252 46349 46295 46224 46258 46343 46508 46605 46657 46592 46522 46456 46408 46460 46509 46488 46369 46305 46280 46133 46025 46000 46089 46250 46398 46484 46469 46350 46292 46243 46194 46149 46075 46062 46055 46012 45885 45786 45685 45654 45736 45895 46034 46078 46026 46049 46044 45967 45927 45862 45811 45870 45932 45872 45737 45616 45496 45457 45485 45584 45674 45667 45718 45773 45745 45731 45719 45703 45689 45778 45837 45802 45699 45719 45826 46010 46211 46375 46486 46431 46275 46158 46149 46196 46247 46244 46232 46282 46269 46213 46168 46200 46218 46252 46334 46416 46420 46314 46217 46155 46151 46167 46133 46121 46107 46120 45979 45846 45861 45945 45927 45871 45845 45823 45651 45524 45505 45445 45414 45426 45365 45345 45388 45288 45157 45136 45191 45255 45356 45476 45532 45477 45404 45367 45385 45404 45466 45558 45600 45670 45742 45715 45716 45684 45645 45709 45751 45809 45835 45761 45602 45412 45364 45450 45539 45542 45433 45336 45232 45131 45123 45194 45280 45446 45657 45818 45858 45637 45365 45349 45450 45569 45615 45665 45622 45566 45460 45448 45467 45502 45562 45638 45735 45793 45655 45458 45355 45449 45556 45691 45732 45633 45484 45395 45233 45120 45140 45178 45245 45343 45421 45349 45070 45084 45054 45039 45054 45033 45031 45033 44994 44825 44740 44706 44782 44891 44993 45132 45182 45036 45025 45052 45038 45084 45090 45054 45079 45139 45095 45042 45074 45214 45308 45380 45515 45692 45695 45584 45495 45526 45620 45673 45713 45680 45606 45513 45409 45290 45219 45226 45243 45331 45481 45556 45383 45409 45445 45454 45475 45478 45488 45533 45514 45376 45224 45113 45082 45084 45097 45178 45318 45366 45305 45368 45440 45486 45580 45625 45628 45666 45594 45497 45380 45297 45266 45258 45272 45374 45483 45448 45412 45469 45508 45533 45576 45566 45572 45601 45600 45595 45575 45516 45464 45474 45521 45605 45613 45549 45625 45705 45765 45821 45854 45801 45782 45761 45784 45729 45729 45787 45869 45868 45862 45917 45902 45877 45911 45999 46071 46123 46188 46146 46068 46031 46009 45878 45778 45746 45772 45743 45725 45726 45770 45833 45947 46031 46084 46131 46133 46073 45987 45994 46037 46026 46048 46156 46209 46294 46313 46312 46269 46224 46288 46386 46433 46465 46436 46319 46185 46180 46136 46100 46124 46150 46143 46145 46120 46071 46030 46137 46231 46231 46235 46202 46122 46058 46020 46097 46136 46183 46270 46306 46288 46298 46275 46173 46164 46264 46328 46331 46329 46283 46094 46034 45967 45822 45695 45573 45622 45726 45731 45668 45657 45665 45704 45753 45696 45740 45758 45675 45504 45425 45355 45270 45207 45219 45271 45345 45341 45317 45325 45361 45461 45514 45538 45541 45410 45240 45168 45127 45084 45075 45082 45106 45155 45108 45037 45042 45034 45042 45097 45123 45133 45142 45002 44896 44803 44754 44637 44569 44551 44573 44568 44443 44437 44438 44527 44669 44707 44718 44736 44656 44543 44462 44343 44157 44107 44228 44372 44447 44371 44270 44230 44251 44361 44473 44523 44584 44540 44395 44392 44456 44554 44639 44734 44830 44973 45178 45142 45082 45078 45109 45075 45150 45273 45378 45385 45189 45066 45078 45179 45293 45383 45465 45544 45571 45499 45427 45312 45353 45395 45379 45363 45337 45176 45040 44969 44868 44789 44757 44777 44853 44918 44936 45021 45034 45084 45232 45292 45309 45319 45273 45182 45201 45256 45251 45199 45126 45068 45089 45078 45110 45185 45225 45298 45404 45395 45383 45381 45291 45186 45155 45165 45115 45088 45079 45083 45109 45062 45071 45161 45219 45345 45512 45559 45577 45576 45480 45387 45380 45427 45485 45430 45352 45277 45209 45130 45138 45175 45246 45349 45523 45636 45675 45670 45574 45510 45550 45653 45679 45609 45565 45572 45563 45530 45491 45492 45577 45607 45558 45648 45759 45707 45528 45394 45274 45208 45208 45237 45300 45326 45325 45309 45303 45303 45316 45360 45425 45539 45581 45553 45559 45657 45747 45778 45808 45776 45706 45597 45625 45657 45684 45711 45769 45824 45856 45849 45765 45660 45594 45646 45740 45811 45888 45977 46039 45921 45791 45663 45560 45531 45604 45634 45628 45619 45559 45437 45347 45304 45289 45265 45307 45409 45436 45356 45303 45353 45419 45434 45431 45404 45339 45163 45038 45032 45064 45142 45207 45231 45274 45228 44984 44752 44686 44760 44898 45037 45133 45235 45229 45089 45010 44979 44964 44953 44944 44926 44928 44831 44691 44588 44573 44651 44688 44740 44799 44852 44781 44653 44600 44655 44742 44817 44864 44860 44828 44685 44560 44480 44463 44532 44575 44575 44547 44484 44357 44327 44361 44450 44545 44631 44731 44798 44704 44495 44374 44378 44365 44386 44465 44545 44532 44318 44121 44079 44131 44242 44365 44460 44547 44540 44456 44343 44257 44217 44251 44221 44201 44278 44334 44310 44261 44319 44469 44601 44712 44810 44891 44927 44934 44973 45023 45039 45032 45000 44995 44954 44906 44908 44906 44964 45130 45297 45439 45571 45623 45533 45490 45499 45560 45624 45699 45741 45706 45607 45550 45568 45568 45616 45684 45754 45809 45866 45855 45788 45773 45836 45900 45943 45934 45913 45865 45722 45622 45588 45566 45575 45591 45561 45532 45520 45538 45537 45521 45660 45724 45696 45694 45685 45645 45520 45378 45303 45267 45239 45254 45272 45317 45336 45382 45491 45576 45585 45693 45842 45931 45967 45936 45749 45536 45508 45400 45299 45282 45334 45331 45326 45299 45264 45293 45319 45387 45537 45609 45599 45625 45548 45461 45427 45475 45559 45544 45536 45560 45539 45398 45291 45310 45389 45455 45532 45677 45778 45783 45718 45629 45544 45535 45595 45556 45450 45355 45322 45283 45214 45214 45321 45453 45517 45593 45701 45698 45637 45536 45471 45419 45403 45393 45307 45238 45261 45271 45162 45087 45105 45215 45323 45383 45476 45555 45489 45329 45266 45231 45213 45239 45265 45206 45149 45157 45060 44960 44945 45028 45150 45263 45362 45473 45493 45358 45278 45248 45256 45269 45314 45315 45266 45214 45081 44878 44740 44739 44805 44909 45001 45116 45188 45106 45021 45020 45027 45035 45100 45169 45238 45221 45114 44966 44863 44758 44691 44744 44827 44879 44920 44880 44825 44777 44784 44819 44821 44806 44844 44861 44760 44657 44588 44494 44478 44517 44619 44722 44809 44801 44770 44748 44749 44800 44835 44872 44917 45002 44999 44827 44715 44656 44601 44559 44590 44734 44862 44889 44819 44760 44740 44745 44762 44756 44739 44725 44668 44496 44364 44279 44276 44343 44418 44513 44681 44765 44715 44723 44735 44760 44841 44877 44884 44921 45006 44992 44898 44806 44790 44798 44726 44666 44747 44884 44862 44836 44864 44926 45000 45063 45108 45137 45182 45208 45178 45089 45077 45113 45176 45238 45173 45125 45094 45046 45064 45159 45250 45305 45369 45364 45346 45314 45234 45259 45337 45429 45553 45705 45803 45876 45826 45713 45697 45737 45770 45906 46156 46157 46098 46067 46149 46307 46353 46269 46261 46301 46321 46527 46828 46880 46946 47106 47490 47978 45745 44571 44803 45003 45759 46238 45717 44520 43171 42867 42908 42581 42782 42785 42785 42717 42573 42441 42404 42432 42384 42317 42126 41869 41530 41407 41352 41326 41367 41438 41526 41462 41292 41326 41280 41253 41314 41295 41329 41389 41373 41264 41271 41116 40995 40898 40933 41044 40982 41045 40934 40840 42843 42500 42628 43074 43034 43022 42545 41907 41481 40548 40275 40236 40418 40635 40360 40179 40168 40105 40617 41379 41325 41352 41391 41319 41386 41369 41275 40904 40167 40143 40067 40135 40195 40193 40125 40066 39861 39721 39784 40186 40257 40709 40623 40072 39703 39451 39287 39224 39149 39259 39736 40020 40313 40495 40468 39984 39738 39707 39514 39494 39821 39971 39859 39565 39539 39461 39803 40637 40458 40100 40184 40330 40321 40388 40483 40162 40512 40431 40395 39698 39649 39536 39472 39414 39348 39011 38599 38896 38961 38900 39112 39460 39689 39650 39506 39305 39419 39248 39196 39211 39134 39593 39488 39130 39213 39217 39292 39135 38936 38999 39052 39139 39170 39071 39270 39414 39585 39701 39730 39539 39388 39385 39283 39139 39168 39489 39774 39776 39669 39494 39575 39586 39507 39438 39451 39463 39409 39404 39413 39464 39430 39355 39238 39305 39603 39409 39373 39395 39212 39131 39143 39166 39150 39093 39114 39151 39158 39164 39180 39132 38997 38943 38951 39053 39202 39219 39118 39072 39123 39161 39175 39128 39104 39071 39049 39099 39203 39246 39244 39169 39171 39164 39192 39177 39081 39048 39061 39159 39201 39207 39143 39146 39137 39133 39210 39292 39286 39166 39120 39316 39500 39576 39611 39469 39316 39722 40197 40185 40180 40181 40106 39992 39847 39644 39571 39538 39499 39569 39707 39745 39720 39868 39735 39382 39640 39936 39961 39976 39946 39925 39899 40074 40057 40026 39929 39880 40008 40013 39926 39967 39955 39814 39831 39882 39849 39776 39702 39685 39652 39646 39669 39746 39773 39756 39668 39784 39966 39928 39827 39838 39913 39969 39990 39985 39939 39920 39900 39875 39878 39850 39870 39937 39979 40191 40108 40144 40230 40297 40424 40606 40603 40554 40386 40256 40271 40329 40412 40323 40472 40586 40639 40495 40376 40336 40360 40407 40521 40601 40723 40638 40573 40617 40681 40554 40396 40289 40277 40202 40110 40042 40025 40134 40265 40360 40382 40395 40477 40480 40441 40461 40423 40330 40350 40402 40351 40404 40269 40080 40140 40216 40190 40088 40101 40232 40306 40328 40315 40277 40263 40408 40528 40401 40353 40331 40187 40112 40247 40341 40266 40239 40257 40276 40310 40355 40274 40295 40397 40477 40541 40339 40216 40043 39999 39887 39767 39663 39728 39703 39817 39888 39818 39781 39719 39777 39792 39811 39785 39783 39836 39819 39690 39565 39527 39569 39599 39644 39654 39683 39742 39764 39704 39668 39706 39803 39829 39732 39692 39782 39727 39591 39588 39641 39760 39728 39657 39661 39693 39676 39690 39731 39728 39699 39740 39754 39759 39803 39748 39584 39504 39527 39650 39670 39720 39878 39989 40174 40321 40394 40442 40491 40528 40541 40520 40510 40572 40596 40544 40578 40726 40819 40805 40789 40844 40884 40821 40740 40770 40858 41042 41095 41021 40988 40895 40825 40705 40654 40708 40776 40768 40763 40862 40954 41013 40978 41054 41058 40982 40958 40886 40805 40720 40618 40491 40526 40575 40685 40760 40768 40808 40911 40990 40990 41034 41087 41106 41141 41131 41107 41070 41112 41070 40983 40952 40957 41079 41088 41037 40982 40921 40913 40944 40981 40980 40997 41042 41047 41040 41049 41105 41024 40918 40952 41100 41006 40965 41046 41097 41106 41079 41103 41085 41088 41129 41176 41188 41216 41252 41207 41117 41067 41107 41053 41007 40998 40990 40981 41008 41045 41249 41199 41239 41307 41481 41522 41449 41401 41258 41195 41174 41226 41250 41243 41268 41302 41308 41322 41310 41226 41248 41405 41507 41500 41468 41569 41497 41456 41383 41429 41373 41437 41466 41531 41509 41552 41403 41274 41296 41341 41340 41319 41279 41230 41211 41077 41020 41039 41074 41036 40891 40846 40911 40931 40974 40972 40929 41027 41100 41141 41116 41072 41071 41072 41032 41070 41122 41184 41277 41320 41371 41301 41152 41004 40897 40907 40946 41012 41005 40967 40984 40959 40827 40736 40758 40790 40840 40907 40897 40844 40725 40667 40660 40638 40665 40765 40796 40719 40649 40725 40734 40729 40782 40845 40901 41006 41073 41075 41048 41069 41064 40936 40828 40870 40894 40830 40733 40723 40685 40559 40426 40437 40439 40458 40501 40521 40521 40517 40516 40429 40378 40410 40478 40474 40493 40545 40571 40482 40355 40338 40362 40411 40474 40476 40489 40526 40595 40606 40618 40634 40666 40720 40719 40654 40706 40784 40707 40655 40706 40823 40928 41034 41034 40977 40951 40865 40783 40768 40761 40816 40848 40838 40835 40829 40671 40517 40482 40533 40620 40632 40631 40650 40655 40587 40530 40547 40616 40707 40765 40758 40756 40820 40761 40640 40566 40618 40714 40766 40813 40842 40908 40882 40835 40841 40943 41047 41129 41181 41180 41157 41183 41051 40994 40985 41102 41176 41187 41224 41222 41240 41152 41153 41247 41372 41471 41502 41485 41436 41442 41405 41296 41273 41282 41371 41453 41345 41357 41326 41252 41150 41174 41286 41386 41460 41539 41491 41413 41324 41234 41174 41157 41238 41360 41412 41443 41447 41448 41355 41308 41404 41554 41639 41699 41720 41664 41610 41512 41513 41492 41526 41593 41738 41794 41730 41746 41677 41591 41594 41670 41756 41762 41828 41864 41870 41822 41719 41597 41501 41490 41532 41595 41659 41710 41722 41661 41624 41700 41841 41877 41914 41937 41896 41890 41820 41720 41577 41541 41571 41651 41737 41802 41837 41743 41687 41635 41709 41827 41929 41940 41972 41928 41820 41674 41669 41627 41701 41815 41936 41978 42051 42068 41977 41868 41733 41719 41792 41874 41941 41953 41938 41774 41557 41425 41319 41308 41367 41483 41504 41512 41479 41389 41266 41240 41363 41491 41505 41528 41513 41447 41282 41139 41003 41013 41077 41173 41221 41270 41320 41313 41169 41124 41218 41296 41317 41353 41365 41358 41354 41284 41166 41067 41108 41185 41241 41217 41200 41232 41205 41105 41141 41251 41316 41350 41392 41377 41385 41396 41348 41126 41038 41131 41246 41311 41347 41377 41413 41469 41400 41439 41516 41583 41598 41631 41587 41575 41600 41551 41409 41366 41408 41402 41405 41435 41436 41474 41517 41541 41582 41583 41600 41599 41566 41561 41582 41615 41540 41435 41420 41467 41515 41546 41593 41644 41675 41729 41798 41853 41875 41861 41845 41814 41751 41738 41695 41645 41684 41640 41583 41610 41669 41703 41769 41831 41906 41959 41983 41991 41973 41909 41880 41920 41956 41989 41997 41959 41866 41770 41715 41680 41731 41833 41963 42097 42083 42055 42069 42050 42017 42047 42105 42198 42257 42253 42201 42174 42111 42026 42010 42014 42085 42177 42220 42253 42244 42282 42408 42451 42483 42483 42555 42647 42452 42479 42512 42515 42350 42217 42024 41936 41990 42003 42073 42115 42133 42094 42125 42117 42033 42044 42108 42112 42157 42218 42186 42099 41910 41769 41897 42064 42053 42060 42136 42167 42098 42025 42056 42055 41971 42007 42051 42062 41982 41852 41767 41685 41824 42028 42036 41949 42007 42067 41986 41927 41920 41910 41935 42039 42156 42265 42305 42291 42193 41992 41968 42038 42062 41995 42005 42007 41987 41925 41870 41913 41959 41979 41987 41993 42055 42108 42117 42033 41977 42013 42033 42027 42006 42053 42133 42080 42013 42014 42046 42022 41985 42045 42122 42190 42211 42196 42070 42033 42066 42043 42050 42081 42086 42035 41983 41928 41971 41917 41747 41729 41805 41949 42078 42137 42144 42112 42066 41979 42011 42043 42090 42076 42011 41861 41859 41782 41567 41436 41457 41510 41620 41770 41891 41934 41880 41741 41730 41648 41602 41637 41656 41613 41561 41587 41450 41178 41126 41216 41322 41323 41381 41436 41431 41317 41293 41373 41419 41443 41515 41534 41507 41492 41431 41388 41282 41272 41482 41688 41713 41774 41858 41792 41729 41754 41807 41918 41976 41968 41888 41869 41767 41705 41657 41708 41843 41938 42010 41992 42002 41832 41432 41041 41111 41409 41721 41919 42055 42029 41954 41815 41646 41625 41718 41881 41983 42000 41995 41946 41790 41712 41771 41927 41958 41965 41954 41909 41814 41773 41815 41728 41642 41685 41812 41905 41924 41959 41902 41826 41785 41888 42109 42271 42355 42446 42415 42224 42059 41921 41851 41839 41902 41960 41936 41949 41889 41807 41729 41708 41782 41849 42006 42116 42083 41982 41859 41757 41666 41634 41716 41823 41939 42097 42218 42199 42129 42088 42164 42263 42375 42470 42489 42423 42330 42248 42144 42044 42026 42126 42192 42229 42329 42346 42287 42215 42204 42338 42478 42584 42642 42652 42552 42448 42387 42301 42226 42188 42251 42277 42322 42348 42301 42228 42244 42287 42420 42459 42495 42529 42463 42320 42203 42151 42104 42026 42034 42095 42178 42229 42270 42264 42229 42224 42305 42437 42509 42540 42545 42492 42353 42282 42206 42128 42172 42272 42352 42400 42439 42384 42282 42260 42306 42384 42512 42587 42621 42563 42423 42212 42150 42043 41914 41933 42041 42088 42149 42152 42021 41939 41910 41951 42066 42163 42203 42217 42162 42036 41910 41877 41776 41681 41720 41775 41826 41856 41832 41770 41761 41809 41879 42028 42166 42207 42222 42169 42003 41844 41838 41823 41804 41872 41989 42040 42072 42032 41991 41967 42008 42103 42240 42307 42308 42271 42125 41974 41870 41784 41699 41704 41715 41743 41806 41792 41709 41681 41725 41821 41920 42039 42065 42083 42083 41977 41886 41891 42009 42166 42387 42484 42720 42761 42629 42501 42438 42449 42436 42527 42558 42559 42586 42513 42463 42438 42471 42502 42522 42641 42751 42837 42768 42581 42392 42196 42199 42293 42388 42471 42547 42474 42251 42065 41930 41883 42050 42259 42460 42562 42509 42349 42192 42101 42165 42229 42336 42434 42599 42670 42587 42384 42301 42236 42281 42406 42563 42694 42739 42594 42419 42313 42310 42404 42507 42565 42766 42926 42866 42715 42651 42655 42650 42722 42821 42934 43014 43035 42935 42802 42728 42693 42758 42862 42970 43078 43088 42940 42765 42652 42627 42626 42651 42744 42858 42847 42702 42606 42596 42632 42666 42747 42716 42695 42625 42440 42239 42071 41980 41842 41722 41720 41804 41938 42008 42094 42152 42205 42159 42151 42177 42232 42275 42219 42077 42000 42023 42093 42027 41936 41948 41990 41971 41896 41907 41957 42026 42091 42161 42261 42303 42255 42143 41976 41835 41845 41802 41809 41894 42009 42041 41967 41897 41946 42024 42156 42202 42299 42389 42321 42172 42043 42002 42005 42026 41949 41887 41929 41889 41825 41789 41808 41853 41916 41955 42001 42059 41986 41903 41802 41748 41758 41815 41816 41757 41928 42104 42205 42226 42191 42229 42270 42245 42310 42377 42393 42279 42191 42122 42071 42096 42171 42274 42262 42262 42274 42336 42404 42449 42499 42526 42459 42466 42462 42426 42447 42460 42414 42320 42323 42442 42580 42672 42740 42808 42836 42870 42920 42913 42817 42715 42689 42640 42562 42549 42589 42534 42470 42435 42413 42419 42409 42413 42536 42612 42682 42687 42638 42507 42385 42395 42543 42751 42879 42869 42960 42977 42981 42964 42928 42941 42942 42971 42978 42984 42952 42849 42722 42654 42666 42685 42741 42787 42765 42732 42739 42689 42625 42602 42643 42737 42797 42816 42788 42759 42655 42562 42593 42684 42745 42835 42904 42926 42916 42826 42713 42606 42612 42687 42785 42822 42827 42821 42710 42513 42443 42540 42613 42659 42700 42682 42665 42618 42435 42242 42215 42262 42362 42427 42474 42514 42442 42281 42248 42407 42510 42561 42583 42573 42559 42499 42441 42362 42253 42273 42396 42410 42392 42391 42307 42222 42172 42296 42463 42548 42607 42635 42639 42598 42471 42362 42265 42206 42169 42213 42260 42284 42258 42145 42101 42155 42325 42440 42497 42530 42517 42353 42180 42078 41972 41965 42063 42142 42236 42327 42315 42243 42246 42304 42446 42623 42720 42730 42754 42721 42613 42546 42672 42749 42765 42794 42848 42824 42791 42709 42723 42761 42822 42940 43071 43113 43157 43169 43093 42986 42939 43061 43156 43185 43184 43279 43312 43122 42982 43000 43042 43107 43255 43328 43327 43355 43285 43146 43014 43003 42914 42872 42941 42987 43026 43026 42986 42973 43017 43105 43226 43375 43415 43433 43412 43293 43228 43183 43181 43120 43102 43189 43237 43250 43231 43245 43298 43356 43452 43570 43720 43797 43818 43741 43651 43592 43608 43654 43698 43643 43663 43627 43518 43437 43417 43428 43478 43565 43692 43847 43914 43864 43795 43730 43684 43727 43745 43717 43681 43752 43780 43717 43645 43595 43607 43606 43599 43713 43805 43737 43667 43616 43548 43498 43467 43521 43486 43494 43459 43421 43355 43371 43448 43506 43558 43612 43718 43734 43708 43653 43609 43592 43622 43658 43692 43703 43615 43496 43386 43296 43276 43316 43378 43430 43522 43541 43474 43411 43391 43405 43505 43478 43429 43432 43409 43332 43263 43352 43439 43486 43520 43383 43260 43115 43001 42996 42950 42921 42874 42833 42792 42774 42660 42486 42371 42384 42422 42436 42454 42466 42461 42394 42302 42325 42387 42495 42565 42587 42552 42562 42511 42370 42280 42324 42370 42401 42419 42432 42451 42474 42427 42456 42502 42590 42664 42692 42669 42700 42712 42657 42548 42519 42594 42674 42681 42641 42601 42574 42512 42471 42471 42479 42525 42558 42553 42526 42547 42474 42208 42067 42165 42270 42364 42433 42488 42553 42565 42527 42511 42597 42646 42719 42741 42749 42724 42735 42674 42561 42582 42661 42772 42779 42810 42877 42928 42919 42863 42906 42939 42973 42996 42977 42972 42966 42927 42806 42725 42801 42879 42789 42797 42864 42972 42986 42930 42989 43126 43177 43215 43245 43221 43227 43269 43195 43087 43013 43044 43046 43039 43044 43114 43181 43161 43163 43288 43431 43502 43498 43423 43342 43283 43055 42864 42776 42848 42991 43135 43220 43260 43311 43308 43261 43204 43277 43317 43333 43318 43249 43166 43116 43115 43073 43033 42993 42965 42962 43101 43300 43515 43314 43088 43042 43120 43261 43442 43648 43767 43774 43505 43317 43265 43349 43441 43624 43785 43804 43715 43491 43275 43095 43040 43086 43166 43171 43111 43003 42847 42700 42607 42638 42702 42798 42862 42917 42931 42849 42695 42592 42625 42826 42914 42986 43039 43010 42918 42832 42708 42661 42696 42723 42785 42813 42860 42802 42700 42622 42500 42540 42703 42838 42940 42980 42955 42796 42657 42543 42502 42509 42575 42618 42676 42775 42705 42551 42456 42478 42642 42744 42830 42872 42839 42768 42688 42599 42565 42504 42531 42685 42815 42819 42852 42802 42660 42548 42643 42880 42939 42985 43016 43030 42922 42710 42712 42722 42833 42897 43013 43253 43184 43009 42870 42822 42772 42804 42973 43075 43107 43120 43027 42875 42770 42670 42590 42601 42666 42745 42831 42886 42915 42852 42835 42843 43007 43140 43212 43251 43252 43165 43056 43043 43020 42950 42956 43013 43061 43083 43133 43112 43058 43028 43104 43265 43348 43387 43404 43356 43255 43166 43188 43089 43033 43113 43163 43198 43301 43340 43227 43122 43133 43246 43296 43303 43298 43273 43241 43165 43115 43020 42976 43037 43166 43270 43320 43423 43510 43417 43450 43536 43705 43770 43788 43729 43650 43558 43386 43200 43103 43104 43217 43260 43313 43380 43429 43426 43335 43342 43427 43470 43505 43528 43506 43539 43624 43632 43518 43389 43369 43381 43325 43279 43300 43357 43389 43322 43384 43447 43480 43498 43507 43489 43481 43482 43314 43188 43191 43246 43312 43383 43444 43491 43516 43553 43558 43704 43761 43841 43883 43831 43734 43649 43630 43642 43679 43713 43860 44181 44202 44179 44187 44151 43974 43831 43879 43894 43902 43903 43929 43931 43862 43829 43860 43855 43863 43901 43884 43867 43877 43868 43919 43902 43942 43969 43985 43997 43928 43855 43789 43809 43935 43957 43832 43871 43885 43774 43807 43854 43857 43806 43762 43819 43792 43786 43815 43807 43711 43664 43618 43623 43569 43555 43596 43626 43647 43699 43685 43663 43699 43704 43770 43765 43763 43757 43718 43660 43680 43737 43745 43665 43641 43640 43669 43641 43650 43740 43690 43666 43617 43624 43657 43733 43732 43647 43591 43642 43666 43562 43529 43615 43597 43571 43594 43587 43612 43563 43489 43428 43405 43405 43426 43390 43336 43443 43373 43212 43149 43104 43084 43106 43151 43172 43225 43176 43095 43064 43081 43154 43198 43194 43141 43084 43141 43159 42965 42921 42930 42933 42983 43034 43059 43120 43039 42985 42982 42948 42991 43033 43012 42967 43026 42959 42817 42757 42785 42829 42840 42889 42922 42975 43012 42956 42968 42981 42999 43025 42994 42942 42958 42998 42815 42690 42756 42826 42905 42989 43068 43149 43178 43078 43077 43131 43146 43174 43200 43172 43163 43223 43104 42988 43005 43044 43108 43148 43212 43265 43290 43317 43335 43346 43378 43437 43447 43385 43347 43417 43362 43291 43348 43410 43488 43551 43607 43673 43737 43764 43732 43755 43824 43855 43877 43859 43764 43652 43566 43502 43510 43484 43528 43602 43631 43594 43513 43436 43268 43194 43253 43357 43441 43456 43433 43366 43308 43229 43190 43210 43309 43405 43474 43493 43502 43569 43588 43615 43695 43803 43883 43945 43969 43949 43928 43928 43963 43927 43967 44075 44071 44042 43993 43963 43944 43899 43883 43898 43927 43920 43885 43825 43844 43836 43722 43649 43654 43680 43681 43715 43788 43859 43894 43823 43824 43856 43847 43869 43897 43868 43840 43889 43905 43816 43771 43796 43870 43859 43795 43828 43890 43911 43823 43840 43846 43847 43863 43878 43860 43855 43933 43818 43731 43706 43772 43852 43891 43797 43867 43952 43892 43763 43655 43632 43644 43692 43705 43713 43725 43633 43428 43301 43308 43377 43409 43425 43478 43577 43610 43474 43441 43502 43538 43601 43619 43631 43567 43541 43482 43429 43344 43403 43526 43515 43501 43540 43603 43505 43394 43358 43487 43587 43644 43669 43682 43595 43542 43526 43456 43445 43557 43621 43590 43609 43697 43669 43493 43412 43442 43483 43555 43608 43616 43666 43698 43469 43319 43370 43466 43530 43608 43630 43646 43682 43574 43427 43450 43496 43566 43627 43671 43711 43755 43767 43675 43568 43570 43720 43833 43855 43827 43850 43809 43649 43639 43680 43745 43796 43826 43897 43973 44115 44087 44068 44108 44191 44301 44374 44422 44447 44445 44271 44196 44218 44243 44298 44363 44420 44407 44438 44397 44346 44325 44405 44457 44532 44590 44652 44705 44645 44554 44554 44598 44636 44672 44741 44764 44777 44798 44729 44695 44727 44771 44801 44830 44901 45001 44948 44737 44452 44369 44508 44594 44631 44620 44556 44523 44380 44209 44125 44177 44317 44453 44521 44586 44607 44515 44391 44451 44664 44864 44936 45019 45093 45198 45207 45066 44897 44773 44949 45368 45326 45207 45136 45224 45577 46900 46983 46923 46986 46866 46695 46646 46553 46261 45992 45981 46293 46468 46376 46541 46746 46791 46785 46667 46473 46450 46453 46502 46454 46393 46354 46359 46232 46426 46287 46278 46461 46598 46715 46751 46850 47029 47141 46951 46840 46791 46816 46848 47027 47199 47371 47093 46944 46634 46712 46727 46677 46690 46824 47176 47158 46868 46692 46613 46691 46664 46701 46767 46919 46826 46912 46606 46694 46981 47071 47060 47065 47314 47467 47373 47094 46844 46780 46828 46956 46941 47020 46940 46653 46326 45902 45808 45825 45940 46078 46158 46607 46916 46579 46467 46321 46246 46186 46159 46126 46129 46215 46156 45865 45752 46005 46122 46206 46329 46631 46882 46884 46761 46408 46272 46225 46150 46166 46292 46317 46060 46019 45934 46010 46114 46187 46231 46319 46517 46405 46269 45990 45787 45718 45693 45671 45664 45787 47791 48592 48733 49123 49337 49576 49820 49976 50167 50117 50168 49821 49485 49328 49261 49151 49055 49054 49511 49470 49187 49226 49476 49571 49631 49667 49738 49920 49810 49861 49512 49159 49098 48908 48744 48857 48501 48562 48697 48641 49174 49409 49558 49629 49758 49944 50002 50244 50020 49655 49386 49415 49333 49384 49325 48964 49352 48801 48948 49248 49349 49411 49482 49672 49798 49975 50086 49753 49367 49200 49150 49135 49195 48682 49312 48566 48712 49088 49201 49268 49318 49376 49535 49530 49772 49652 49255 48967 48934 48930 48822 48702 48507 48352 47951 47995 48168 48305 48437 48528 48682 48833 48907 48921 48619 48329 48375 48350 48174 48102 48096 48226 47678 47652 47802 47933 48030 48100 48221 48355 48320 48419 48117 47743 47684 47625 47504 47461 47282 47050 47605 47162 47412 47720 47873 47994 48058 48227 48301 48330 48412 48136 47751 47610 47583 47514 47619 47178 47964 47513 47156 47460 47706 47812 47878 48036 48351 48414 48731 48555 48128 47953 47884 47732 47591 47483 47238 47284 46968 47073 47454 47715 47817 47939 48204 48279 48374 48240 47795 47490 47069 46884 46764 46708 46134 45825 45588 45367 45336 45444 45648 45751 45641 45526 45433 45169 44984 44907 44932 45003 45062 45022 44920 44908 44863 44759 44794 45026 45257 45396 45467 45316 45331 45128 44912 44813 44832 44876 44890 44905 44909 45611 45811 45782 45891 46050 46088 46209 46288 46306 46337 46403 46367 46208 46033 45964 45971 45997 45965 45854 46472 46807 47323 47757 47953 48045 48112 48191 48236 48231 48262 48165 47919 47736 47726 47508 47322 47080 47036 46900 46930 47114 47386 47515 47583 47671 47837 48037 48038 48118 47963 47646 47622 47593 47473 47397 47531 47714 47444 47590 47865 47993 48071 48102 48182 48308 48338 48376 48281 47974 47798 47732 47589 47441 47371 47062 47707 47945 48375 48665 48774 48772 48756 48806 48858 48692 49107 49040 48730 48618 48605 48479 48420 48133 47297 47041 47013 47450 47754 47941 48053 48108 48272 48319 48622 48723 48389 48245 48162 48108 48048 47698 47901 47931 48206 48868 48994 49072 49118 49174 49223 49232 49157 49343 49204 48863 48655 48638 48583 48560 48099 48209 47944 48219 48441 48578 48599 48628 48692 48830 48682 48729 48625 48265 48070 48029 47690 47572 47242 47401 47147 47481 47703 47813 47904 47903 47946 48051 48010 47899 47789 47570 47248 47184 47041 46768 46722 46416 46607 46773 47120 47289 47385 47414 47436 47549 47706 47704 47733 47468 47065 46948 46907 46894 46870 46835 46303 46733 46242 45577 45326 45338 45441 45536 45593 45747 45599 45908 45857 45766 45785 45820 45887 45974 45810 45467 45799 46115 46682 46870 46797 46786 46770 46851 46900 47063 46955 46611 46459 46396 46446 46510 46393 45843 45834 45914 46452 46644 46712 46801 46793 46801 46870 46791 46791 46492 46338 46308 46265 46737 46947 46376 46317 46511 47130 47223 47164 47146 47161 47124 47132 47058 47110 46955 46710 46631 46596 46626 46732 46762 46561 46296 46490 46811 46872 46928 46923 46972 47063 47251 47350 47329 47068 46994 46959 46960 47008 47260 47102 46508 46591 46357 46852 47116 47177 47198 47262 47563 47969 48031 47844 47520 47370 47343 47193 47350 47276 46833 47263 47278 47895 47989 47946 47927 47937 48009 48275 48486 48576 48351 48113 48020 47963 47887 47996 47690 47536 47383 47728 47917 47829 47788 47769 47778 47852 48302 48109 48094 47842 47672 47671 47588 47517 47562 47572 47348 47397 47577 47783 47806 47832 47848 47956 48226 48316 48214 47925 47731 47613 47607 47654 47759 47723 47495 47270 47446 47700 47723 47742 47752 47776 47887 48119 48212 48168 47837 47603 47681 47666 47726 47738 47560 47675 47226 47821 48051 47974 47934 47885 47914 48117 48307 48295 48187 47924 47705 47726 47711 47675 47590 47613 47562 47500 47674 47697 47661 47647 47647 47697 47965 48023 47985 47688 47444 47322 47396 47397 47480 47404 47379 47018 47340 47615 47643 47615 47591 47606 47781 48021 48161 48100 47742 47469 47409 47512 47697 47732 47423 47346 46525 47381 47680 47628 47629 47610 47677 47907 48027 47977 47577 47210 47078 47013 47021 47148 47089 46805 46601 46712 47077 47181 47201 47362 47459 47611 47813 47848 47664 47278 46978 46834 46803 46840 46902 46707 46784 46438 46926 47162 47107 47151 47287 47497 47800 47930 47961 47449 47035 46883 46847 46774 46756 46750 46891 46597 46867 47132 47233 47294 47357 47435 47561 47642 47603 47339 47049 46833 46775 46764 46679 46606 46702 46649 46502 46775 46956 47060 47070 47073 47121 47234 47242 47315 47105 46848 46695 46625 46580 46710 46819 46561 46273 46351 46786 46893 46949 46951 47012 47088 47212 47135 47278 47052 46788 46744 46799 46867 46943 46722 46627 46840 47031 47041 46992 47005 47030 47082 47210 47260 47395 47547 47348 47217 47389 47375 47359 47379 47397 47304 47414 47498 47674 47760 47786 47807 47829 47849 47699 47762 47709 47580 47574 47570 47457 47385 47524 47708 47169 47378 47627 47743 47777 47791 47809 47771 47787 47750 47883 47807 47654 47606 47555 47449 47367 47708 47326 47305 47679 47852 47940 47956 47993 48014 48038 47983 48068 47994 47806 47685 47628 47604 47550 47480 47713 47064 47457 47780 47892 47943 47993 48032 48040 47978 48015 48019 47883 47760 47760 47711 47639 47588 47705 47400 47554 47795 47965 48035 48050 48011 47866 47706 47670 47610 47637 47680 47750 47748 47732 47637 47441 47190 47135 47281 47475 47656 47859 47934 47922 47970 47973 48107 48044 47886 47687 47603 47559 47639 47492 47106 47061 47143 47479 47987 48126 48134 48115 48102 48038 48064 48128 47922 47646 47563 47506 47396 47205 46965 47085 46984 47219 47525 47682 47742 47752 47686 47625 47748 47834 47955 47754 47564 47460 47369 47223 46950 46726 46711 46851 46929 47133 47347 47436 47446 47315 47220 47283 47335 47371 47394 47335 47222 47094 46772 46516 46333 46217 46223 46264 46361 46489 46519 46415 46234 46059 45851 45702 45641 45639 45614 45561 45450 45228 45035 44878 44708 44622 44588 44627 44723 44761 44643 44617 44704 44847 45046 45233 45304 45356 45403 45317 45092 44843 44672 44700 44794 44939 45065 45177 45171 44987 44816 44756 44741 44740 44698 44708 44742 44684 44605 44583 44545 44490 44442 44363 44308 44275 44220 44083 44005 43993 44029 44112 44191 44302 44417 44516 44501 44451 44446 44469 44465 44486 44499 44528 44549 44438 44325 44280 44325 44372 44359 44504 44703 44839 44895 44922 45101 45365 45701 45944 46065 46128 46217 46270 46226 45923 45224 45147 45490 45592 45652 45713 45775 45764 45732 45749 45799 45849 45910 45973 46010 46078 46104 46046 46021 46036 46055 46095 46143 46162 46202 46170 46072 45995 45980 45982 46013 46099 46123 46154 46162 46072 46018 46005 46028 46052 46062 46087 46096 46117 46028 45929 45898 45900 45912 45921 45974 45945 46052 46067 46020 45952 45952 45952 45931 45919 45918 45923 45894 45782 45724 45717 45742 45778 45803 45843 45844 45813 45695 45604 45591 45641 45688 45724 45776 45803 45816 45778 45727 45727 45749 45763 45797 45840 45880 45920 45916 45837 45788 45793 45816 45848 45893 45919 45953 45940 45854 45748 45672 45670 45664 45667 45685 45701 45706 45603 45462 45386 45359 45370 45383 45449 45507 45548 45512 45396 45323 45303 45303 45313 45356 45403 45470 45491 45351 45231 45233 45545 45705 45788 45828 45836 45835 45743 45596 45546 45523 45538 45554 45575 45593 45633 45618 45484 45339 45301 45308 45344 45378 45434 45470 45518 45436 45256 45186 45212 45263 45314 45336 45390 45430 45412 45278 45164 45146 45212 45250 45310 45363 45418 45444 45407 45249 45178 45180 45239 45290 45339 45376 45411 45440 45365 45235 45213 45235 45288 45347 45379 45436 45471 45499 45384 45304 45305 45359 45405 45458 45501 45528 45574 45563 45448 45390 45413 45464 45512 45562 45609 45641 45686 45655 45588 45543 45571 45620 45656 45688 45742 45763 45814 45752 45683 45668 45694 45737 45785 45829 45861 45907 45945 45868 45803 45815 45849 45908 45960 46030 46117 46206 46309 46421 46435 46477 46551 46621 46692 46771 46817 46821 46838 46844 46802 46804 46814 46875 46935 46974 47007 47037 47093 47074 47001 46919 46942 46974 47004 47055 47102 47132 47131 47034 46920 46886 46930 46969 47005 47052 47078 47086 47091 47064 46979 46965 46975 47028 47102 47116 47167 47206 47278 47318 47383 47420 47460 47573 47694 47756 47809 47883 47976 48030 48032 48075 48178 48284 48368 48483 48712 49122 49097 49008 49113 49478 49953 50151 50152 50133 50089 50065 50061 50055 49984 49822 49704 49708 49701 49722 49730 49741 49760 49754 49665 49544 49496 49482 49522 49540 49558 49575 49589 49582 49523 49347 49236 49210 49211 49235 49242 49258 49252 49253 49252 49137 48986 48937 48911 48933 48970 48973 48994 48993 48987 48972 48836 48727 48689 48694 48711 48728 48729 48727 48732 48737 48647 48496 48415 48388 48409 48411 48441 48452 48465 48466 48448 48307 48162 48108 48110 48137 48148 48162 48184 48209 48226 48155 47965 47876 47780 47787 47827 47877 47938 47988 48029 48050 47960 47768 47682 47855 48323 48774 48919 48965 48995 49001 48993 48880 48794 48766 48762 48787 48830 48858 48894 48922 48934 48920 48860 48831 48894 48948 48951 48967 48990 49022 49053 49064 48959 48860 48783 48753 48751 48761 48737 48773 48812 48859 48836 48722 48656 48618 48607 48627 48612 48643 48662 48674 48636 48535 48428 48386 48367 48391 48389 48417 48441 48477 48484 48389 48320 48298 48308 48346 48354 48405 48432 48458 48470 48403 48327 48294 48297 48331 48376 48418 48433 48455 48468 48448 48367 48309 48312 48343 48381 48382 48424 48436 48445 48439 48394 48283 48241 48227 48234 48241 48270 48294 48323 48361 48331 48235 48193 48197 48206 48231 48246 48257 48287 48307 48296 48192 48133 48101 48133 48106 48147 48172 48207 48199 48198 48021 47879 47838 47855 47903 47929 47971 48008 48038 48080 48091 47907 47790 47813 47836 47801 47754 47762 47778 47744 47677 47551 47430 47341 47261 47238 47212 47194 47158 47128 47113 47026 46949 46934 46960 46999 47042 47082 47122 47146 47190 47152 47060 46992 46977 46988 47000 47013 47029 47040 47053 47020 46921 46822 46759 46768 46800 46795 46820 46841 46861 46855 46766 46664 46624 46625 46638 46668 46670 46702 46705 46705 46616 46512 46438 46423 46439 46458 46493 46526 46543 46569 46570 46493 46425 46415 46409 46458 46495 46505 46541 46571 46578 46526 46445 46386 46383 46397 46416 46461 46476 46485 46500 46461 46362 46296 46269 46284 46316 46321 46328 46338 46353 46327 46242 46184 46181 46186 46233 46277 46298 46331 46354 46373 46310 46202 46138 46145 46160 46188 46211 46215 46249 46283 46233 46126 46067 46050 46069 46089 46105 46134 46165 46177 46165 46064 45978 45960 45962 45997 46048 46093 46128 46156 46153 46095 46023 45979 45972 45989 45999 46015 46030 46074 46178 46336 46376 46349 46360 46394 46418 46442 46469 46517 46570 46603 46574 46615 46722 46791 46833 46876 46937 46895 46833 46867 46862 46778 46757 46777 46811 46856 46871 46890 46935 46955 46976 46912 46858 46856 46847 46871 46878 46877 46878 46918 46926 46895 46827 46822 46856 46893 46913 46943 46983 47025 47014 46617 45508 45234 45602 45852 45943 46007 46102 46171 46209 46259 46264 46241 46244 46270 46297 46329 46345 46377 46401 46430 46391 46343 46310 46314 46324 46335 46357 46374 46398 46389 46389 46340 46301 46304 46317 46343 46383 46383 46410 46409 46437 46419 46362 46353 46351 46381 46426 46454 46496 46524 46549 46528 46469 46411 46402 46423 46440 46482 46510 46521 46550 46567 46544 46494 46480 46495 46517 46556 46582 46600 46630 46657 46640 46606 46570 46572 46599 46608 46637 46653 46670 46694 46683 46644 46600 46606 46638 46656 46679 46699 46716 46752 46747 46726 46663 46640 46633 46666 46675 46703 46711 46736 46768 46759 46681 46626 46632 46650 46664 46691 46712 46751 46747 46748 46726 46662 46657 46669 46697 46714 46742 46762 46782 46819 46798 46764 46726 46740 46747 46778 46788 46801 46830 46841 46840 46798 46761 46754 46751 46765 46794 46809 46821 46846 46861 46811 46756 46730 46719 46737 46761 46777 46803 46812 46824 46807 46739 46700 46686 46699 46716 46735 46753 46757 46782 46778 46696 46643 46620 46613 46637 46666 46670 46697 46710 46723 46689 46592 46544 46550 46556 46586 46596 46603 46645 46666 46667 46571 46525 46513 46528 46576 46607 46618 46665 46694 46708 46692 46611 46571 46545 46579 46611 46634 46663 46675 46723 46723 46639 46559 46520 46511 46541 46571 46570 46578 46611 46626 46572 46448 46373 46352 46370 46389 46399 46408 46417 46447 46432 46312 46195 46171 46182 46228 46274 46315 46371 46375 46360 46300 46136 46022 46000 46013 46033 46068 46094 46107 46131 46123 45995 45788 45676 45636 45635 45645 45654 45653 45658 45650 45593 45386 45202 45143 45099 45107 45111 45141 45185 45222 45242 45138 44939 44827 44847 44904 44962 45005 45050 45060 45079 45068 44874 44707 44655 44686 44775 44866 44942 45011 45074 45125 45111 44975 44882 44832 44877 44930 44964 44984 44991 45003 45023 44938 44797 44715 44737 44779 44820 44885 44906 44943 44980 44982 44884 44761 44718 44735 44796 44863 44899 44952 44997 45039 45022 44917 44856 44869 44918 44971 45006 45013 45030 45102 45155 45087 45025 45003 45037 45054 45099 45166 45209 45215 45277 45319 45268 45237 45243 45272 45308 45363 45397 45451 45493 45551 45558 45507 45480 45497 45537 45598 45636 45664 45702 45733 45782 45806 45750 45709 45716 45747 45782 45821 45843 45887 45913 45934 45932 45883 45827 45842 45859 45888 45926 45955 45973 45985 46014 46009 45942 45925 45922 45937 45966 46003 46017 46042 46070 46075 46081 46030 46000 46014 46048 46063 46100 46124 46148 46172 46191 46173 46114 46071 46083 46111 46145 46166 46192 46214 46235 46249 46239 46171 46115 46131 46158 46181 46214 46237 46238 46266 46285 46278 46204 46137 46145 46168 46192 46222 46262 46259 46285 46286 46300 46244 46174 46173 46187 46219 46241 46264 46256 46281 46298 46299 46257 46169 46134 46144 46168 46178 46210 46192 46222 46222 46227 46176 46085 46044 46055 46077 46093 46099 46114 46105 46114 46120 46046 45946 45895 45921 45947 45957 45960 45973 45975 45972 46000 45928 45823 45756 45780 45785 45803 45804 45829 45825 45841 45847 45757 45623 45563 45556 45574 45580 45590 45606 45596 45604 45612 45517 45361 45280 45283 45300 45310 45322 45328 45335 45350 45372 45312 45147 45059 45040 45044 45087 45104 45114 45125 45154 45182 45171 45040 44913 44862 44890 44929 44945 44952 44974 44977 45006 45023 44939 44769 44703 44697 44733 44770 44777 44779 44815 44835 44839 44778 44615 44540 44528 44553 44607 44616 44640 44641 44680 44690 44664 44513 44421 44422 44452 44487 44522 44542 44556 44601 44620 44620 44481 44375 44376 44406 44442 44490 44532 44536 44581 44605 44633 44553 44432 44409 44431 44476 44502 44555 44579 44613 44652 44690 44707 44594 44505 44520 44555 44610 44659 44682 44722 44774 44812 44867 44842 44779 44734 44746 44795 44842 44894 44938 44970 45011 45049 45090 45062 44971 44941 44978 45025 45063 45112 45124 45167 45191 45231 45259 45219 45150 45147 45172 45223 45270 45290 45314 45345 45365 45393 45405 45347 45307 45324 45352 45392 45427 45444 45471 45499 45532 45557 45547 45480 45456 45467 45521 45559 45583 45610 45623 45650 45685 45706 45647 45602 45594 45608 45658 45691 45708 45732 45747 45775 45808 45819 45747 45702 45709 45714 45754 45776 45810 45804 45847 45864 45886 45879 45804 45755 45756 45803 45827 45842 45869 45890 45911 45907 45943 45922 45852 45813 45823 45853 45870 45900 45906 45922 45933 45941 45963 45907 45836 45809 45822 45854 45852 45867 45868 45883 45912 45932 45909 45840 45779 45763 45776 45820 45825 45842 45849 45862 45862 45898 45850 45767 45729 45725 45740 45777 45793 45796 45806 45828 45834 45842 45768 45678 45662 45655 45686 45693 45693 45718 45719 45738 45757 45723 45588 45529 45505 45513 45509 45535 45539 45553 45560 45566 45575 45515 45370 45315 45292 45314 45330 45356 45364 45368 45388 45401 45417 45368 45232 45160 45123 45159 45178 45184 45203 45215 45217 45232 45242 45199 45061 44961 44941 44950 44986 45002 45085 45132 45115 45114 45132 45047 44933 44851 44826 44842 44891 44925 44960 45012 45033 45082 45114 45067 45005 44978 45010 45065 45107 45169 45193 45229 45267 45328 45356 45307 45254 45250 45368 45505 45532 45565 45577 45636 45720 45800 45758 45642 45595 45614 45666 45723 45748 45757 45789 45817 45839 45838 45740 45628 45586 45567 45615 45737 45845 45960 46042 46120 46159 46194 46134 46030 46016 46006 46038 46071 46142 46204 46273 46341 46405 46461 46406 46331 46330 46370 46442 46509 46556 46618 46679 46728 46781 46801 46714 46653 46657 46709 46767 46816 46880 46915 46970 47015 47063 47038 46971 46948 46958 47010 47063 47100 47139 47170 47214 47263 47275 47231 47179 47152 47182 47216 47244 47269 47265 47262 47291 47354 47394 47355 47339 47370 47398 47453 47526 47635 47720 47786 47867 47882 47827 47774 47772 47820 47896 47955 48007 48048 48056 48056 47999 47847 47674 47521 47471 47384 47351 47329 47249 47175 47100 46984 46812 46623 46532 46492 46493 46451 46448 46451 46503 46514 46471 46329 46104 45888 45698 45561 45453 45396 45387 45395 45427 45522 45598 45672 45778 45860 45957 45920 45880 45856 45898 45939 45966 46019 46026 46018 46019 46006 46026 46085 46113 46104 46164 46275 46349 46336 46309 46351 46419 46497 46574 46629 46676 46688 46706 46694 46614 46502 46444 46445 46487 46525 46533 46547 46576 46608 46605 46541 46458 46418 46425 46440 46487 46532 46575 46609 46650 46674 46535 46387 46292 46249 46222 46220 46234 46254 46259 46274 46301 46268 46209 46150 46142 46158 46191 46251 46294 46316 46339 46371 46388 46340 46255 46233 46220 46229 46233 46233 46227 46233 46218 46230 46208 46156 46065 46028 46002 45987 45981 45967 45935 45894 45871 45839 45788 45724 45690 45670 45690 45694 45698 45729 45727 45748 45770 45811 45792 45764 45755 45781 45833 45883 45943 45992 46053 46101 46152 46179 46153 46121 46133 46181 46230 46304 46342 46426 46541 46623 46645 46654 46584 46516 46467 46508 46574 46625 46712 46792 46884 46983 47061 47168 47225 47267 47332 47428 47533 47626 47734 47805 47921 48005 48112 48205 48213 48178 48181 48204 48249 48295 48338 48366 48410 48457 48475 48496 48449 48399 48363 48351 48374 48400 48423 48443 48476 48505 48532 48493 48402 48338 48280 48278 48270 48281 48295 48292 48267 48257 48257 48182 48087 48020 48004 48010 48020 48034 48043 48063 48078 48114 48128 48069 48016 48000 48039 48114 48158 48193 48269 48296 48336 48349 48345 48248 48145 48120 48122 48145 48183 48196 48209 48225 48241 48273 48216 48128 48069 48031 48030 48064 48069 48097 48127 48173 48218 48254 48185 48069 48003 47999 48016 48023 48009 47994 47983 47987 47991 47966 47882 47740 47662 47636 47642 47648 47661 47687 47730 47750 47770 47734 47627 47537 47491 47504 47538 47585 47621 47649 47676 47712 47716 47674 47583 47507 47471 47486 47508 47525 47565 47577 47612 47633 47644 47614 47502 47406 47357 47334 47356 47395 47430 47488 47538 47578 47653 47662 47623 47552 47534 47559 47601 47652 47697 47735 47750 47787 47820 47818 47719 47629 47548 47530 47547 47550 47580 47596 47626 47646 47648 47612 47505 47410 47361 47355 47378 47390 47412 47406 47424 47447 47467 47473 47453 47398 47388 47392 47364 47402 47402 47433 47460 47497 47541 47511 47439 47365 47333 47343 47384 47395 47415 47431 47446 47461 47449 47411 47312 47256 47242 47261 47303 47318 47340 47329 47330 47379 47404 47340 47297 47271 47290 47318 47355 47367 47398 47425 47460 47495 47493 47433 47401 47394 47422 47459 47487 47515 47540 47583 47616 47636 47614 47561 47552 47559 47582 47624 47636 47669 47688 47711 47733 47735 47697 47627 47612 47626 47669 47695 47723 47751 47757 47767 47786 47748 47691 47674 47686 47714 47739 47756 47789 47820 47821 47852 47840 47785 47738 47730 47768 47791 47812 47854 47875 47883 47915 47925 47860 47814 47793 47806 47826 47850 47880 47883 47923 47946 47955 47957 47903 47846 47832 47840 47872 47895 47913 47944 47962 47998 48019 48033 47965 47924 47915 47918 47933 47985 47998 47993 47997 47974 47984 47973 47902 47845 47839 47849 47874 47891 47889 47846 47840 47841 47858 47829 47698 47608 47588 47604 47617 47657 47692 47708 47742 47799 47832 47821 47774 47747 47712 47696 47687 47706 47738 47751 47750 47764 47751 47699 47613 47573 47577 47579 47604 47609 47610 47613 47603 47607 47621 47586 47485 47403 47381 47388 47392 47403 47393 47394 47394 47410 47418 47410 47341 47238 47180 47171 47157 47190 47184 47191 47177 47165 47174 47165 47129 47034 46934 46898 46909 46925 46940 46912 46909 46927 46900 46894 46917 46924 46961 47008 47071 47145 47219 47237 47250 47281 47319 47343 47371 47310 47246 47237 47275 47342 47397 47501 47572 47635 47682 47703 47738 47742 47633 47558 47532 47543 47560 47566 47564 47586 47624 47649 47674 47706 47665 47573 47511 47525 47531 47563 47596 47614 47639 47642 47673 47703 47705 47638 47581 47549 47569 47586 47618 47639 47670 47686 47711 47755 47783 47729 47640 47596 47595 47610 47648 47665 47694 47693 47711 47763 47758 47730 47647 47584 47582 47598 47616 47654 47678 47695 47714 47744 47764 47761 47680 47614 47589 47602 47640 47669 47689 47705 47718 47740 47788 47791 47722 47656 47617 47625 47644 47674 47686 47707 47730 47744 47769 47779 47787 47716 47642 47621 47651 47659 47687 47695 47727 47746 47769 47778 47822 47793 47716 47657 47640 47672 47676 47722 47724 47745 47786 47797 47813 47836 47780 47707 47662 47676 47689 47717 47751 47753 47786 47793 47807 47841 47832 47747 47682 47651 47669 47682 47717 47738 47753 47753 47796 47803 47817 47767 47683 47652 47638 47659 47681 47709 47724 47742 47749 47779 47801 47781 47699 47603 47574 47591 47621 47655 47665 47672 47688 47715 47739 47747 47717 47625 47565 47554 47579 47620 47624 47642 47656 47681 47699 47708 47733 47698 47588 47517 47508 47530 47561 47573 47590 47615 47646 47655 47679 47714 47675 47575 47500 47467 47482 47505 47556 47600 47647 47700 47733 47760 47777 47782 47675 47593 47520 47527 47539 47562 47572 47580 47599 47608 47658 47677 47652 47558 47465 47431 47434 47473 47479 47492 47509 47506 47538 47569 47588 47551 47453 47381 47378 47393 47430 47459 47494 47516 47534 47556 47599 47614 47583 47463 47401 47401 47438 47457 47493 47492 47525 47537 47572 47585 47623 47566 47470 47417 47407 47437 47453 47471 47479 47504 47530 47552 47564 47597 47531 47454 47394 47399 47434 47470 47466 47496 47528 47551 47576 47617 47610 47538 47465 47427 47456 47492 47505 47541 47536 47593 47613 47636 47673 47668 47581 47511 47494 47508 47543 47575 47612 47626 47635 47638 47674 47687 47611 47545 47508 47514 47543 47577 47600 47612 47646 47677 47704 47744 47702 47636 47593 47587 47618 47644 47663 47687 47739 47752 47779 47809 47788 47701 47651 47656 47671 47710 47728 47764 47786 47803 47820 47833 47832 47743 47684 47673 47680 47710 47758 47776 47793 47805 47832 47854 47844 47765 47689 47692 47724 47753 47782 47808 47824 47844 47861 47886 47861 47793 47728 47735 47759 47795 47817 47843 47853 47883 47904 47926 47908 47814 47761 47763 47790 47819 47840 47861 47874 47918 47912 47951 47954 47877 47784 47771 47772 47805 47837 47843 47861 47895 47918 47934 47969 47958 47890 47806 47791 47798 47832 47867 47884 47906 47920 47952 47975 47993 48011 47930 47853 47825 47833 47870 47888 47913 47928 47950 47993 48010 48041 48063 48009 47930 47882 47875 47917 47945 47959 47999 48001 48026 48048 48070 48108 48108 48036 47951 47931 47954 47986 48009 48019 48050 48063 48077 48091 48122 48117 48035 47947 47898 47893 47926 47953 47968 47986 48010 48032 48054 48077 48070 47979 47890 47849 47838 47883 47905 47916 47941 47957 47974 47993 48015 47989 47910 47844 47797 47829 47858 47873 47904 47893 47906 47949 47950 47972 47921 47827 47763 47756 47789 47817 47841 47843 47865 47890 47901 47922 47924 47825 47736 47697 47718 47743 47761 47777 47787 47810 47831 47848 47862 47803 47675 47592 47568 47573 47596 47616 47636 47654 47676 47680 47701 47727 47666 47524 47458 47426 47445 47464 47470 47494 47497 47534 47551 47582 47617 47613 47513 47397 47345 47337 47367 47383 47415 47422 47446 47463 47495 47525 47557 47532 47400 47306 47257 47270 47310 47337 47339 47366 47381 47416 47432 47459 47483 47438 47311 47230 47202 47211 47251 47262 47277 47307 47332 47371 47399 47435 47463 47411 47279 47212 47197 47218 47255 47272 47300 47328 47352 47389 47426 47457 47462 47359 47254 47215 47235 47255 47290 47309 47335 47368 47400 47423 47452 47479 47428 47327 47287 47264 47290 47322 47350 47382 47407 47441 47457 47519 47524 47496 47409 47342 47326 47353 47394 47413 47425 47442 47487 47512 47534 47589 47578 47500 47422 47421 47433 47446 47490 47494 47534 47562 47586 47627 47663 47686 47663 47583 47533 47530 47548 47593 47608 47634 47684 47710 47725 47764 47797 47839 47802 47732 47683 47700 47731 47761 47778 47800 47832 47860 47895 47928 47954 47973 47933 47869 47858 47850 47885 47914 47941 47949 47982 48005 48026 48047 48097 48077 48019 47971 47948 47962 47995 48003 48036 48043 48079 48087 48120 48147 48163 48087 48034 48009 48012 48039 48046 48067 48113 48130 48156 48165 48202 48223 48172 48093 48034 48048 48083 48103 48093 48117 48134 48163 48181 48200 48212 48160 48058 48001 48004 48021 48029 48059 48067 48087 48094 48124 48152 48160 48112 48036 47997 47980 47980 48003 48011 48030 48027 48049 48069 48090 48135 48115 48041 47988 47985 48009 48035 48038 48035 48048 48056 48049 48060 48058 48050 47923 47814 47786 47767 47763 47767 47796 47809 47810 47828 47865 47883 47838 47715 47618 47591 47589 47612 47612 47630 47621 47632 47654 47680 47693 47661 47548 47440 47402 47394 47417 47422 47462 47457 47459 47488 47500 47533 47524 47432 47295 47239 47239 47244 47252 47266 47284 47298 47331 47356 47377 47408 47390 47308 47182 47120 47107 47128 47159 47175 47200 47206 47242 47263 47265 47286 47320 47274 47147 47079 47057 47070 47101 47129 47137 47159 47183 47219 47244 47274 47308 47318 47238 47147 47108 47132 47142 47188 47200 47206 47243 47264 47284 47338 47366 47398 47346 47234 47217 47203 47220 47254 47268 47315 47340 47372 47388 47432 47458 47473 47420 47346 47316 47313 47342 47380 47388 47433 47450 47476 47502 47522 47569 47573 47500 47451 47433 47453 47476 47508 47535 47544 47572 47599 47629 47660 47687 47639 47597 47565 47586 47583 47618 47638 47657 47687 47703 47746 47765 47787 47769 47726 47671 47665 47672 47694 47721 47732 47756 47769 47788 47804 47837 47855 47828 47760 47722 47729 47752 47770 47798 47815 47826 47852 47865 47886 47919 47909 47878 47817 47793 47804 47824 47836 47886 47884 47900 47913 47926 47975 47994 47989 47964 47919 47880 47884 47906 47916 47935 47937 47939 47961 47982 48004 48014 47969 47875 47840 47850 47856 47865 47875 47899 47902 47916 47930 47960 47976 47939 47844 47794 47772 47774 47790 47796 47822 47854 47903 47923 47944 47922 47887 47789 47688 47625 47628 47657 47664 47659 47656 47630 47646 47669 47694 47703 47632 47526 47454 47420 47429 47429 47454 47445 47448 47459 47432 47432 47422 47389 47270 47122 47020 46964 46945 46938 46902 46862 46824 46771 46695 46644 46606 46516 46361 46242 46162 46114 46085 46053 46010 45974 45942 45907 45888 45884 45857 45777 45668 45606 45585 45609 45652 45658 45696 45724 45763 45793 45807 45846 45836 45719 45592 45527 45482 45474 45481 45485 45472 45476 45474 45487 45522 45582 45603 45544 45415 45302 45230 45196 45171 45173 45151 45167 45153 45197 45214 45242 45270 45249 45181
