45194 45229 45222 47380 47357 47350 47343 47312 47300 47284 47255 47236 47199 47189 47187 47158 47148 47145 47141 47146 47134 47128 47140 47133 47143 47123 47088 47042 47087 47049 47013 46986 46959 46952 46935 46919 46902 46898 46887 46874 46887 46878 46907 46898 46908 46877 46848 46781 46720 46639 46587 46523 46484 46464 46444 46442 46416 46415 46413 46406 46423 46427 46428 46448 46458 46478 46489 46512 46523 46546 46564 46585 46610 46635 46640 46670 46699 46710 46719 46724 46693 46697 46651 46628 46602 46582 46575 46557 46547 46554 46551 46554 46561 46565 46573 46586 46602 46620 46630 46643 46673 46677 46711 46707 46742 46765 46777 46808 46831 46837 46853 46856 46862 46849 46857 46861 46870 46855 46859 46881 46886 46905 46913 46920 46934 46953 46952 46972 46980 46988 47006 47023 47037 47050 47072 47089 47103 47125 47132 47135 47130 47119 47127 47127 47132 47124 47149 47137 47142 47163 47173 47176 47187 47184 47188 47209 47227 47241 47243 47272 47267 47275 47287 47312 47318 47334 47344 47331 47338 47329 47334 47316 47310 47304 47307 47311 47305 47305 47313 47328 47330 47339 47343 47364 47366 47381 47381 47388 47404 47418 47424 47447 47446 47450 47467 47457 47440 47440 47423 47394 47388 47383 47389 47390 47391 47388 47377 47395 47379 47412 47408 47406 47416 47432 47443 47455 47457 47470 47470 47448 47427 47383 47378 47356 47320 47315 47328 47310 47305 47293 47299 47304 47316 47310 47316 47319 47331 47328 47350 47339 47312 47266 47224 47186 47135 47112 47091 47066 47070 47060 47049 47043 47050 47035 47042 47052 47052 47078 47070 47094 47090 47045 46999 46933 46877 46836 46750 46728 46711 46664 46666 46633 46625 46614 46620 46613 46624 46635 46638 46660 46681 46679 46702 46715 46730 46750 46767 46787 46823 46802 46748 46698 46635 46558 46500 46435 46388 46370 46350 46325 46312 46306 46300 46293 46317 46313 46324 46341 46345 46378 46396 46416 46437 46465 46486 46513 46537 46530 46498 46463 46399 46350 46305 46265 46247 46240 46233 46219 46218 46228 46238 46248 46254 46264 46271 46296 46318 46348 46367 46390 46403 46433 46466 46495 46498 46488 46459 46425 46387 46355 46336 46336 46331 46326 46337 46330 46354 46351 46361 46383 46407 46405 46441 46454 46488 46515 46551 46561 46586 46615 46644 46637 46635 46609 46600 46567 46545 46531 46544 46536 46534 46554 46563 46563 46585 46599 46602 46616 46627 46654 46671 46698 46717 46743 46751 46762 46776 46763 46749 46728 46717 46703 46692 46682 46682 46693 46696 46704 46722 46731 46730 46743 46762 46765 46781 46799 46811 46809 46849 46850 46845 46826 46785 46762 46739 46714 46703 46687 46681 46676 46676 46687 46695 46683 46694 46714 46724 46730 46742 46746 46774 46782 46795 46792 46759 46726 46667 46620 46549 46487 46469 46442 46421 46413 46396 46389 46391 46387 46403 46402 46423 46432 46446 46449 46474 46490 46506 46519 46538 46517 46482 46421 46360 46290 46258 46170 46160 46135 46112 46110 46096 46094 46095 46098 46103 46129 46143 46163 46176 46192 46223 46236 46280 46303 46332 46351 46359 46302 46270 46228 46167 46113 46078 46051 46032 46035 46038 46031 46034 46045 46065 46076 46090 46116 46130 46156 46183 46204 46253 46275 46307 46333 46328 46325 46297 46255 46219 46184 46168 46177 46158 46163 46177 46188 46200 46202 46229 46245 46258 46277 46320 46328 46350 46366 46407 46429 46428 46414 46376 46355 46333 46308 46300 46284 46283 46287 46291 46308 46310 46337 46360 46372 46396 46409 46439 46455 46462 46485 46489 46465 46448 46417 46382 46346 46342 46328 46312 46320 46441 46417 46464 46452 46450 46415 46368 46316 46262 46199 46174 46148 46145 46129 46129 46124 46134 46129 46144 46153 46164 46175 46193 46211 46233 46341 46365 46397 46435 46468 46491 46497 46456 46415 46376 46329 46272 46232 46219 46216 46197 46199 46201 46213 46226 46235 46239 46260 46280 46311 46317 46344 46367 46383 46431 46447 46457 46470 46438 46403 46353 46315 46269 46214 46208 46204 46190 46188 46192 46200 46212 46206 46239 46251 46275 46295 46314 46337 46364 46390 46421 46471 46476 46490 46465 46429 46391 46334 46297 46272 46250 46253 46252 46251 46249 46255 46271 46294 46291 46306 46322 46346 46383 46405 46422 46447 46484 46513 46508 46485 46452 46421 46388 46373 46345 46340 46341 46355 46360 46366 46368 46372 46393 46407 46439 46430 46449 46491 46500 46512 46495 46470 46426 46395 46357 46333 46314 46311 46302 46305 46299 46301 46327 46335 46335 46346 46379 46382 46419 46393 46359 46306 46260 46219 46157 46127 46113 46085 46089 46081 46086 46087 46103 46108 46119 46132 46144 46162 46186 46187 46160 46116 46056 45992 45920 45875 45839 45809 45801 45790 45776 45779 45791 45791 45800 45827 45846 45872 45898 45938 45955 45978 46001 46040 46081 46102 46102 46087 46045 45975 45902 45845 45784 45755 45727 45722 45698 45691 45689 45697 45708 45728 45754 45773 45781 45830 45860 45887 45901 45938 45989 46010 46054 46079 46109 46104 46089 46046 46005 45945 45889 45872 45839 45829 45824 45814 45811 45819 45820 45845 45887 45895 45920 45949 45965 45985 46030 46048 46083 46120 46147 46173 46209 46205 46185 46153 46137 46102 46067 46065 46058 46065 46057 46061 46079 46092 46096 46122 46131 46141 46172 46193 46213 46235 46250 46276 46313 46330 46365 46389 46373 46359 46362 46334 46314 46308 46300 46293 46299 46305 46325 46327 46340 46354 46372 46394 46404 46445 46450 46466 46503 46521 46544 46558 46585 46598 46586 46582 46551 46534 46520 46522 46506 46513 46519 46535 46540 46535 46551 46575 46575 46588 46604 46627 46632 46667 46686 46690 46716 46705 46683 46666 46636 46613 46601 46605 46595 46593 46598 46603 46606 46616 46632 46639 46650 46651 46683 46686 46702 46704 46657 46637 46598 46550 46526 46500 46501 46494 46487 46484 46472 46476 46482 46493 46498 46511 46521 46532 46527 46515 46450 46393 46328 46260 46205 46182 46157 46121 46109 46107 46095 46087 46098 46100 46105 46110 46117 46142 46164 46171 46189 46200 46172 46108 46036 45956 45878 45800 45747 45715 45681 45665 45657 45656 45645 45646 45664 45675 45687 45708 45727 45748 45800 45828 45838 45803 45754 45679 45626 45559 45512 45486 45479 45471 45473 45470 45485 45508 45531 45557 45576 45613 45638 45674 45698 45739 45762 45777 45730 45671 45620 45576 45522 45514 45476 45466 45480 45474 45499 45502 45515 45539 45578 45607 45629 45669 45699 45727 45760 45794 45766 45746 45713 45685 45644 45626 45635 45630 45631 45649 45670 45671 45700 45722 45750 45773 45824 45854 45886 45932 45966 45972 46027 46067 46097 46133 46177 46194 46193 46173 46162 46161 46139 46126 46109 46122 46129 46134 46154 46161 46176 46201 46234 46248 46274 46298 46312 46327 46362 46393 46408 46447 46462 46493 46505 46504 46509 46497 46478 46481 46469 46470 46480 46488 46485 46480 46509 46515 46535 46539 46555 46566 46605 46601 46632 46642 46667 46672 46676 46651 46648 46631 46616 46576 46568 46570 46561 46579 46572 46559 46579 46594 46601 46612 46629 46640 46665 46676 46684 46697 46732 46706 46678 46656 46629 46583 46555 46531 46545 46532 46526 46528 46515 46515 46522 46530 46556 46594 46655 46725 46797 46882 46946 46979 46992 46998 46984 46943 46907 46859 46806 46734 46670 46630 46599 46592 46631 46652 46694 46735 47006 46930 46868 46839 46785 46753 46713 46674 46633 46607 46606 46592 46572 46546 46529 46526 46546 46543 46532 46543 46498 46437 46352 46258 46195 46198 46143 46108 46077 46041 46009 45993 45969 45947 45940 45940 45939 45923 45922 45938 45953 45960 45965 45990 45996 45975 45890 45811 45737 45667 45583 45524 45496 45459 45435 45407 45395 45385 45387 45389 45399 45396 45402 45426 45434 45449 45476 45503 45526 45525 45472 45400 45333 45272 45222 45172 45160 45135 45135 45122 45124 45132 45118 45133 45147 45175 45179 45202 45233 45263 45269 45243 45177 45124 45081 45038 44996 44981 44977 44980 44966 44970 44991 45017 45029 45048 45090 45119 45145 45168 45196 45226 45198 45167 45115 45074 45045 45006 45000 44992 45007 45006 45024 45048 45061 45077 45115 45150 45182 45218 45262 45295 45330 45375 45402 45435 45471 45498 45511 45495 45486 45472 45441 45438 45415 45411 45435 45435 45444 45448 45452 45475 45503 45525 45534 45571 45594 45628 45656 45687 45703 45738 45761 45803 45826 45864 45883 45872 45863 45859 45834 45823 45811 45819 45825 45812 45817 45837 45846 45853 45864 45881 45891 45899 45943 45944 45980 46005 46029 46030 46068 46065 46103 46113 46111 46108 46088 46063 46051 46033 46007 46011 46006 45995 46006 45998 46008 46017 46035 46034 46048 46046 46056 46078 46096 46118 46138 46161 46178 46190 46212 46226 46228 46204 46169 46130 46106 46069 46036 46010 45976 45979 45967 45952 45950 45927 45932 45925 45930 45936 45946 45955 45968 45983 45994 46011 46029 46032 46066 46072 46053 45991 45946 45883 45824 45765 45722 45698 45667 45638 45620 45615 45609 45589 45573 45588 45583 45603 45618 45618 45642 45650 45685 45689 45713 45721 45738 45752 45731 45650 45591 45522 45454 45386 45331 45297 45273 45238 45223 45226 45216 45209 45220 45230 45244 45244 45262 45276 45289 45325 45321 45358 45392 45419 45435 45421 45367 45301 45247 45178 45104 45046 45033 45004 44994 44979 44968 44982 44995 45003 45003 45033 45038 45072 45089 45133 45151 45190 45195 45249 45278 45295 45279 45220 45172 45128 45077 45038 45013 45000 44996 44996 44998 45001 45021 45030 45049 45090 45104 45111 45142 45171 45217 45258 45279 45296 45324 45313 45281 45255 45212 45185 45153 45162 45159 45154 45175 45173 45194 45210 45230 45254 45270 45309 45332 45360 45398 45417 45446 45474 45482 45443 45433 45409 45386 45362 45359 45340 45342 45359 45358 45386 45395 45416 45424 45457 45475 45504 45526 45561 45569 45602 45640 45630 45639 45612 45592 45571 45548 45528 45523 45531 45530 45545 45549 45568 45582 45594 45619 45627 45653 45670 45691 45714 45743 45764 45793 45814 45824 45808 45798 45784 45766 45746 45739 45744 45740 45731 45754 45750 45766 45771 45776 45792 45801 45838 45841 45870 45894 45923 45936 45965 45976 45994 45990 45964 45943 45914 45893 45885 45869 45876 45868 45878 45878 45882 45889 45911 45905 45933 45933 45962 45969 45988 46006 46025 46055 46069 46084 46088 46083 46059 46050 46018 45995 45964 45943 45929 45920 45930 45928 45928 45928 45933 45939 45947 45948 45977 45988 45999 46012 46025 46048 46057 46061 46038 46009 45991 45950 45925 45893 45872 45863 45844 45848 45850 45845 45827 45855 45840 45859 45875 45897 45898 45921 45330 45307 45277 45278 45269 45275 45278 45271 45295 45320 45325 45344 45358 45389 45411 45445 45479 45448 45404 45353 45320 45254 45212 45166 45149 45256 45235 45238 45237 45248 45257 45275 45293 45312 45336 45364 45384 45413 45445 45489 45512 45527 45531 45510 45480 45459 45422 45399 45344 45345 45338 45326 45336 45332 45343 45364 45375 45383 45410 45438 45455 45490 45509 45539 45569 45602 45614 45615 45598 45576 45544 45521 45499 45479 45479 45493 45479 45504 45485 45508 45511 45548 45545 45572 45594 45617 45643 45677 45701 45741 45762 45769 45763 45744 45733 45705 45693 45667 45662 45659 45654 45657 45665 45687 45683 45695 45706 45741 45759 45773 45795 45812 45836 45858 45882 45871 45842 45823 45817 45805 45794 45793 45788 45782 45775 45784 45793 45798 45813 45820 45837 45856 45874 45889 45914 45908 45900 45887 45872 45836 45811 45801 45776 45777 45768 45765 45763 45775 45782 45793 45799 45800 45823 45837 45864 45879 45892 45898 45879 45861 45826 45785 45749 45726 45718 45687 45677 45667 45659 45656 45659 45657 45667 45681 45695 45699 45726 45753 45751 45791 45806 45803 45803 45766 45735 45692 45645 45616 45584 45563 45535 45534 45516 45523 45521 45498 45514 45541 45546 45554 45568 45595 45622 45644 45657 45686 45704 45683 45643 45607 45557 45509 45476 45447 45434 45425 45410 45410 45391 45396 45410 45427 45443 45448 45466 45499 45512 45531 45558 45584 45611 45611 45571 45548 45521 45492 45450 45424 45412 45393 45401 45381 45393 45391 45408 45423 45434 45454 45468 45497 45510 45537 45575 45604 45630 45645 45619 45599 45573 45564 45526 45500 45495 45480 45480 45483 45498 45491 45514 45517 45530 45560 45562 45590 45622 45624 45656 45671 45669 45649 45626 45619 45586 45559 45558 45554 45563 45553 45547 45571 45579 45598 45606 45629 45634 45658 45673 45696 45720 45697 45665 45640 45620 45585 45563 45565 45566 45557 45558 45566 45572 45584 45599 45617 45638 45636 45662 45692 45706 45697 45683 45638 45612 45560 45538 45523 45519 45511 45516 45514 45507 45525 45525 45542 45554 45571 45591 45615 45634 45659 45679 45689 45668 45616 45589 45546 45507 45463 45431 45416 45394 45400 45399 45390 45405 45410 45427 45433 45452 45470 45482 45511 45543 45566 45570 45611 45623 45597 45574 45539 45497 45452 45403 45365 45374 45363 45344 45336 45354 45347 45362 45378 45380 45402 45427 45449 45460 45486 45508 45546 45560 45534 45509 45473 45444 45400 45357 45356 45344 45333 45340 45323 45331 45339 45347 45352 45376 45389 45438 45454 45465 45498 45514 45545 45570 45611 45611 45605 45584 45558 45526 45497 45464 45449 45451 45438 45441 45449 45443 45454 45481 45486 45499 45518 45549 45577 45582 45614 45641 45675 45669 45668 45647 45643 45599 45575 45571 45551 45555 45543 45556 45566 45566 45572 45581 45614 45627 45643 45655 45680 45696 45726 45747 45772 45806 45807 45814 45799 45782 45771 45737 45727 45708 45729 45712 45707 45715 45726 45725 45740 45754 45761 45782 45793 45814 45838 45856 45880 45898 45882 45872 45867 45837 45816 45791 45802 45770 45782 45783 45777 45778 45786 45804 45808 45830 45837 45857 45876 45878 45906 45899 45889 45871 45840 45813 45775 45761 45734 45727 45718 45719 45709 45710 45726 45724 45729 45736 45765 45774 45779 45798 45799 45750 45722 45669 45617 45596 45555 45528 45519 45509 45501 45503 45485 45512 45510 45514 45540 45547 45566 45580 45584 45592 45549 45499 45445 45383 45328 45290 45280 45247 45238 45220 45226 45221 45240 45246 45252 45274 45285 45300 45339 45352 45392 45414 45432 45479 45498 45535 45552 45573 45579 45535 45504 45470 45422 45367 45316 45309 45297 45286 45276 45277 45273 45292 45296 45307 45325 45342 45372 45386 45410 45438 45461 45480 45515 45553 45567 45580 45567 45536 45500 45479 45447 45412 45417 45403 45406 45394 45395 45407 45424 45428 45459 45491 45506 45520 45553 45567 45594 45616 45651 45675 45691 45689 45667 45658 45640 45611 45589 45577 45578 45569 45555 45573 45585 45589 45609 45641 45632 45669 45629 45612 45604 45594 45597 45595 45594 45606 45615 45627 45649 45667 45684 45701 45679 45648 45603 45577 45531 45496 45455 45454 45430 45427 45505 45511 45542 45547 45559 45576 45583 45601 45623 45640 45658 45638 45603 45556 45514 45462 45432 45397 45389 45368 45384 45392 45399 45396 45402 45421 45431 45467 45486 45508 45513 45501 45448 45401 45357 45304 45267 45238 45218 45213 45216 45225 45216 45239 45251 45279 45303 45318 45341 45381 45397 45430 45449 45450 45410 45363 45335 45281 45242 45214 45205 45210 45192 45196 45193 45204 45222 45256 45268 45286 45318 45352 45377 45414 45452 45473 45499 45545 45562 45606 45626 45598 45579 45542 45512 45469 45428 45417 45398 45413 45405 45416 45431 45421 45453 45465 45458 45501 45520 45542 45565 45603 45625 45645 45694 45709 45721 45719 45704 45677 45654 45627 45593 45592 45581 45582 45579 45590 45596 45614 45618 45630 45645 45684 45686 45708 45735 45763 45800 45812 45842 45857 45836 45804 45781 45765 45746 45730 45710 45709 45721 45711 45711 45710 45735 45741 45747 45766 45773 45800 45800 45828 45864 45874 45901 45891 45862 45827 45817 45781 45769 45751 45750 45743 45738 45735 45738 45759 45766 45786 45789 45811 45818 45830 45853 45878 45890 45889 45876 45827 45820 45766 45734 45722 45715 45701 45676 45683 45691 45695 45697 45711 45719 45728 45750 45763 45787 45794 45777 45727 45688 45643 45610 45549 45525 45514 45507 45477 45481 45478 45489 45488 45512 45512 45538 45556 45569 45591 45624 45631 45597 45545 45499 45460 45389 45326 45303 45294 45276 45262 45260 45264 45262 45270 45298 45309 45318 45356 45376 45400 45414 45457 45477 45516 45536 45581 45599 45569 45526 45473 45419 45356 45325 45294 45294 45269 45262 45290 45266 45281 45295 45304 45321 45338 45366 45395 45425 45468 45485 45521 45545 45570 45575 45543 45518 45460 45439 45394 45363 45356 45341 45353 45350 45365 45372 45372 45391 45414 45429 45463 45476 45506 45546 45580 45599 45635 45666 45669 45669 45630 45597 45577 45544 45527 45499 45516 45517 45516 45514 45515 45540 45557 45566 45576 45602 45629 45648 45677 45704 45743 45763 45787 45811 45814 45797 45775 45745 45703 45684 45672 45682 45675 45677 45676 45674 45692 45701 45714 45729 45741 45751 45780 45797 45820 45851 45875 45884 45852 45834 45823 45775 45762 45750 45750 45742 45739 45741 45733 45758 45776 45764 45787 45797 45803 45815 45854 45868 45864 45844 45804 45784 45738 45710 45696 45663 45657 45654 45657 45657 45660 45659 45685 45703 45716 45733 45754 45777 45799 45808 45780 45737 45706 45649 45596 45552 45532 45508 45504 45499 45476 45474 45484 45493 45502 45506 45534 45558 45579 45611 45611 45650 45668 45652 45622 45573 45523 45467 45417 45397 45357 45342 45340 45330 45336 45327 45342 45366 45374 45390 45418 45446 45464 45492 45510 45545 45569 45529 45499 45447 45399 45342 45312 45295 45287 45281 45266 45277 45272 45294 45308 45309 45339 45351 45374 45418 45442 45463 45505 45545 45547 45534 45499 45463 45415 45368 45342 45321 45316 45312 45317 45322 45338 45346 45361 45379 45410 45407 45446 45473 45497 45549 45558 45587 45629 45603 45582 45541 45531 45484 45456 45456 45449 45435 45433 45451 45462 45469 45488 45499 45517 45542 45561 45596 45616 45635 45684 45688 45660 45640 45622 45592 45572 45554 45558 45563 45556 45556 45572 45582 45597 45602 45612 45635 45660 45664 45687 45673 45648 45624 45574 45539 45504 45484 45482 45468 45460 45473 45476 45487 45499 45534 45534 45556 45588 45606 45633 45609 45580 45544 45503 45452 45426 45382 45379 45373 45366 45353 45364 45386 45397 45404 45430 45459 45468 45490 45528 45557 45537 45489 45446 45391 45346 45305 45271 45252 45243 45230 45234 45227 45234 45247 45271 45280 45298 45328 45362 45375 45417 45431 45456 45484 45479 45437 45399 45332 45279 45223 45196 45177 45160 45144 45135 45131 45147 45173 45176 45194 45214 45247 45273 45280 45316 45359 45388 45413 45461 45460 45438 45405 45366 45324 45272 45240 45217 45207 45214 45194 45184 45215 45214 45224 45255 45282 45297 45322 45345 45368 45394 45437 45439 45444 45401 45382 45344 45304 45292 45269 45276 45279 45279 45282 45295 45302 45338 45347 45357 45394 45416 45445 45465 45495 45506 45480 45459 45417 45388 45368 45348 45343 45347 45347 45348 45362 45367 45394 45408 45421 45451 45475 45509 45527 45532 45502 45485 45452 45429 45395 45363 45373 45368 45356 45362 45368 45379 45397 45423 45433 45451 45486 45502 45534 45556 45530 45532 45509 45469 45429 45404 45397 45372 45377 45359 45379 45382 45396 45421 45424 45457 45466 45507 45519 45556 45580 45591 45620 45651 45678 45714 45719 45697 45657 45641 45603 45566 45545 45548 45519 45525 45526 45535 45534 45535 45556 45574 45599 45614 45629 45638 45670 45705 45724 45749 45730 45717 45699 45664 45619 45607 45589 45578 45567 45563 45570 45584 45584 45604 45606 45646 45652 45681 45696 45720 45754 45760 45794 45812 45803 45786 45760 45730 45712 45684 45657 45659 45647 45639 45649 45645 45655 45650 45674 45706 45701 45724 45751 45768 45796 45798 45800 45764 45740 45707 45680 45643 45643 45621 45624 45628 45616 45622 45615 45644 45649 45660 45669 45678 45700 45711 45745 45759 45726 45698 45656 45632 45572 45536 45539 45518 45516 45514 45528 45529 45541 45537 45554 45593 45607 45627 45637 45655 45688 45711 45729 45746 45727 45683 45648 45596 45562 45508 45499 45468 45467 45456 45449 45456 45469 45467 45490 45504 45533 45553 45576 45595 45618 45637 45671 45696 45677 45666 45611 45578 45527 45499 45457 45447 45434 45421 45419 45413 45413 45413 45434 45455 45474 45478 45515 45534 45553 45599 45621 45626 45592 45559 45539 45485 45427 45408 45393 45397 45378 45379 45397 45392 45399 45404 45427 45443 45462 45486 45508 45528 45539 45522 45495 45452 45426 45379 45353 45344 45327 45318 45318 45327 45351 45355 45361 45401 45402 45409 45446 45470 45484 45461 45433 45399 45371 45315 45290 45275 45281 45261 45265 45264 45275 45288 45301 45335 45357 45361 45387 45412 45419 45391 45342 45306 45264 45221 45188 45188 45187 45193 45182 45191 45193 45228 45243 45257 45290 45302 45355 45364 45395 45412 45388 45346 45305 45283 45236 45184 45199 45179 45173 45180 45196 45204 45226 45231 45268 45286 45300 45338 45370 45387 45423 45487 45497 45524 45572 45596 45622 45600 45585 45567 45540 45494 45472 45444 45435 45429 45441 45445 45451 45456 45462 45495 45507 45531 45554 45570 45624 45629 45652 45699 45712 45738 45763 45751 45723 45701 45671 45651 45633 45620 45608 45623 45623 45639 45646 45658 45680 45691 45722 45746 45765 45776 45803 45825 45855 45885 45876 45872 45843 45825 45811 45781 45785 45778 45772 45765 45759 45774 45775 45792 45807 45822 45837 45852 45882 45910 45927 45953 45964 45986 45983 45959 45936 45905 45876 45843 45849 45850 45835 45837 45836 45834 45834 45860 45859 45880 45892 45907 45913 45921 45960 45976 45983 45963 45931 45909 45869 45846 45835 45826 45829 45805 45811 45815 45810 45825 45832 45848 45843 45876 45889 45900 45913 45875 45850 45796 45761 45729 45702 45690 45654 45656 45652 45642 45658 45655 45662 45668 45677 45690 45716 45737 45719 45660 45610 45571 45505 45470 45426 45410 45388 45382 45369 45369 45370 45367 45376 45398 45410 45425 45457 45478 45469 45426 45377 45323 45248 45197 45144 45138 45127 45126 45113 45128 45131 45119 45141 45159 45187 45216 45226 45224 45196 45175 45176 45185 45183 45192 45215 45231 45248 45277 45296 45318 45290 45236 45213 45176 45120 45083 45057 45053 45054 45046 45047 45047 45161 45178 45209 45243 45273 45294 45350 45356 45395 45425 45472 45508 45515 45466 45452 45415 45374 45347 45322 45308 45294 45306 45297 45304 45309 45320 45341 45369 45388 45411 45445 45473 45502 45531 45563 45588 45592 45570 45544 45516 45494 45467 45440 45420 45421 45427 45432 45426 45445 45452 45454 45478 45496 45527 45540 45574 45603 45625 45663 45682 45706 45705 45690 45658 45641 45622 45587 45575 45592 45595 45587 45598 45614 45609 45621 45637 45652 45669 45682 45705 45727 45736 45796 45782 45762 45746 45709 45675 45674 45654 45647 45640 45645 45643 45670 45653 45676 45693 45696 45714 45738 45768 45778 45794 45783 45764 45741 45703 45673 45639 45642 45637 45624 45614 45618 45621 45627 45644 45645 45670 45671 45702 45719 45738 45753 45770 45730 45697 45658 45613 45584 45553 45533 45538 45518 45521 45505 45523 45533 45535 45535 45553 45572 45601 45619 45650 45669 45693 45671 45632 45595 45557 45521 45486 45462 45444 45445 45426 45431 45446 45434 45458 45463 45492 45506 45525 45544 45568 45589 45612 45622 45604 45569 45537 45498 45444 45412 45401 45380 45374 45373 45361 45377 45377 45391 45404 45414 45438 45468 45479 45528 45542 45577 45599 45609 45618 45587 45564 45530 45488 45443 45436 45432 45415 45426 45421 45433 45450 45460 45480 45483 45511 45538 45562 45575 45605 45632 45667 45678 45680 45651 45623 45599 45569 45544 45532 45522 45525 45523 45532 45528 45552 45564 45578 45601 45609 45629 45661 45681 45705 45724 45755 45791 45788 45765 45742 45707 45692 45654 45648 45644 45638 45636 45640 45649 45670 45673 45694 45698 45705 45730 45749 45775 45806 45814 45800 45775 45745 45718 45691 45673 45671 45671 45666 45649 45659 45674 45670 45680 45687 45707 45724 45737 45766 45764 45769 45724 45677 45649 45614 45574 45550 45541 45537 45525 45524 45534 45535 45537 45552 45557 45581 45606 45611 45626 45604 45573 45519 45495 45435 45397 45357 45355 45340 45333 45325 45321 45330 45322 45337 45369 45390 45403 45432 45445 45467 45484 45528 45544 45562 45593 45636 45628 45610 45567 45497 45464 45415 45379 45353 45331 45329 45315 45295 45308 45301 45321 45327 45338 45355 45368 45405 45429 45457 45475 45505 45529 45562 45572 45542 45503 45485 45445 45398 45369 45356 45340 45347 45347 45342 45354 45374 45386 45382 45411 45417 45443 45468 45489 45529 45541 45572 45595 45591 45568 45536 45517 45482 45454 45440 45433 45425 45441 45424 45452 45447 45467 45477 45502 45514 45526 45562 45586 45604 45634 45646 45663 45653 45635 45614 45581 45563 45536 45535 45530 45535 45529 45534 45536 45547 45568 45582 45620 45620 45641 45657 45675 45696 45721 45725 45716 45690 45671 45650 45607 45617 45596 45583 45592 45602 45597 45604 45634 45634 45651 45656 45675 45714 45720 45730 45751 45761 45714 45701 45670 45663 45610 45606 45601 45610 45595 45599 45617 45616 45633 45649 45659 45678 45690 45720 45736 45751 45790 45786 45811 45801 45784 45759 45720 45681 45649 45627 45624 45595 45596 45585 45590 45588 45593 45605 45621 45633 45635 45668 45685 45697 45711 45745 45726 45697 45665 45637 45582 45555 45515 45510 45487 45484 45458 45471 45481 45486 45500 45516 45534 45547 45576 45584 45593 45625 45647 45672 45680 45674 45630 45599 45557 45529 45486 45473 45457 45445 45435 45435 45431 45441 45442 45458 45480 45498 45505 45534 45536 45557 45585 45611 45625 45634 45596 45561 45513 45474 45444 45413 45400 45396 45370 45371 45376 45381 45385 45387 45406 45431 45452 45467 45492 45511 45530 45553 45550 45536 45500 45460 45430 45378 45379 45353 45370 45342 45347 45336 45349 45362 45392 45399 45406 45423 45435 45478 45493 45518 45533 45516 45482 45450 45426 45407 45385 45368 45356 45358 45363 45359 45360 45387 45392 45418 45429 45454 45482 45487 45542 45562 45572 45571 45549 45528 45501 45465 45441 45419 45404 45407 45401 45400 45401 45423 45426 45448 45467 45478 45486 45521 45553 45563 45602 45623 45646 45654 45636 45606 45589 45544 45511 45486 45493 45491 45467 45475 45474 45498 45516 45527 45547 45556 45578 45597 45635 45658 45676 45683 45720 45726 45700 45682 45641 45610 45579 45588 45582 45562 45544 45569 45582 45575 45596 45611 45631 45641 45663 45690 45695 45731 45745 45775 45784 45762 45745 45739 45698 45640 45631 45636 45610 45619 45625 45618 45621 45625 45661 45655 45680 45680 45714 45723 45745 45761 45787 45802 45779 45753 45728 45704 45666 45652 45637 45622 45608 45626 45639 45635 45632 45647 45668 45681 45693 45709 45732 45748 45736 45702 45667 45635 45598 45568 45557 45549 45543 45548 45539 45543 45552 45565 45582 45602 45602 45633 45652 45657 45615 45577 45538 45525 45461 45425 45432 45419 45408 45412 45399 45415 45427 45435 45456 45466 45488 45500 45535 45546 45563 45594 45568 45547 45490 45449 45391 45345 45328 45310 45295 45285 45271 45280 45291 45292 45306 45319 45350 45364 45389 45410 45444 45467 45477 45511 45552 45567 45544 45505 45471 45443 45376 45349 45326 45318 45313 45294 45291 45303 45300 45324 45323 45348 45377 45390 45417 45432 45459 45486 45505 45536 45564 45546 45525 45493 45472 45450 45420 45384 45385 45379 45367 45389 45385 45395 45408 45415 45451 45464 45473 45502 45533 45551 45598 45604 45637 45640 45628 45611 45590 45559 45543 45535 45518 45524 45525 45518 45531 45528 45543 45556 45575 45597 45607 45629 45661 45673 45700 45710 45701 45670 45652 45628 45601 45589 45580 45582 45574 45581 45582 45581 45601 45613 45624 45650 45678 45693 45710 45738 45753 45772 45789 45782 45759 45728 45711 45670 45649 45632 45626 45623 45610 45621 45623 45625 45637 45634 45664 45668 45697 45707 45732 45753 45790 45812 45844 45863 45901 45912 45908 45903 45872 45859 45812 45783 45755 45747 45744 45736 45721 45729 45738 45731 45752 45745 45774 45780 45800 45812 45831 45850 45876 45899 45929 45961 45966 45945 45916 45885 45854 45823 45798 45774 45781 45766 45749 45767 45761 45766 45775 45784 45802 45811 45838 45835 45850 45880 45892 45878 45863 45839 45807 45769 45757 45736 45710 45719 45688 45724 45708 45712 45723 45738 45725 45755 45784 45786 45816 45819 45800 45748 45716 45689 45638 45608 45583 45577 45558 45557 45547 45564 45547 45561 45568 45597 45614 45619 45651 45675 45680 45657 45614 45575 45522 45480 45442 45422 45408 45384 45371 45383 45378 45380 45389 45403 45412 45431 45454 45484 45525 45538 45568 45587 45625 45617 45591 45543 45504 45453 45401 45361 45340 45335 45318 45316 45310 45315 45332 45335 45354 45381 45394 45413 45446 45473 45486 45532 45557 45572 45548 45523 45479 45453 45414 45389 45350 45355 45340 45343 45343 45347 45358 45367 45382 45396 45411 45448 45475 45503 45513 45549 45560 45571 45555 45539 45516 45480 45439 45419 45395 45394 45383 45410 45384 45423 45419 45439 45465 45466 45476 45510 45533 45557 45591 45611 45636 45667 45642 45613 45594 45553 45549 45517 45515 45499 45507 45509 45514 45514 45527 45529 45540 45561 45589 45609 45619 45653 45664 45664 45658 45622 45596 45580 45546 45543 45531 45526 45538 45526 45540 45542 45563 45590 45591 45605 45645 45650 45685 45670 45657 45630 45585 45567 45546 45506 45500 45499 45488 45500 45486 45499 45510 45518 45538 45563 45568 45596 45616 45639 45669 45661 45653 45607 45571 45438 45396 45373 45368 45372 45378 45374 45362 45391 45391 45405 45429 45447 45428 45398 45365 45340 45275 45242 45220 45222 45190 45172 45181 45194 45291 45312 45344 45353 45377 45403 45418 45441 45406 45365 45339 45299 45243 45229 45210 45227 45213 45205 45230 45229 45247 45262 45285 45308 45327 45354 45386 45421 45426 45401 45382 45346 45309 45262 45232 45222 45200 45195 45191 45211 45213 45216 45242 45256 45274 45319 45329 45352 45377 45420 45450 45476 45515 45543 45587 45607 45626 45604 45565 45554 45510 45477 45461 45449 45435 45430 45444 45444 45455 45467 45479 45493 45501 45526 45551 45563 45611 45628 45655 45679 45720 45730 45762 45755 45735 45726 45699 45660 45640 45636 45631 45629 45630 45638 45646 45674 45683 45695 45706 45720 45730 45762 45793 45813 45843 45861 45876 45877 45867 45861 45834 45805 45797 45777 45780 45772 45784 45796 45795 45806 45828 45838 45850 45865 45887 45884 45902 45910 45917 45896 45884 45865 45830 45813 45809 45816 45805 45797 45822 45813 45819 45844 45845 45859 45872 45896 45908 45901 45877 45853 45823 45788 45748 45740 45738 45711 45716 45696 45700 45712 45734 45740 45745 45759 45775 45808 45812 45788 45746 45705 45679 45631 45581 45562 45540 45519 45517 45513 45510 45522 45525 45538 45546 45573 45583 45601 45634 45658 45690 45705 45725 45752 45772 45733 45689 45640 45585 45555 45511 45485 45460 45464 45446 45440 45446 45449 45439 45461 45479 45494 45506 45542 45556 45591 45605 45649 45659 45688 45712 45705 45679 45641 45586 45542 45503 45474 45457 45456 45449 45447 45448 45473 45473 45486 45496 45521 45535 45555 45583 45598 45635 45666 45688 45709 45746 45722 45699 45657 45611 45574 45539 45529 45515 45514 45512 45519 45524 45535 45548 45564 45581 45592 45621 45630 45652 45680 45711 45743 45735 45723 45691 45658 45624 45605 45576 45568 45557 45562 45568 45556 45583 45596 45599 45624 45647 45667 45676 45699 45717 45719 45702 45666 45640 45601 45576 45549 45548 45532 45545 45529 45540 45552 45571 45586 45594 45624 45631 45663 45690 45711 45726 45735 45716 45672 45643 45591 45552 45530 45530 45521 45499 45504 45495 45507 45524 45508 45539 45554 45566 45585 45606 45634 45658 45683 45708 45744 45734 45698 45665 45635 45584 45533 45507 45495 45489 45476 45459 45475 45474 45484 45499 45516 45514 45551 45578 45587 45610 45635 45654 45658 45631 45585 45560 45511 45472 45441 45430 45416 45411 45407 45400 45423 45424 45441 45449 45458 45467 45495 45532 45555 45579 45606 45635 45661 45698 45705 45687 45651 45613 45581 45539 45498 45494 45486 45467 45460 45471 45464 45476 45500 45505 45507 45526 45551 45570 45605 45620 45648 45680 45708 45715 45703 45679 45637 45609 45584 45539 45534 45526 45515 45510 45517 45535 45527 45532 45547 45555 45587 45599 45622 45650 45664 45697 45712 45726 45728 45686 45648 45646 45587 45567 45565 45555 45550 45535 45541 45546 45557 45557 45571 45580 45593 45608 45631 45651 45650 45641 45615 45585 45538 45521 45501 45474 45475 45480 45465 45471 45476 45485 45501 45506 45522 45529 45552 45569 45564 45544 45510 45472 45423 45383 45350 45341 45346 45327 45332 45338 45335 45340 45353 45375 45395 45407 45430 45438 45406 45369 45326 45286 45236 45179 45189 45170 45173 45156 45148 45157 45174 45194 45195 45220 45238 45263 45290 45326 45336 45363 45326 45282 45242 45207 45170 45138 45112 45090 45084 45077 45081 45082 45100 45109 45130 45139 45164 45189 45223 45261 45285 45312 45365 45384 45418 45441 45479 45509 45525 45515 45477 45439 45404 45368 45361 45332 45329 45329 45303 45316 45334 45324 45345 45355 45370 45398 45424 45449 45477 45509 45534 45572 45590 45615 45647 45679 45688 45682 45654 45653 45620 45590 45591 45565 45560 45570 45553 45571 45573 45601 45601 45625 45641 45657 45673 45696 45737 45747 45782 45803 45827 45865 45863 45848 45844 45830 45800 45791 45789 45778 45778 45781 45790 45792 45812 45801 45822 45830 45845 45869 45880 45916 45928 45953 45947 45939 45933 45900 45882 45872 45848 45859 45861 45854 45847 45870 45873 45871 45881 45900 45919 45928 45949 45966 45987 45987 45979 45974 45925 45891 45869 45837 45820 45810 45806 45800 45804 45807 45818 45824 45827 45836 45856 45868 45865 45901 45917 45952 45959 45956 45918 45894 45853 45800 45751 45700 45679 45657 45627 45621 45625 45618 45632 45620 45622 45621 45643 45656 45673 45689 45691 45729 45717 45701 45630 45587 45522 45473 45419 45398 45372 45350 45336 45341 45337 45336 45341 45347 45362 45376 45395 45405 45429 45453 45481 45495 45506 45477 45429 45388 45343 45285 45246 45228 45211 45191 45182 45177 45177 45194 45195 45215 45223 45242 45251 45277 45308 45346 45366 45356 45344 45305 45285 45240 45202 45183 45175 45165 45157 45160 45163 45178 45188 45212 45234 45259 45277 45308 45336 45346 45369 45349 45333 45316 45274 45244 45233 45222 45214 45221 45232 45239 45250 45264 45287 45304 45331 45343 45377 45412 45426 45462 45494 45520 45548 45567 45550 45530 45530 45492 45468 45458 45452 45437 45441 45434 45458 45450 45478 45483 45514 45540 45553 45573 45602 45626 45651 45663 45654 45648 45641 45622 45600 45588 45576 45576 45585 45568 45593 45602 45608 45630 45646 45655 45676 45704 45721 45749 45763 45798 45836 45837 45864 45857 45846 45831 45827 45788 45777 45770 45777 45772 45763 45772 45781 45795 45804 45821 45823 45839 45863 45869 45885 45900 45917 45901 45900 45887 45843 45839 45839 45820 45809 45798 45805 45803 45812 45819 45836 45827 45850 45860 45881 45884 45896 45860 45859 45832 45798 45774 45759 45726 45724 45706 45707 45702 45690 45700 45699 45714 45725 45735 45756 45765 45796 45787 45773 45742 45714 45682 45628 45582 45567 45522 45522 45510 45529 45523 45531 45520 45540 45553 45567 45591 45592 45614 45635 45666 45684 45693 45696 45662 45629 45582 45548 45493 45464 45436 45430 45425 45404 45405 45412 45419 45424 45445 45464 45479 45496 45511 45541 45566 45578 45548 45524 45499 45465 45424 45387 45376 45363 45363 45362 45362 45368 45378 45401 45413 45438 45456 45472 45492 45524 45557 45590 45604 45605 45578 45559 45533 45504 45485 45466 45484 45468 45477 45484 45494 45484 45512 45531 45548 45556 45591 45614 45632 45660 45666 45659 45640 45636 45600 45583 45581 45589 45577 45576 45594 45599 45601 45625 45638 45654 45666 45694 45711 45738 45747 45731 45711 45698 45671 45654 45642 45646 45645 45651 45648 45656 45659 45666 45696 45719 45738 45763 45776 45793 45818 45840 45840 45831 45800 45783 45754 45724 45718 45709 45699 45701 45702 45714 45720 45728 45727 45756 45769 45787 45810 45823 45850 45873 45895 45925 45929 45967 45979 45963 45941 45924 45886 45863 45851 45831 45833 45822 45825 45813 45826 45833 45843 45843 45862 45860 45894 45913 45924 45946 45978 45978 46006 46018 46059 46083 46090 46089 46074 46034 46022 45981 45961 45936 45926 45903 45905 45889 45881 45898 45900 45903 45904 45914 45925 45933 45961 45979 45996 46016 46035 46063 46072 46112 46109 46100 46074 46047 46015 45991 45964 45942 45925 45919 45917 45913 45910 45922 45915 45922 45924 45932 45950 45976 45985 45995 46020 46048 46069 46075 46064 46029 46012 45993 45958 45924 45918 45910 45891 45891 45891 45877 45898 45889 45904 45925 45923 45936 45951 45954 45973 45971 45938 45899 45861 45813 45782 45777 45763 45760 45755 45753 45766 45744 45751 45772 45770 45792 45803 45811 45811 45780 45744 45698 45652 45597 45573 45552 45538 45545 45527 45519 45531 45538 45536 45550 45566 45567 45605 45610 45624 45622 45596 45537 45490 45448 46188 46147 46128 46116 46115 46129 46128 46117 46111 46120 46131 46144 46155 46164 46159 46167 46126 46113 46058 46023 45976 45976 45952 45927 45918 45986 46010 45994 45993 45998 46007 46017 46020 46027 46043 46047 46061 46056 46027 45988 45949 45891 45852 45817 45790 45782 45756 45747 45739 45739 45726 45745 45744 45755 45757 45769 45774 45786 45751 45708 45676 45621 45565 45531 45489 45478 45452 45454 45455 45454 45465 45464 45488 45492 45482 45514 45550 45555 45589 45603 45606 45572 45546 45518 45466 45424 45379 45360 45349 45328 45327 45336 45346 45362 45365 45385 45394 45427 45449 45470 45486 45523 45540 45576 45604 45571 45553 45529 45497 45455 45431 45406 45409 45407 45401 45407 45426 45448 45459 45468 45483 45518 45539 45570 45601 45614 45645 45682 45706 45733 45719 45697 45689 45650 45631 45608 45596 45589 45590 45587 45598 45609 45623 45635 45671 45670 45688 45715 45738 45761 45789 45791 45804 45796 45767 45766 45727 45719 45711 45703 45691 45703 45693 45712 45709 45737 45740 45761 45777 45800 45813 45827 45839 45813 45796 45763 45745 45716 45687 45685 45685 45684 45690 45670 45693 45702 45716 45734 45746 45775 45785 45794 45833 45857 45857 45836 45807 45768 45736 45688 45643 45622 45617 45613 45603 45593 45597 45595 45604 45626 45640 45650 45668 45701 45710 45734 45745 45782 45801 45833 45816 45771 45746 45693 45656 45613 45593 45551 45537 45528 45526 45521 45530 45531 45544 45548 45569 45580 45589 45619 45627 45657 45681 45700 45717 45727 45721 45682 45643 45596 45548 45519 45482 45478 45462 45463 45462 45461 45452 45455 45461 45471 45505 45520 45545 45557 45594 45614 45630 45651 45641 45611 45574 45537 45493 45448 45445 45431 45420 45391 45399 45403 45412 45410 45440 45440 45455 45493 45500 45531 45555 45593 45573 45549 45511 45477 45425 45398 45395 45374 45372 45362 45364 45375 45387 45380 45406 45424 45449 45469 45479 45491 45521 45505 45474 45443 45405 45356 45343 45317 45298 45293 45298 45307 45302 45317 45325 45347 45373 45379 45410 45442 45461 45490 45522 45540 45512 45485 45452 45399 45368 45330 45312 45293 45289 45272 45276 45288 45290 45304 45316 45340 45356 45377 45404 45442 45446 45485 45510 45556 45580 45608 45621 45618 45606 45566 45541 45498 45476 45456 45450 45433 45439 45432 45438 45447 45461 45472 45485 45502 45517 45539 45559 45582 45616 45639 45659 45690 45721 45745 45729 45738 45698 45671 45650 45594 45601 45592 45586 45572 45577 45577 45580 45590 45606 45624 45643 45660 45682 45704 45736 45739 45766 45798 45806 45836 45835 45817 45797 45766 45735 45712 45694 45679 45676 45668 45654 45669 45668 45673 45696 45709 45725 45728 45741 45764 45792 45798 45813 45835 45863 45856 45808 45799 45774 45731 45693 45664 45654 45645 45634 45637 45653 45646 45653 45655 45663 45677 45684 45708 45722 45727 45742 45714 45679 45636 45611 45587 45567 45544 45545 45540 45529 45531 45536 45524 45536 45550 45566 45576 45597 45602 45579 45531 45495 45458 45420 45391 45379 45363 45343 45343 45345 45346 45356 45373 45388 45396 45424 45425 45443 45448 45434 45389 45326 45291 45246 45205 45189 45161 45136 45133 45139 45151 45150 45154 45170 45187 45202 45229 45250 45276 45290 45323 45360 45373 45411 45433 45460 45465 45443 45386 45351 45309 45275 45241 45215 45216 45200 45207 45205 45193 45205 45234 45232 45260 45267 45290 45315 45343 45366 45396 45426 45450 45468 45501 45495 45473 45463 45443 45420 45379 45370 45372 45371 45376 45371 45385 45402 45415 45428 45451 45456 45479 45504 45522 45546 45579 45610 45628 45657 45675 45664 45665 45665 45640 45621 45621 45618 45620 45619 45625 45636 45652 45663 45667 45690 45711 45729 45755 45760 45789 45810 45825 45850 45878 45899 45891 45889 45869 45856 45862 45838 45835 45835 45843 45834 45843 45846 45861 45879 45882 45913 45919 45936 45959 45969 45996 46008 46029 46048 46070 46077 46042 46041 46026 46017 45989 45989 45982 45979 45979 45966 45966 45972 45989 45996 45999 46015 46024 46034 46057 46074 46091 46106 46139 46143 46157 46189 46155 46139 46119 46092 46062 46035 46025 46023 46017 46014 46002 45989 46008 46021 46003 46003 46015 46041 46047 46056 46071 46096 46104 46119 46133 46146 46155 46123 46097 46069 46042 45990 45983 45955 45938 45925 45927 45919 45919 45918 45925 45922 45931 45946 45954 45978 45987 45989 46010 46031 46055 46051 46019 45985 45939 45910 45870 45876 45844 45829 45819 45810 45822 45808 45816 45822 45813 45835 45835 45846 45865 45883 45885 45868 45826 45803 45767 45706 45666 45638 45634 45630 45606 45599 45602 45610 45619 45612 45628 45634 45641 45671 45681 45699 45698 45678 45627 45586 45537 45482 45447 45440 45431 45404 45387 45377 45382 45395 45417 45416 45416 45455 45470 45485 45520 45534 45545 45585 45585 45560 45517 45467 45434 45382 45359 45334 45319 45313 45300 45305 45307 45313 45330 45336 45355 45382 45393 45417 45446 45479 45503 45512 45543 45558 45566 45533 45509 45492 45447 45429 45411 45422 45387 45396 45404 45396 45416 45430 45434 45440 45468 45498 45515 45534 45574 45583 45593 45619 45641 45661 45648 45645 45633 45611 45594 45593 45594 45601 45616 45626 45628 45631 45642 45658 45685 45708 45729 45732 45762 45791 45804 45832 45814 45810 45785 45781 45760 45762 45766 45775 45758 45772 45792 45798 45802 45829 45841 45852 45854 45889 45917 45927 45952 45972 46003 46016 46024 46027 46024 46125 46146 46163 46170 46166 46152 46137 46127 46105 46099 46087 46069 46090 46083 46075 46079 46080 46081 46084 46106 46109 46130 46140 46145 46159 46172 46199 46206 46207 46204 46181 46179 46148 46116 46085 46058 46049 46048 46040 46029 46011 46024 46023 46030 46036 46045 46054 46046 46065 46069 46067 46053 46014 45981 45944 45899 45896 45853 45833 45814 45814 45801 45792 45792 45790 45784 45794 45796 45810 45825 45814 45769 45732 45681 45622 45580 45535 45511 45487 45481 45469 45451 45447 45449 45469 45456 45484 45487 45501 45522 45536 45550 45588 45616 45628 45616 45586 45546 45486 45439 45384 45354 45318 45305 45279 45290 45285 45273 45276 45288 45292 45306 45320 45351 45366 45388 45428 45440 45469 45497 45516 45530 45524 45492 45478 45434 45397 45366 45361 45352 45351 45340 45339 45341 45350 45368 45376 45387 45407 45443 45462 45478 45506 45532 45550 45588 45622 45657 45666 45689 45667 45665 45629 45606 45584 45590 45563 45557 45554 45564 45565 45564 45578 45608 45624 45636 45666 45663 45697 45706 45742 45760 45776 45802 45833 45852 45858 45852 45844 45822 45795 45779 45778 45771 45782 45773 45778 45781 45787 45807 45818 45828 45848 45853 45869 45894 45911 45946 45960 45966 45961 45942 45927 45923 45901 45873 45868 45859 45848 45860 45875 45878 45887 45897 45898 45911 45932 45933 45960 45988 45977 45949 45928 45896 45881 45852 45845 45816 45806 45806 45792 45794 45796 45797 45805 45824 45825 45845 45860 45854 45815 45767 45745 45694 45649 45620 45597 45568 45552 45543 45536 45535 45525 45531 45537 45556 45556 45559 45585 45575 45553 45523 45464 45405 45341 45287 45232 45214 45191 45175 45150 45133 45130 45151 45140 45159 45171 45183 45204 45216 45243 45269 45291 45304 45275 45241 45186 45130 45058 45002 44959 44925 44906 44886 44868 44874 44879 44876 44885 44915 44919 44948 44973 45002 45031 45052 45083 45118 45157 45167 45174 45163 45126 45078 45046 44990 44957 44941 44916 44903 44915 44909 44928 44941 44964 44962 44986 45267 45276 45291 45304 45284 45224 45172 45105 45050 44999 44961 44945 44920 44927 44908 44905 44901 44895 44919 44922 44941 44966 44973 44999 45016 45074 45054 45015 44990 44942 44912 44899 44881 44860 44868 44889 44897 44908 44937 44951 44962 44991 45009 45054 45091 45086 45050 45027 44987 44944 44905 44898 44882 44875 44880 44881 44898 44907 44920 44945 44973 45008 45041 45052 45097 45132 45154 45188 45238 45268 45311 45301 45305 45292 45270 45237 45209 45185 45187 45207 45196 45205 45213 45230 45239 45260 45275 45291 45334 45354 45379 45412 45452 45475 45508 45538 45572 45605 45651 45673 45682 45721 45718 45712 45709 45706 45691 45684 45678 45697 45704 45699 45722 45738 45756 45759 45777 45815 45822 45839 45866 45883 45905 45924 45960 45975 46005 46017 46040 46048 46056 46057 46058 46053 46057 46040 46061 46050 46059 46070 46074 46083 46077 46082 46100 46125 46128 46152 46164 46178 46188 46207 46230 46239 46271 46283 46288 46278 46265 46261 46254 46235 46219 46223 46217 46216 46217 46213 46203 46226 46219 46239 46254 46264 46279 46277 46292 46306 46329 46333 46358 46365 46383 46392 46388 46375 46349 46324 46297 46263 46248 46236 46222 46219 46199 46187 46194 46182 46174 46190 46197 46194 46210 46205 46218 46231 46260 46270 46278 46297 46307 46302 46278 46248 46217 46185 46128 46098 46049 46035 46014 46004 45986 45992 45962 45963 45974 45969 45982 45985 45986 45991 46024 46018 46034 46047 46070 46072 46100 46085 46062 46031 45985 45944 45884 45860 45816 45802 45778 45749 45740 45742 45750 45733 45745 45747 45745 45739 45768 45777 45800 45818 45830 45851 45889 45894 45881 45837 45790 45752 45716 45661 45640 45622 45598 45570 45560 45553 45561 45562 45571 45569 45585 45585 45606 45630 45642 45661 45677 45674 45629 45600 45552 45511 45474 45463 45455 45434 45418 45426 45421 45427 45437 45452 45468 45469 45489 45504 45519 45532 45506 45466 45437 45382 45339 45307 45297 45280 45269 45274 45274 45279 45303 45305 45308 45336 45338 45367 45387 45424 45451 45445 45414 45385 45346 45303 45271 45223 45201 45194 45172 45168 45166 45173 45197 45200 45223 45234 45263 45281 45310 45341 45361 45390 45427 45454 45455 45424 45404 45373 45333 45295 45252 45232 45216 45216 45206 45208 45221 45222 45230 45241 45267 45262 45286 45306 45345 45356 45368 45338 45316 45296 45256 45234 45203 45218 45203 45201 45211 45205 45233 45233 45250 45252 45280 45307 45330 45353 45355 45333 45306 45279 45250 45231 45198 45185 45195 45180 45196 45214 45199 45218 45251 45262 45276 45313 45318 45352 45367 45342 45330 45304 45260 45209 45197 45166 45158 45156 45153 45158 45175 45191 45182 45213 45246 45255 45275 45298 45330 45365 45371 45406 45446 45465 45472 45447 45444 45397 45357 45311 45292 45280 45286 45280 45273 45278 45285 45295 45304 45318 45350 45357 45386 45416 45439 45447 45496 45513 45540 45583 45604 45641 45671 45700 45719 45718 45716 45695 45686 45674 45646 45631 45617 45608 45604 45624 45628 45629 45652 45654 45666 45687 45700 45711 45741 45749 45772 45803 45817 45832 45861 45883 45911 45944 45952 45929 45929 45914 45899 45879 45868 45862 45855 45863 45861 45867 45869 45897 45894 45915 45917 45935 45954 45972 45985 46002 46027 46030 46059 46082 46082 46079 46072 46060 46033 46029 46019 46003 46014 46013 46003 46011 46017 46018 46029 46035 46052 46065 46080 46080 46100 46117 46124 46131 46130 46103 46083 46055 46026 46009 45995 45969 45967 45966 45959 45971 45952 45964 45977 45978 45989 45994 46009 46035 46022 46049 46054 46077 46104 46127 46115 46100 46067 46035 45988 45947 45908 45871 45859 45831 45812 45794 45792 45793 45786 45799 45821 45820 45803 45831 45839 45847 45868 45890 45905 45911 45951 45927 45914 45872 45840 45793 45734 45678 45672 45639 45627 45609 45599 45595 45582 45593 45617 45626 45617 45622 45647 45662 45677 45687 45702 45673 45625 45565 45541 45487 45472 45446 45439 45423 45413 45421 45409 45406 45419 45448 45451 45477 45483 45507 45509 45488 45454 45419 45368 45319 45281 45268 45263 45242 45240 45252 45250 45264 45263 45283 45299 45318 45351 45370 45400 45429 45419 45385 45349 45304 45255 45212 45186 45167 45137 45144 45130 45151 45159 45152 45176 45212 45222 45242 45272 45281 45320 45354 45384 45413 45451 45465 45439 45417 45378 45337 45293 45271 45266 45245 45243 45237 45230 45246 45264 45278 45294 45308 45320 45349 45375 45404 45446 45453 45495 45510 45552 45575 45602 45606 45620 45585 45577 45541 45523 45497 45500 45497 45497 45484 45485 45497 45522 45519 45542 45557 45571 45605 45616 45643 45667 45680 45708 45742 45732 45729 45716 45712 45689 45650 45659 45654 45659 45658 45658 45670 45663 45697 45695 45726 45738 45755 45777 45794 45815 45830 45858 45873 45884 45851 45842 45810 45786 45775 45754 45750 45750 45755 45758 45745 45752 45758 45769 45782 45789 45809 45833 45845 45868 45890 45914 45920 45950 45970 46000 46001 45982 45961 45951 45924 45903 45862 45847 45816 45839 45826 45798 45816 45811 45816 45816 45824 45835 45851 45869 45886 45898 45905 45926 45942 45958 46000 46014 46025 46025 45990 45961 45953 45923 45882 45860 45847 45836 45826 45819 45809 45810 45814 45808 45820 45829 45840 45853 45870 45872 45897 45896 45923 45949 45968 45986 45972 45937 45908 45871 45840 45802 45785 45766 45746 45741 45725 45729 45730 45733 45739 45740 45744 45772 45772 45777 45811 45815 45838 45870 45891 45893 45892 45870 45828 45790 45760 45722 45670 45663 45643 45642 45621 45606 45627 45624 45619 45615 45626 45644 45650 45679 45696 45717 45732 45749 45764 45757 45734 45702 45678 45626 45593 45568 45548 45535 45525 45524 45521 45512 45517 45520 45539 45532 45547 45551 45575 45606 45601 45597 45574 45555 45492 45452 45422 45403 45378 45365 45361 45363 45338 45353 45360 45372 45373 45383 45406 45423 45436 45452 45457 45435 45388 45354 45328 45267 45234 45213 45182 45187 45185 45185 45186 45174 45192 45213 45216 45250 45257 45274 45293 45325 45356 45393 45411 45436 45469 45466 45442 45414 45370 45348 45307 45267 45238 45233 45206 45197 45207 45205 45202 45227 45237 45235 45253 45277 45311 45330 45352 45370 45410 45435 45467 45472 45465 45435 45408 45368 45332 45305 45277 45271 45261 45253 45264 45283 45278 45291 45307 45322 45335 45365 45381 45410 45426 45455 45474 45493 45521 45559 45546 45537 45529 45514 45479 45445 45427 45418 45412 45418 45405 45408 45418 45427 45458 45459 45483 45488 45502 45523 45551 45575 45614 45632 45658 45669 45684 45691 45658 45639 45598 45595 45575 45573 45565 45561 45544 45553 45561 45565 45586 45610 45612 45637 45634 45665 45678 45695 45716 45750 45762 45783 45795 45820 45814 45792 45763 45740 45717 45702 45688 45698 45689 45680 45677 45672 45697 45705 45707 45730 45732 45750 45761 45800 45808 45817 45837 45853 45830 45827 45793 45774 45748 45739 45733 45721 45701 45712 45715 45717 45715 45718 45713 45729 45737 45743 45753 45743 45718 45671 45630 45598 45563 45537 45512 45509 45476 45475 45461 45460 45456 45475 45473 45492 45503 45504 45483 45446 45407 45342 45299 45246 45208 45166 45162 45138 45138 45135 45130 45117 45121 45130 45133 45128 45153 45164 45198 45206 45245 45275 45355 45463 45578 45698 45793 45882 45965 46019 46040 46070 46111 46117 46161 46176 46211 46242 46256 46291 46315 46323 46305 46277 46234 46193 46169 46154 46161 46163 46155 46148 46159 46175 46191 46214 46231 46254 46281 46297 46290 46268 46266 46286 46299 46337 46359 46403 46425 46467 46475 46495 46523 46527 46539 46553 45164 45159 45182 45204 45229 45257 45291 45317 45357 45393 45403 45417 45414 45415 45408 45411 45424 45421 45437 45457 45481 45504 45518 45533 45561 45667 45721 45759 45799 45832 45853 45861 45860 45870 45866 45864 45875 45892 45897 45924 45938 45956 45974 46002 46016 46041 46048 46072 46099 46130 46147 46168 46182 46180 46188 46186 46175 46187 46186 46193 46206 46209 46210 46217 46229 46259 46256 46274 46278 46298 46324 46338 46360 46373 46402 46414 46428 46445 46454 46457 46445 46425 46424 46407 46391 46383 46376 46380 46387 46383 46379 46373 46385 46401 46396 46410 46430 46435 46440 46463 46474 46491 46501 46511 46515 46478 46466 46445 46426 46381 46366 46360 46342 46337 46337 46323 46331 46322 46343 46343 46341 46341 46364 46381 46387 46375 46347 46305 46285 46235 46191 46159 46153 46141 46111 46105 46098 46084 46092 46106 46114 46114 46121 46140 46143 46151 46158 46115 46052 46010 45961 45906 45883 45847 45828 45811 45809 45802 45795 45793 45805 45807 45833 45845 45842 45872 45887 45901 45909 45940 45953 45950 45891 45847 45796 45737 45679 45637 45620 45611 45587 45590 45580 45579 45587 45590 45602 45626 45646 45657 45676 45699 45719 45751 45772 45798 45832 45867 45882 45904 45882 45866 45806 45765 45733 45696 45680 45655 45649 45641 45634 45645 45630 45648 45665 45664 45690 45706 45717 45740 45773 45788 45807 45845 45855 45881 45916 45916 45906 45878 45855 45821 45778 45758 45748 45731 45736 45734 45734 45747 45741 45742 45783 45785 45811 45868 45948 46010 46099 46192 46272 46343 46441 46494 46536 46600 46634 46671 46724 46783 46822 46874 46933 46954 46991 47011 47061 47097 47141 47146 47132 47124 47150 47158 47170 47155 47182 47198 47205 47213 47210 47230 47230 47249 47273 47291 47308 47309 47320 47333 47343 47355 47358 47355 47333 47324 47334 47323 47275 47249 47220 47194 47167 47146 47123 47084 47078 47070 47048 47022 47017 47004 46996 46962 46878 46794 46710 46600 46524 46421 46370 46318 46262 46250 46210 46173 46150 46148 46130 46138 46125 46088 46035 45931 45819 45728 45612 45503 45439 45388 45342 45304 45282 45260 45243 45231 45247 45256 45259 45253 45270 45305 45329 45358 45381 45396 45354 45293 45229 45158 45070 45000 44956 44935 44910 44900 44904 44915 44923 44939 44978 45003 45037 45064 45100 45130 45145 45190 45225 45263 45313 45359 45417 45433 45451 45443 45432 45441 45430 45447 45453 45477 45496 45511 45533 45570 45606 45616 45649 45684 45704 45717 45740 45762 45797 45794 45797 45780 45790 45772 45762 45766 45776 45778 45775 45806 45814 45824 45860 45869 45884 45913 45945 45947 45964 45993 46029 46058 46077 46100 46114 46129 46108 46113 46105 46104 46092 46089 46098 46102 46102 46108 46121 46134 46153 46160 46172 46193 46216 46223 46228 46267 46284 46302 46307 46336 46365 46359 46346 46331 46335 46307 46282 46270 46253 46260 46252 46238 46247 46240 46242 46248 46255 46265 46270 46267 46288 46299 46314 46329 46335 46362 46387 46372 46364 46331 46292 46255 46224 46173 46164 46146 46140 46107 46100 46091 46080 46091 46089 46092 46096 46099 46117 46127 46137 46152 46155 46111 46068 46031 45978 45932 45889 45870 45861 45839 45823 45819 45810 45814 45838 45834 45842 45869 45870 45879 45870 45830 45772 45711 45665 45613 45563 45544 45522 45507 45502 45514 45508 45525 45527 45540 45556 45554 45584 45614 45629 45666 45679 45696 45660 45607 45553 45490 45436 45390 45355 45339 45318 45309 45310 45307 45312 45315 45318 45345 45374 45387 45407 45445 45471 45503 45534 45563 45586 45587 45566 45529 45494 45461 45417 45403 45368 45373 45371 45361 45383 45398 45397 45409 45424 45447 45467 45499 45528 45561 45602 45631 45648 45710 45726 45738 45723 45724 45706 45689 45663 45675 45659 45679 45676 45679 45706 45720 45747 45783 45786 45803 45820 45855 45882 45904 45950 45968 45969 45965 45953 45952 45939 45920 45944 45945 45947 45945 45965 45978 45988 46007 46016 46043 46060 46081 46090 46112 46114 46106 46099 46072 46064 46038 46048 46050 46047 46053 46058 46051 46071 46078 46095 46110 46115 46148 46171 46169 46175 46144 46126 46095 46069 46052 46032 46012 46011 46002 46001 45998 45998 46006 46004 46022 46040 46054 46067 46074 46111 46134 46143 46160 46169 46156 46128 46088 46046 46012 45968 45942 45916 45894 45886 45868 45863 45871 45868 45865 45875 45882 45898 45903 45924 45932 45968 45982 45994 45990 45970 45920 45887 45828 45784 45748 45717 45694 45674 45660 45648 45634 45655 45651 45652 45661 45666 45700 45698 45728 45742 45777 45787 45800 45834 45855 45856 45830 45792 45744 45706 45672 45613 45591 45576 45559 45531 45550 45554 45536 45556 45555 45580 45593 45612 45634 45651 45663 45690 45720 45745 45738 45722 45682 45654 45623 45587 45568 45548 45548 45544 45518 45540 45540 45560 45575 45580 45614 45622 45639 45657 45681 45680 45652 45615 45572 45542 45528 45499 45494 45480 45497 45494 45489 45490 45518 45518 45528 45548 45570 45603 45624 45648 45659 45649 45616 45586 45549 45515 45471 45455 45446 45443 45432 45439 45432 45437 45460 45474 45488 45519 45518 45551 45573 45598 45626 45653 45692 45715 45738 45731 45702 45666 45618 45576 45547 45519 45511 45493 45481 45469 45479 45496 45502 45516 45523 45544 45553 45577 45601 45626 45659 45681 45709 45735 45755 45754 45744 45699 45673 45631 45590 45562 45540 45550 45525 45523 45535 45522 45541 45532 45555 45573 45589 45608 45628 45653 45680 45702 45722 45742 45748 45714 45685 45659 45633 45606 45591 45568 45560 45567 45560 45551 45572 45586 45605 45609 45622 45643 45644 45675 45691 45694 45706 45677 45645 45609 45576 45549 45537 45530 45514 45511 45508 45521 45529 45535 45539 45560 45570 45587 45610 45605 45592 45562 45530 45490 45444 45415 45396 45375 45371 45373 45380 45378 45387 45398 45418 45433 45441 45476 45484 45510 45520 45489 45446 45399 45362 45323 45300 45288 45284 45279 45266 45283 45285 45282 45308 45315 45338 45351 45378 45402 45429 45468 45487 45518 45553 45571 45537 45531 45491 45459 45402 45364 45350 45340 45330 45330 45329 45339 45346 45361 45358 45360 45381 45435 45439 45465 45497 45517 45530 45563 45596 45631 45667 45675 45668 45645 45629 45587 45560 45529 45519 45514 45505 45499 45502 45506 45506 45533 45557 45567 45586 45601 45631 45653 45671 45708 45727 45762 45774 45800 45809 45795 45773 45758 45748 45731 45726 45717 45719 45719 45723 45729 45734 45766 45761 45778 45793 45815 45840 45855 45868 45899 45920 45941 45980 45984 45974 45970 45954 45941 45923 45909 45913 45910 45912 45913 45929 45930 45934 45942 45958 45965 45987 46007 46019 46036 46046 46063 46071 46073 46079 46056 46036 46039 46029 46022 46030 46005 46021 46014 46033 46049 46035 46041 46051 46077 46088 46097 46108 46106 46109 46081 46054 46039 46026 46001 46004 45993 45981 45973 45982 45979 45988 46001 46006 46021 46027 46039 46049 46069 46069 46094 46107 46079 46066 46046 46003 45973 45925 45923 45899 45884 45874 45860 45856 45857 45853 45861 45864 45866 45857 45873 45903 45914 45931 45943 45978 45959 45932 45894 45852 45812 45772 45723 45709 45703 45694 45667 45653 45661 45661 45654 45663 45670 45660 45699 45704 45714 45724 45758 45765 45806 45798 45789 45765 45730 45711 45659 45621 45595 45604 45584 45571 45571 45576 45567 45589 45579 45591 45602 45615 45619 45648 45662 45677 45664 45669 45629 45601 45561 45544 45521 45528 45523 45527 45508 45512 45532 45535 45544 45556 45592 45603 45627 45656 45678 45698 45696 45712 45682 45664 45629 45603 45595 45585 45559 45562 45568 45580 45551 45501 45416 45338 45248 45156 45068 45012 44969 44914 44886 44840 44824 44793 44802 44798 44805 44806 44819 44853 44870 44891 44928 44929 45031 45026 44979 44888 44839 44758 44693 44666 44646 44625 44616 44609 44626 44614 44642 44665 44687 44710 44743 44782 44794 44838 44866 44856 44812 44777 44719 44677 44653 44626 44617 44615 44621 44636 44641 44674 44691 44729 44750 44793 44828 44861 44898 44923 44930 44903 44874 44842 44805 44776 44783 44785 44794 44804 44835 44856 44886 44911 44943 44978 45010 45047 45099 45129 45158 45159 45154 45145 45137 45135 45136 45142 45158 45175 45202 45225 45250 45272 45308 45341 45367 45419 45439 45479 45513 45548 45586 45620 45633 45649 45662 45651 45661 45675 45670 45694 45716 45715 45751 45767 45781 45815 45842 45855 45892 45913 45941 45974 46009 46031 46060 46078 46112 46139 46155 46167 46185 46205 46216 46243 46281 46305 46361 46381 46412 46446 46478 46518 46572 46631 46692 46763 46824 46906 46971 47028 47066 47124 47135 47178 47201 47215 47235 47255 47276 47289 47336 47338 47354 47372 47392 47412 47436 47439 47459 47457 47473 47495 47483 47481 47498 47493 47500 47495 47506 47510 47521 47536 47538 47558 47572 47582 47591 47601 47614 47620 47634 47644 47659 47641 47644 47641 47632 47624 47614 47613 47613 47609 47618 47623 47632 47644 47633 47648 47674 47659 47673 47679 47679 47700 47682 47663 47664 47640 47618 47584 47569 47579 47569 47575 47559 47562 47556 47563 47550 47565 47585 47591 47603 47613 47601 47637 47633 47634 47602 47577 47558 47541 47516 47504 47500 47514 47507 47514 47517 47521 47524 47536 47546 47545 47568 47569 47580 47591 47591 47586 47556 47513 47486 47443 47407 47392 47369 47372 47358 47333 47341 47334 47341 47345 47363 47369 47384 47413 47409 47387 47358 47333 47312 47288 47261 47253 47238 47238 47251 47267 47268 47265 47290 47317 47315 47336 47334 47346 47328 47291 47260 47240 47205 47195 47186 47194 47198 47201 47213 47218 47230 47251 47259 47276 47297 47290 47288 47249 47216 47199 47161 47154 47142 47133 47140 47147 47166 47158 47175 47194 47208 47232 47237 47239 47217 47172 47142 47118 47074 47059 47053 47040 47060 47046 47049 47069 47080 47106 47117 47133 47144 47164 47186 47210 47240 47255 47275 47286 47305 47320 47293 47284 47251 47203 47182 47157 47145 47142 47123 47128 47114 47132 47127 47126 47162 47157 47187 47174 47205 47217 47221 47230 47267 47275 47247 47216 47169 47119 47093 47047 47029 47017 47003 46989 46995 46986 46991 46991 47004 47004 47015 47021 47037 47038 47076 47096 47108 47103 47060 47024 46964 46906 46863 46819 46766 46749 46739 46731 46718 46718 46722 46714 46713 46732 46737 46742 46769 46779 46812 46829 46865 46875 46895 46919 46938 46938 46910 46834 46785 46713 46649 46605 46571 46536 46502 46460 46438 46421 46387 46390 46355 46356 46337 46339 46339 46333 46354 46354 46377 46392 46401 46403 46389 46329 46241 46163 46089 46010 45944 45903 45859 45829 45792 45778 45751 45737 45734 45743 45754 45770 45762 45777 45794 45813 45846 45847 45859 45896 45931 45916 45885 45811 45741 45694 45623 45580 45546 45520 45498 45485 45484 45489 45488 45498 45494 45507 45529 45552 45553 45585 45612 45651 45673 45701 45688 45654 45595 45538 45497 45443 45408 45379 45374 45358 45369 45352 45368 45380 45398 45413 45424 45452 45471 45485 45495 45470 45401 45342 45293 45228 45190 45184 45167 45160 45157 45170 45157 45186 45213 45218 45235 45266 45295 45326 45330 45293 45227 45181 45101 45061 45022 45000 44996 44997 44998 45015 45051 45085 45085 45130 45155 45181 45223 45251 45280 45315 45342 45319 45259 45228 45164 45108 45065 45039 45020 45024 45020 45023 45020 45044 45063 45074 45098 45130 45158 45187 45207 45251 45286 45270 45228 45178 45122 45090 45035 45018 45022 45000 44996 45018 45030 45047 45069 45085 45114 45151 45166 45204 45235 45260 45294 45282 45253 45215 45180 45136 45120 45119 45113 45113 45122 45124 45152 45165 45196 45210 45233 45270 45297 45304 45339 45322 45306 45281 45253 45205 45191 45179 45174 45182 45191 45199 45231 45252 45259 45293 45320 45345 45376 45414 45456 45465 45462 45436 45423 45403 45378 45376 45369 45384 45379 45390 45402 45434 45441 45477 45502 45517 45552 45579 45619 45656 45677 45718 45755 45794 45823 45852 45882 45916 45912 45908 45890 45897 45889 45904 45945 45956 45987 46021 46042 46068 46076 46097 46094 46058 46029 46002 45978 45974 45981 45955 45926 45883 45840 45806 45774 45756 45750 45741 45757 45773 45780 45791 45832 45864 45897 45929 45955 45985 45990 45998 45975 45948 45934 45895 45843 45841 45814 45808 45797 45822 45824 45823 45831 45835 45860 45869 45878 45898 45923 45948 45950 45940 45904 45896 45873 45849 45852 45860 45892 45935 45986 46063 46134 46219 46269 46323 46380 46419 46485 46534 46579 46621 46625 46647 46671 46686 46715 46717 46726 46749 46762 46763 46761 46758 46731 46744 46735 46728 46722 46727 46739 46729 46743 46752 46761 46758 46758 46767 46738 46752 46745 46780 46830 46919 46933 46942 47016 47101 47154 47181 47192 47221 47238 47224 47235 47228 47227 47224 47220 47240 47249 47247 47278 47268 47253 47248 47236 47232 47225 47242 47253 47252 47221 47202 47132 47056 46998 46968 46955 46927 46912 46914 46891 46878 46877 46883 46876 46852 46807 46760 46698 46655 46609 46598 46567 46558 46543 46532 46530 46522 46522 46527 46509 46530 46553 46500 46462 46411 46353 46315 46298 46269 46251 46236 46230 46240 46233 46229 46246 46259 46285 46290 46316 46329 46350 46347 46325 46279 46237 46205 46198 46177 46178 46179 46175 46180 46192 46198 46220 46228 46259 46280 46307 46329 46368 46366 46369 46351 46352 46332 46336 46335 46361 46367 46386 46398 46431 46446 46481 46509 46517 46537 46572 46604 46639 46652 46655 46666 46664 46673 46679 46688 46711 46724 46727 46740 46772 46778 46802 46824 46841 46871 46886 46901 46929 46952 46949 46980 46998 47019 47021 47010 47026 47033 47037 47046 47051 47066 47070 47084 47092 47114 47138 47142 47141 47176 47199 47194 47208 47220 47250 47246 47260 47252 47240 47260 47244 47260 47250 47243 47251 47250 47257 47260 47268 47272 47290 47298 47315 47324 47324 47325 47336 47350 47366 47361 47382 47376 47365 47338 47347 47321 47302 47291 47301 47289 47285 47281 47282 47274 47271 47287 47268 47291 47290 47298 47303 47312 47326 47317 47340 47361 47347 47322 47271 47255 47234 47214 47193 47176 47171 47168 47152 47134 47149 47146 47166 47154 47169 47165 47176 47181 47179 47198 47214 47202 47176 47143 47099 47061 47027 47005 46985 46979 46973 46954 46941 46940 46952 46940 46948 46940 46950 46966 46971 46978 46997 46994 47003 47005 46959 46891 46846 46810 46765 46743 46728 46702 46682 46675 46673 46673 46668 46662 46682 46670 46692 46685 46697 46710 46725 46724 46748 46744 46682 46613 46571 46533 46495 46461 46432 46412 46396 46370 46377 46363 46370 46375 46374 46372 46391 46382 46402 46408 46422 46439 46422 46360 46298 46242 46192 46158 46135 46110 46102 46076 46077 46056 46055 46053 46060 46073 46077 46078 46099 46109 46125 46068 46018 45945 45898 45831 45801 45770 45750 45723 45726 45693 45702 45703 45704 45708 45709 45734 45719 45739 45738 45698 45610 45541 45475 45434 45379 45359 45322 45303 45293 45294 45284 45280 45305 45297 45305 45322 45334 45359 45363 45318 45255 45185 45134 45064 45020 44991 44983 44958 44976 44759 44743 44724 44719 44712 44698 44689 44686 44686 44691 44687 44681 44700 44710 44706 44730 44734 44748 44741 44756 44749 44753 44754 44736 44722 44779 44772 44761 44756 44745 44751 44751 44751 44743 44747 44746 44749 44754 44770 44780 44795 44791 44808 44818 44818 44818 44790 44767 44745 44715 44684 44676 44681 44677 44663 44672 44667 44672 44671 44694 44705 44696 44714 44714 44740 44758 44768 44778 44796 44775 44788 44762 44758 44737 44733 44743 44758 44748 44757 44760 44783 44802 44813 44832 44842 44877 44889 44903 44924 44928 44946 44954 44966 44959 44954 44966 44956 44966 44972 44986 44982 45002 45005 45043 45048 45057 45084 45099 45104 45110 45126 45147 45155 45176 45189 45206 45218 45218 45225 45211 45221 45226 45228 45248 45270 45263 45280 45287 45292 45310 45336 45335 45346 45360 45372 45388 45394 45404 45425 45414 45412 45415 45430 45422 45425 45432 45432 45441 45446 45454 45456 45470 45473 45490 45493 45493 45498 45510 45521 45533 45524 45516 45519 45510 45499 45501 45511 45489 45500 45492 45500 45510 45508 45519 45517 45527 45526 45522 45550 45537 45516 45514 45501 45490 45472 45459 45472 45469 45471 45466 45482 45467 45473 45469 45473 45467 45497 45489 45503 45513 45512 45517 45501 45495 45482 45470 45462 45455 45448 45459 45459 45466 45480 45497 45496 45521 45524 45536 45549 45555 45556 45573 45577 45584 45605 45623 45627 45634 45644 45641 45632 45627 45632 45624 45638 45647 45655 45653 45661 45670 45670 45690 45701 45706 45730 45739 45747 45762 45779 45775 45780 45791 45805 45815 45802 45812 45809 45809 45818 45831 45833 45837 45851 45848 45865 45884 45885 45894 45902 45901 45916 45915 45936 45942 45964 45960 45961 45970 45983 45968 45986 45974 45987 45991 45997 45984 46013 46015 46014 46011 46007 46015 46010 46025 46030 46015 46027 46043 46048 46063 46056 46065 46071 46084 46084 46073 46070 46060 46064 46044 46056 46039 46040 46027 46030 46021 46042 46040 46027 46032 46028 46036 46028 46030 46049 46041 46042 46046 46061 46056 46047 46040 46028 46017 45996 45982 45985 45981 45976 45976 45979 45968 45984 45968 45963 45977 45971 45981 45976 45996 45988 45993 46007 46014 46012 46001 45997 45993 45969 45940 45940 45940 45930 45921 45937 45931 45925 45921 45941 45942 45946 45949 45954 45955 45955 45959 45964 45975 45971 45979 45969 45964 45966 45942 45964 45961 45968 45966 45964 45967 45973 45981 45989 45997 46004 46011 46014 46024 46020 46032 46043 46058 46068 46057 46048 46060 46048 46051 46054 46062 46063 46062 46089 46101 46093 46099 46100 46104 46128 46113 46133 46138 46148 46166 46173 46162 46173 46162 46161 46171 46157 46150 46164 46159 46158 46166 46170 46170 46184 46183 46186 46202 46216 46204 46212 46211 46219 46236 46242 46237 46218 46227 46213 46206 46193 46205 46188 46190 46179 46188 46180 46197 46198 46189 46199 46198 46200 46193 46210 46209 46220 46199 46191 46195 46192 46181 46180 46174 46169 46182 46184 46167 46155 46172 46178 46170 46170 46175 46187 46191 46197 46206 46198 46200 46207 46186 46192 46166 46188 46187 46177 46175 46170 46177 46189 46166 46168 46178 46189 46186 46197 46200 46200 46194 46197 46189 46185 46166 46151 46139 46132 46108 46105 46101 46102 46093 46105 46104 46099 46102 46090 46090 46096 46089 46102 46112 46116 46128 46124 46111 46112 46100 46092 46070 46066 46053 46040 46041 46044 46022 46018 46017 46017 46026 46024 46031 46030 46036 46039 46040 46062 46067 46066 46065 46062 46049 46044 46030 46020 46015 46005 46004 46003 45996 46011 45988 46005 46005 46004 46013 46009 45998 46014 46034 46021 46031 46032 46030 46009 46009 45983 45983 45964 45955 45953 45953 45935 45939 45926 45928 45916 45928 45949 45939 45937 45940 45954 45971 45955 45961 45977 45985 45980 45966 45947 45931 45913 45915 45901 45912 45908 45909 45890 45889 45898 45900 45913 45904 45911 45910 45917 45923 45946 45948 45955 45956 45957 45962 45956 45941 45921 45919 45909 45901 45915 45909 45909 45914 45916 45906 45908 45920 45925 45934 45952 45961 45948 45958 45974 45987 45998 45990 45978 45963 45973 45959 45964 45973 45971 45969 45975 45974 45973 45989 46004 45989 45997 46006 46009 46033 46020 46030 46032 46039 46027 46032 46006 46015 46028 46014 45996 46011 46014 46014 46003 46012 46006 46000 46010 46010 45999 46023 46026 46019 46019 46008 45996 45988 45972 45975 45953 45945 45938 45948 45952 45939 45953 45958 45952 45969 45955 45972 45974 45983 45974 45981 45979 45973 45956 45935 45931 45919 45903 45904 45888 45889 45878 45879 45882 45900 45904 45901 45891 45895 45904 45910 45897 45916 45933 45933 45930 45926 45902 45895 45885 45878 45850 45850 45843 45838 45831 45823 45817 45819 45805 45821 45817 45828 45829 45826 45832 45844 45865 45867 45869 45853 45855 45841 45819 45808 45785 45781 45774 45766 45767 45763 45761 45744 45756 45778 45767 45780 45783 45789 45787 45790 45807 45814 45807 45788 45780 45768 45759 45738 45738 45730 45719 45722 45720 45703 45710 45717 45714 45726 45725 45733 45739 45746 45768 45749 45734 45733 45714 45697 45692 45693 45659 45663 45659 45660 45657 45654 45674 45685 45684 45696 45693 45704 45702 45720 45714 45707 45684 45690 45659 45647 45634 45635 45645 45645 45627 45628 45630 45628 45635 45644 45640 45653 45651 45674 45670 45689 45682 45679 45650 45632 45628 45615 45603 45607 45598 45597 45594 45591 45602 45607 45613 45617 45626 45631 45629 45630 45653 45653 45650 45655 45634 45619 45615 45592 45596 45583 45603 45594 45596 45598 45599 45604 45611 45624 45602 45624 45630 45644 45637 45650 45652 45637 45641 45621 45608 45602 45590 45597 45583 45577 45579 45567 45576 45585 45573 45577 45587 45603 45612 45605 45612 45591 45584 45578 45557 45546 45533 45525 45535 45540 45534 45547 45557 45544 45550 45548 45556 45560 45572 45571 45573 45561 45538 45513 45493 45478 45461 45459 45455 45461 45453 45451 45461 45442 45441 45456 45448 45455 45475 45463 45473 45470 45445 45412 45388 45366 45339 45322 45318 45287 45297 45292 45279 45281 45293 45291 45273 45284 45292 45305 45303 45310 45334 45341 45343 45325 45303 45274 45255 45225 45206 45187 45186 45177 45181 45178 45179 45171 45172 45164 45175 45193 45205 45206 45219 45225 45244 45258 45264 45261 45218 45187 45171 45142 45138 45140 45137 45130 45131 45115 45129 45123 45131 45153 45170 45189 45202 45211 45229 45252 45256 45263 45282 45286 45283 45265 45243 45228 45224 45217 45231 45228 45233 45242 45256 45252 45284 45281 45273 45302 45328 45334 45361 45365 45394 45397 45374 45370 45379 45370 45360 45351 45359 45350 45351 45373 45365 45366 45389 45392 45403 45415 45431 45440 45460 45476 45464 45460 45447 45444 45425 45428 45418 45398 45404 45427 45417 45420 45418 45438 45450 45452 45437 45461 45460 45480 45486 45465 45464 45445 45433 45411 45392 45390 45391 45381 45384 45376 45384 45380 45382 45392 45391 45390 45403 45407 45411 45383 45353 45338 45305 45297 45269 45284 45264 45268 45242 45244 45253 45262 45255 45244 45261 45259 45260 45266 45244 45205 45186 45159 45132 45104 45104 45088 45067 45080 45067 45083 45074 45064 45065 45068 45082 45080 45063 45025 45003 44972 44938 44928 44901 44890 44890 44886 44876 44882 44882 44898 44894 44897 44919 44905 44900 44891 44843 44821 44790 44762 44756 44748 44746 44742 44746 44735 44753 44768 44763 44772 44786 44806 44803 44838 44841 44858 44871 44891 44903 44894 44880 44858 44841 44818 44795 44774 44769 44774 44780 44772 44773 44772 44790 44811 44821 44830 44838 44851 44864 44889 44912 39733 39640 39901 40312 40615 40836 41034 41171 41281 41363 41455 41527 41594 41672 41740 41831 41899 41977 42064 42148 42209 42280 42327 42384 42441 42584 42643 42691 42740 42794 42840 42885 42932 42956 43001 43032 43054 43108 43145 43172 43202 43241 43272 43296 43337 43342 43375 43436 43500 43550 43583 43635 43655 43690 43702 43701 43728 43754 43768 43781 43803 43811 43814 43819 43845 43884 43918 43964 44014 44022 44015 44006 43974 43954 43957 43958 43955 43950 43940 43970 43973 43955 43978 43972 43967 43953 43927 43902 43878 43851 43824 43829 43812 43790 43789 43786 43782 43768 43774 43748 43706 43670 43614 43581 43529 43505 43482 43456 43444 43424 43404 43400 43386 43387 43378 43352 43295 43239 43167 43135 43095 43078 43052 43030 43044 43011 42999 43010 43017 43019 43033 43033 43023 43024 42979 42920 42887 42850 42812 42791 42790 42772 42782 42780 42799 42785 42803 42815 42820 42837 42859 42871 42884 42911 42920 42893 42848 42825 42817 42794 42802 42789 42804 42821 42828 42844 42866 42870 42904 42911 42940 42959 42987 43019 43049 43059 43059 43043 43048 43039 43033 43027 43043 43063 43081 43092 43114 43130 43153 43169 43193 43190 43224 43263 43279 43310 43334 43365 43378 43384 43371 43384 43396 43404 43414 43425 43452 43464 43474 43491 43512 43528 43563 43574 43607 43621 43629 43654 43677 43692 43725 43738 43738 43745 43737 43726 43723 43743 43757 43788 43806 43851 43880 43901 43899 43940 43953 43983 44004 44018 44029 44039 44070 44071 44102 44111 44098 44096 44098 44093 44073 44086 44088 44087 44093 44075 44079 44090 44102 44116 44119 44123 44138 44152 44165 44172 44192 44231 44313 44344 44368 44378 44374 44380 44374 44362 44381 44421 44513 44627 44717 44874 45014 45127 45151 45151 45143 45119 45096 45054 45008 44938 44883 44808 44757 44683 44638 44574 44579 44555 44481 44419 44396 44380 44350 44341 44349 44365 44370 44419 44403 44359 44305 44260 44190 44138 44104 44061 44021 43989 43948 43927 43921 43907 43915 43903 43895 43908 43888 43825 43755 43700 43629 43576 43544 43530 43508 43490 43478 43481 43486 43491 43494 43505 43503 43512 43508 43439 43371 43321 43268 43245 43236 43228 43225 43226 43235 43256 43278 43293 43319 43348 43359 43383 43341 43299 43258 43225 43188 43191 43208 43218 43232 43253 43275 43299 43337 43379 43407 43459 43470 43483 43456 43432 43406 43399 43383 43397 43433 43456 43484 43516 43557 43581 43626 43656 43692 43720 43769 43797 43838 43880 43914 43955 43960 43964 43959 43955 43953 43952 43969 43995 44019 44044 44063 44083 44124 44142 44180 44213 44242 44267 44309 44327 44350 44383 44430 44464 44465 44480 44493 44502 44506 44516 44546 44563 44589 44612 44625 44638 44669 44679 44705 44716 44757 44760 44800 44816 44838 44842 44854 44875 44864 44857 44853 44849 44841 44845 44841 44844 44853 44850 44868 44863 44877 44878 44885 44885 44886 44899 44911 44920 44911 44896 44870 44841 44801 44774 44756 44744 44716 44701 44689 44679 44677 44669 44669 44660 44658 44647 44647 44648 44648 44616 44581 44551 44499 44452 44404 44411 44375 44359 44342 44341 44330 44329 44323 44326 44337 44325 44344 44357 44330 44298 44236 44186 44149 44126 44096 44082 44063 44060 44049 44057 44043 44058 44065 44071 44082 44079 44117 44129 44133 44120 44107 44072 44022 43977 43959 43952 43935 43948 43939 43942 43939 43945 43949 43965 43994 44009 44024 44035 44065 44082 44106 44123 44146 44162 44159 44163 44154 44144 44120 44119 44100 44103 44105 44117 44144 44155 44174 44201 44218 44254 44255 44281 44307 44318 44358 44383 44410 44430 44463 44492 44505 44531 44521 44534 44536 44552 44550 44554 44567 44592 44604 44622 44627 44645 44669 44688 44702 44737 44750 44770 44778 44808 44819 44842 44853 44869 44877 44888 44894 44899 44902 44918 44945 44945 44964 44974 44979 44977 45023 45008 45035 45034 45049 45069 45075 45089 45107 45109 45119 45119 45103 45104 45094 45090 45078 45079 45077 45071 45073 45060 45061 45051 45062 45072 45065 45073 45072 45082 45086 45092 45091 45091 45084 45057 45026 45002 44988 44942 44920 44905 44878 44854 44839 44842 44822 44824 44814 44809 44814 44806 44809 44788 44813 44808 44805 44807 44802 44749 44710 44683 44636 44588 44560 44535 44528 44505 44476 44454 44452 44446 44433 44440 44436 44439 44438 44442 44440 44455 44455 44416 44365 44331 44269 44222 44196 44167 44148 44127 44121 44116 44104 44086 44086 44108 44111 44117 44123 44123 44138 44147 44159 44146 44109 44072 44031 44000 43961 43921 43918 43916 43905 43921 43920 43915 43922 43931 43945 43976 43981 43997 44022 44043 44063 44054 44047 44023 43995 43974 43966 43955 43948 43954 43974 43972 43992 44003 44021 44033 44067 44091 44129 44130 44159 44188 44204 44233 44230 44237 44228 44228 44215 44231 44234 44244 44259 44257 44282 44300 44321 44336 44359 44386 44408 44437 44446 44482 44521 44531 44556 44561 44573 44572 44576 44585 44604 44620 44629 44658 44666 44675 44695 44733 44754 44768 44783 44799 44816 44847 44849 44890 44880 44880 44893 44893 44905 44911 44914 44918 44928 44932 44941 44940 44958 44964 44968 44984 45002 45022 45030 45035 45036 45043 45073 45058 45064 45048 45047 45041 45008 44992 45003 44982 44991 44977 44986 44983 44968 44975 44976 44979 44980 44983 44983 44980 44964 44929 44899 44869 44857 44811 44807 44801 44786 44788 44773 44780 44775 44761 44761 44762 44768 44766 44775 44761 44726 44676 44639 44602 44564 44535 44505 44498 44489 44488 44464 44472 44460 44453 44446 44455 44472 44471 44473 44483 44484 44497 44500 44509 44490 44457 44412 44374 44323 44298 44251 44251 44232 44216 44197 44206 44197 44196 44195 44218 44221 44233 44242 44257 44271 44281 44298 44301 44327 44329 44329 44269 44258 44231 44193 44188 44176 44169 44171 44169 44177 44183 44184 44194 44211 44225 44246 44268 44281 44289 44308 44335 44351 44355 44356 44332 44326 44319 44302 44295 44307 44290 44288 44310 44317 44330 44339 44367 44376 44396 44427 44428 44461 44471 44500 44515 44528 44508 44506 44506 44490 44495 44501 44505 44521 44530 44546 44568 44577 44606 44617 44644 44665 44666 44679 44707 44709 44710 44729 44722 44712 44716 44698 44719 44721 44737 44722 44749 44766 44760 44775 44788 44803 44810 44814 44827 44829 44828 44829 44809 44804 44790 44782 44783 44784 44794 44783 44785 44792 44792 44809 44812 44817 44816 44835 44825 44813 44788 44738 44735 44716 44701 44685 44678 44668 44664 44658 44651 44648 44659 44667 44665 44683 44689 44702 44697 44698 44682 44652 44642 44606 44567 44529 44520 44508 44506 44487 44484 44497 44478 44487 44493 44501 44508 44501 44512 44541 44536 44565 44560 44589 44598 44605 44609 44592 44567 44524 44508 44472 44452 44432 44416 44403 44405 44407 44398 44402 44400 44415 44426 44416 44418 44427 44445 44448 44468 44471 44470 44466 44436 44410 44393 44359 44341 44332 44332 44322 44310 44322 44317 44327 44325 44339 44366 44378 44380 44398 44412 44430 44430 44432 44415 44392 44380 44357 44353 44335 44343 44343 44335 44350 44352 44358 44379 44384 44395 44407 44424 44432 44455 44448 44420 44404 44383 44383 44361 44358 44359 44347 44362 44370 44375 44378 44390 44416 44419 44445 44456 44476 44498 44483 44462 44458 44440 44435 44421 44406 44400 44402 44411 44431 44433 44434 44447 44467 44492 44508 44520 44538 44552 44564 44562 44545 44544 44555 44525 44508 44500 44497 44505 44512 44499 44506 44516 44538 44556 44556 44567 44569 44586 44621 44632 44638 44655 44667 44662 44632 44629 44620 44581 44576 44576 44564 44566 44578 44574 44580 44620 44609 44611 44612 44588 44570 44543 44537 44514 44508 44490 44513 44505 44514 44519 44530 44532 44544 44547 44558 44574 44581 44583 44625 44634 44725 44749 44743 44734 44716 44716 44703 44682 44674 44692 44671 44679 44684 44691 44701 44697 44713 44725 44742 44750 44768 44777 44779 44776 44769 44722 44706 44707 44671 44664 44656 44666 44657 44656 44651 44652 44673 44676 44678 44686 44691 44693 44711 44726 44737 44738 44715 44697 44661 44627 44603 44576 44562 44564 44542 44539 44525 44536 44544 44545 44539 44554 44572 44567 44581 44592 44600 44622 44631 44640 44661 44664 44651 44626 44581 44546 44524 44508 44461 44461 44451 44452 44442 44447 44444 44454 44462 44457 44475 44481 44501 44514 44518 44527 44552 44565 44568 44562 44545 44513 44467 44443 44425 44400 44391 44373 44387 44382 44380 44383 44406 44418 44418 44432 44445 44453 44478 44507 44522 44514 44525 44515 44489 44464 44428 44390 44347 44354 44356 44350 44342 44353 44357 44361 44377 44379 44390 44404 44433 44435 44455 44472 44477 44467 44428 44412 44390 44350 44344 44322 44307 44328 44331 44327 44346 44355 44384 44375 44405 44416 44449 44461 44467 44491 44477 44455 44428 44407 44374 44369 44351 44342 44345 44346 44358 44359 44372 44387 44398 44411 44416 44432 44464 44485 44506 44527 44530 44514 44475 44457 44434 44414 44389 44386 44387 44387 44386 44402 44407 44417 44423 44441 44461 44470 44495 44519 44536 44555 44576 44588 44614 44576 44548 44535 44491 44470 44449 44431 44438 44437 44425 44439 44442 44449 44463 44465 44476 44488 44503 44530 44533 44556 44576 44597 44619 44643 44647 44652 44623 44586 44562 44517 44489 44475 44452 44453 44466 44474 44473 44472 44471 44488 44490 44494 44514 44528 44541 44560 44563 44588 44601 44626 44639 44664 44661 44635 44593 44558 44526 44485 44448 44453 44439 44443 44418 44419 44417 44415 44426 44421 44443 44443 44466 44464 44484 44493 44506 44524 44550 44550 44560 44541 44520 44474 44437 44382 44364 44325 44315 44312 44290 44279 44288 44276 44287 44291 44293 44310 44319 44337 44340 44361 44376 44397 44408 44430 44451 44451 44441 44389 44340 44296 44260 44221 44189 44178 44156 44154 44140 44147 44150 44163 44159 44185 44191 44212 44230 44240 44250 44266 44280 44303 44332 44329 44331 44297 44246 44194 44156 44114 44089 44077 44080 44062 44068 44060 44062 44069 44079 44103 44113 44108 44140 44151 44174 44191 44207 44229 44243 44202 44173 44116 44074 44040 44018 43998 43982 43978 43975 43987 43994 44003 44015 44030 44045 44068 44086 44105 44120 44142 44154 44169 44175 44143 44100 44053 44023 43974 43961 43941 43932 43950 43940 43947 43953 43977 43984 43998 44009 44047 44055 44093 44098 44117 44143 44138 44093 44058 44022 43985 43936 43928 43914 43928 43923 43923 43940 43953 43974 43996 44007 44030 44063 44086 44092 44124 44147 44186 44198 44220 44184 44146 44120 44084 44051 44025 43997 44022 44020 44029 44026 44063 44052 44086 44091 44108 44131 44159 44179 44202 44236 44264 44297 44318 44328 44342 44348 44307 44277 44256 44230 44208 44169 44180 44183 44180 44187 44194 44225 44225 44239 44269 44280 44286 44321 44335 44350 44397 44404 44417 44423 44396 44366 44336 44323 44298 44294 44304 44281 44292 44288 44308 44322 44331 44342 44369 44389 44403 44422 44447 44449 44482 44489 44462 44436 44422 44382 44356 44344 44334 44357 44332 44337 44344 44358 44372 44387 44393 44414 44433 44453 44474 44487 44506 44528 44556 44557 44568 44539 44529 44481 44438 44399 44375 44372 44373 44365 44370 44368 44366 44364 44382 44390 44415 44424 44444 44449 44466 44482 44504 44528 44538 44524 44486 44445 44405 44370 44351 44309 44310 44303 44299 44299 44296 44309 44305 44317 44322 44345 44350 44370 44381 44395 44408 44434 44422 44400 44364 44329 44298 44271 44227 44220 44208 44216 44210 44211 44216 44220 44224 44239 44277 44290 44303 44317 44348 44356 44371 44341 44305 44277 44245 44200 44180 44156 44171 44155 44157 44161 44172 44184 44190 44219 44243 44257 44271 44288 44306 44338 44363 44381 44399 44415 44370 44322 44300 44261 44230 44204 44197 44205 44193 44203 44215 44221 44227 44241 44257 44265 44286 44306 44322 44349 44367 44385 44404 44437 44440 44439 44398 44384 44362 44334 44295 44271 44273 44268 44261 44266 44268 44275 44284 44308 44333 44343 44358 44386 44391 44416 44438 44463 44487 44501 44503 44498 44457 44427 44405 44370 44341 44329 44327 44331 44333 44328 44332 44356 44357 44368 44390 44409 44407 44444 44451 44472 44490 44518 44531 44541 44518 44488 44458 44411 44398 44359 44351 44342 44333 44337 44324 44332 44342 44351 44381 44383 44391 44419 44420 44439 44462 44473 44486 44509 44505 44487 44440 44408 44381 44322 44297 44287 44274 44267 44266 44274 44262 44259 44278 44276 44290 44306 44330 44332 44343 44369 44386 44394 44393 44366 44307 44269 44232 44190 44138 44117 44117 44106 44112 44105 44100 44120 44114 44123 44132 44151 44164 44174 44199 44213 44226 44261 44252 44217 44161 44120 44058 44018 43975 43961 43950 43966 43958 43959 43970 43970 43995 44007 44023 44032 44054 44063 44081 44117 44125 44130 44100 44049 44000 43951 43896 43871 43835 43834 43828 43820 43828 43838 43843 43856 43883 43901 43910 43941 43954 43977 43982 44011 44028 43984 43940 43895 43841 43787 43753 43741 43724 43726 43728 43731 43753 43752 43773 43781 43803 43832 43855 43877 43889 43904 43848 43786 43733 43692 43647 43617 43628 43626 43635 43631 43649 43668 43685 43698 43727 43748 43779 43804 43819 43830 43759 43704 43639 43584 43539 43518 43528 43554 43543 43560 43581 43604 43626 43647 43673 43704 43736 43761 43789 43824 43853 43885 43895 43872 43799 43738 43674 43603 43560 43546 43525 43529 43538 43564 43574 43578 43611 43643 43667 43688 43710 43759 43780 43809 43839 43881 43891 43926 43893 43854 43776 43720 43659 43607 43589 43586 43580 43583 43598 43615 43642 43660 43680 43716 43737 43770 43796 43831 43864 43896 43936 43963 43978 44025 44051 44037 43984 43921 43864 43796 43748 43721 43723 43724 43720 43751 43743 43757 43786 43808 43818 43847 43880 43900 43924 43955 43987 44013 44043 44081 44082 44041 43974 43934 43873 43844 43807 43813 43813 43820 43824 43836 43864 43875 43905 43932 43960 43985 44014 44048 44075 44099 44125 44161 44188 44213 44238 44241 44190 44132 44093 44032 43999 43969 43965 43956 43956 43971 43987 43998 44007 44034 44050 44078 44110 44121 44135 44177 44193 44233 44248 44268 44303 44329 44318 44258 44215 44179 44133 44089 44067 44049 44046 44045 44036 44060 44058 44071 44083 44110 44137 44151 44173 44193 44221 44257 44282 44307 44336 44344 44342 44270 44219 44173 44118 44061 44052 44037 44039 44021 44028 44036 44050 44045 44070 44084 44100 44120 44143 44143 44169 44196 44223 44228 44190 44129 44061 44028 43978 43944 43936 43911 43902 43911 43925 43923 43936 43957 43974 43998 44007 44043 44053 44081 44112 44127 44155 44181 44168 44145 44068 44009 43948 43897 43857 43828 43831 43817 43826 43833 43835 43849 43868 43878 43903 43920 43943 43967 43974 44017 44036 44059 44082 44060 44010 43945 43875 43826 43780 43736 43732 43738 43718 43726 43733 43744 43766 43786 43795 43818 43856 43874 43896 43861 43805 43741 43699 43653 43603 43587 43581 43578 43596 43594 43610 43623 43643 43669 43685 43710 43731 43703 43652 43578 43545 43486 43451 43443 43450 43461 43472 43478 43498 43506 43543 43560 43583 43602 43623 43590 43518 43453 43393 43345 43317 43294 43316 43331 43342 43364 43376 43412 43447 43470 43497 43534 43554 43562 43499 43421 43380 44517 44514 44526 44539 44558 44571 44601 44627 44640 44671 44692 44679 44655 44629 44610 44600 44611 44616 44624 44633 44643 44643 44655 44677 44692 44780 44812 44837 44814 44762 44750 44730 44688 44663 44674 44671 44677 44682 44688 44691 44703 44699 44724 44742 44747 44757 44760 44778 44779 44775 44731 44662 44620 44557 44514 44474 44451 44433 44416 44407 44397 44389 44396 44385 44383 44397 44386 44381 44388 44404 44414 44374 44320 44269 44216 44166 44110 44091 44076 44054 44057 44054 44040 44048 44046 44040 44059 44064 44075 44096 44099 44089 44037 43970 43921 43873 43841 43807 43812 43806 43788 43799 43811 43832 43835 43848 43859 43866 43896 43907 43918 43910 43851 43808 43780 43745 43722 43715 43729 43741 43743 43758 43785 43812 43837 43845 43868 43902 43930 43954 43939 43902 43868 43841 43810 43789 43786 43812 43811 43811 43847 43881 43895 43930 43957 43964 43990 44008 44012 43955 43866 43807 43773 43744 43726 43702 43695 43682 43677 43682 43696 43712 43760 43778 43812 43946 44019 44030 44041 44031 44003 44010 44005 44011 44034 44043 44082 44075 44119 44124 44143 44177 44196 44227 44237 44268 44250 44222 44219 44205 44209 44224 44234 44251 44255 44277 44300 44325 44339 44353 44366 44388 44414 44445 44422 44391 44377 44349 44362 44361 44365 44367 44360 44365 44365 44378 44375 44390 44388 44419 44426 44408 44378 44327 44302 44261 44233 44228 44214 44214 44198 44200 44194 44195 44206 44201 44207 44210 44217 44212 44152 44085 44033 43969 43926 43896 43874 43860 43854 43847 43828 43837 43845 43843 43860 43873 43872 43892 43906 43909 43940 43908 43831 43765 43702 43634 43589 43560 43552 43531 43533 43544 43542 43554 43562 43570 43600 43630 43630 43658 43686 43690 43718 43738 43720 43632 43553 43514 43462 43429 43416 43405 43413 43428 43432 43427 43464 43469 43490 43520 43535 43567 43591 43621 43663 43704 43719 43732 43679 43610 43559 43532 43512 43486 43491 43513 43518 43535 43558 43579 43592 43610 43639 43678 43705 43731 43760 43809 43834 43891 43899 43888 43840 43802 43786 43769 43777 43760 43776 43800 43807 43833 43855 43885 43911 43917 43962 43990 44039 44042 44071 44105 44059 44031 44015 43996 43997 44006 44001 44016 44028 44058 44075 44108 44144 44158 44177 44208 44242 44280 44294 44292 44260 44245 44231 44208 44197 44213 44229 44243 44242 44270 44286 44301 44328 44363 44391 44413 44439 44450 44459 44418 44407 44386 44391 44375 44374 44370 44392 44402 44416 44419 44435 44453 44490 44495 44517 44538 44537 44513 44475 44437 44424 44404 44386 44376 44388 44371 44396 44387 44404 44409 44417 44435 44437 44449 44458 44479 44493 44519 44500 44452 44399 44372 44306 44270 44238 44238 44234 44210 44207 44202 44208 44199 44211 44227 44226 44232 44254 44255 44276 44298 44308 44328 44336 44327 44284 44228 44186 44126 44095 44058 44048 44021 44020 44015 44012 44012 44018 44031 44035 44044 44061 44064 44084 44092 44118 44132 44158 44156 44142 44099 44043 43989 43949 43904 43889 43867 43874 43855 43843 43871 43866 43868 43898 43904 43922 43935 43940 43961 43973 44011 44034 44057 44067 44047 43989 43971 43936 43902 43866 43860 43871 43865 43883 43893 43902 43928 43930 43952 43982 43989 44004 44024 44062 44076 44107 44120 44107 44086 44061 44028 44001 43988 43989 43994 43997 43997 44009 44026 44046 44053 44063 44105 44122 44142 44157 44187 44198 44223 44209 44188 44162 44137 44111 44100 44108 44113 44099 44129 44124 44146 44154 44183 44190 44210 44237 44245 44279 44284 44332 44334 44365 44388 44399 44404 44388 44366 44332 44311 44278 44267 44255 44246 44239 44240 44255 44259 44254 44277 44283 44295 44307 44322 44333 44352 44356 44378 44400 44410 44424 44431 44418 44387 44349 44313 44255 44224 44208 44180 44161 44151 44132 44129 44134 44132 44134 44149 44147 44146 44165 44165 44186 44201 44195 44192 44153 44113 44062 44015 43966 43946 43912 43900 43902 43893 43883 43883 43890 43899 43902 43912 43935 43934 43943 43960 43927 43876 43840 43784 43745 43704 43671 43657 43645 43639 43648 43642 43643 43653 43663 43685 43680 43696 43720 43740 43694 43637 43561 43517 43461 43428 43399 43399 43389 43383 43386 43388 43406 43406 43414 43427 43447 43463 43488 43445 43376 43315 43258 43205 43160 43136 43136 43129 43142 43168 43179 43190 43215 43224 43250 43284 43312 43333 43324 43274 43204 43166 43102 43053 43041 43046 43043 43056 43074 43083 43100 43121 43159 43189 43232 43268 43294 43346 43351 43377 43370 43319 43248 43190 43133 43097 43091 43102 43104 43113 43140 43155 43166 43202 43212 43255 43284 43320 43348 43374 43404 43432 43475 43513 43535 43566 43575 43536 43476 43407 43349 43293 43265 43256 43259 43261 43259 43279 43291 43320 43332 43361 43383 43401 43428 43458 43493 43516 43545 43561 43612 43626 43602 43543 43478 43426 43382 43339 43320 43303 43315 43327 43336 43338 43354 43367 43380 43404 43430 43440 43478 43503 43532 43554 43576 43542 43479 43420 43373 43321 43289 43282 43267 43264 43256 43265 43278 43279 43306 43304 43340 43357 43375 43408 43397 43346 43263 43203 43139 43092 43062 43066 43069 43063 43072 43088 43104 43131 43142 43161 43177 43209 43231 43216 43138 43051 43008 42933 42871 42846 42844 42843 42852 42868 42872 42913 42919 42947 42959 43008 43021 43032 42956 42857 42805 42746 42680 42675 42671 42687 42709 42729 42758 42764 42806 42839 42874 42904 42933 42913 42846 42761 42701 42635 42601 42585 42584 42601 42618 42644 42686 42706 42741 42777 42833 42862 42895 42921 42952 42993 43009 42916 42813 42733 42648 42600 42579 42600 42614 42644 42659 42682 42721 42751 42803 42840 42865 42920 42961 42984 43030 43059 43114 43139 43126 43049 42958 42896 42814 42775 42760 42778 42801 42827 42854 42869 42906 42927 42982 43022 43046 43092 43133 43154 43199 43236 43268 43287 43260 43188 43125 43071 43022 42989 42992 43005 43026 43048 43060 43093 43118 43163 43190 43224 43254 43284 43320 43353 43389 43407 43337 43269 43218 43161 43116 43116 43113 43130 43151 43166 43199 43243 43255 43303 43330 43362 43387 43424 43453 43506 43537 43563 43614 43639 43669 43695 43721 43752 43717 43643 43547 43474 43407 43346 43301 43301 43310 43308 43316 43330 43341 43358 43385 43416 43417 43454 43480 43510 43527 43563 43589 43619 43648 43686 43702 43727 43748 43677 43577 43491 43436 43368 43312 43292 43293 43263 43263 43277 43275 43294 43327 43325 43352 43366 43382 43407 43436 43454 43486 43506 43520 43550 43580 43603 43576 43504 43393 43320 43252 43178 43143 43120 43118 43116 43104 43116 43116 43136 43160 43170 43185 43231 43238 43253 43285 43314 43346 43368 43392 43393 43356 43252 43181 43125 43052 43008 42984 42985 42973 42977 42989 42999 43015 43044 43069 43085 43120 43150 43186 43207 43226 43242 43189 43091 43015 42954 42913 42868 42867 42885 42891 42907 42940 42944 42974 43008 43054 43087 43103 43146 43175 43194 43238 43271 43294 43265 43176 43107 43051 42996 42938 42925 42948 42954 42963 42993 43014 43056 43082 43115 43162 43193 43231 43268 43305 43339 43386 43415 43448 43487 43528 43566 43585 43607 43543 43464 43411 43359 43301 43279 43278 43298 43303 43334 43362 43380 43407 43441 43469 43496 43549 43566 43603 43647 43681 43718 43764 43780 43819 43864 43907 43898 43852 43807 43776 43741 43710 43683 43678 43696 43705 43713 43714 43752 43778 43810 43826 43857 43891 43927 43956 43969 43999 44031 44041 44103 44117 44144 44133 44076 44031 43990 43939 43900 43860 43867 43859 43862 43855 43872 43888 43892 43906 43927 43943 43966 43976 43994 44014 43892 43890 43905 43916 43866 43784 43695 43602 43516 43459 43428 43420 43415 43416 43420 43427 43441 43464 43484 43520 43548 43570 43602 43637 43665 43770 43832 43868 43910 43948 43962 44018 44051 44012 43941 43882 43815 43747 43706 43683 43663 43660 43666 43671 43680 43708 43721 43752 43770 43807 43828 43885 43908 43942 43974 44017 44063 44084 44116 44150 44173 44210 44180 44152 44117 44083 44064 44035 44026 44040 44051 44066 44069 44087 44098 44133 44152 44175 44211 44232 44252 44305 44325 44344 44372 44414 44432 44457 44458 44420 44402 44374 44348 44337 44318 44326 44330 44329 44322 44341 44377 44383 44415 44429 44436 44470 44498 44529 44557 44581 44599 44637 44660 44691 44710 44684 44655 44618 44575 44544 44520 44503 44479 44479 44481 44480 44478 44488 44501 44518 44528 44546 44564 44581 44596 44616 44642 44669 44691 44725 44729 44754 44775 44757 44706 44664 44596 44579 44520 44488 44474 44457 44438 44427 44437 44437 44432 44456 44460 44462 44471 44485 44510 44528 44544 44554 44543 44539 44569 44579 44497 44347 44283 44193 44113 44058 44008 43952 43921 43914 43931 43963 43985 44001 44017 44044 44076 44100 44157 44208 44312 44460 44581 44673 44824 44879 44901 44890 44861 44961 45125 45313 45536 46041 46839 47820 48725 49401 50275 50828 51107 51039 51598 52103 52200 52249 52312 52345 52412 52479 52555 52548 52511 52416 52435 52467 52453 52360 52206 52115 52041 51976 51929 51898 51876 51836 51776 51695 51581 51470 51351 51250 51144 51061 50982 50912 50815 50723 50627 50536 50449 50372 50311 50238 50167 50113 50012 49871 49718 49563 49397 49230 49111 48994 48903 48812 48722 48640 48566 48503 48424 48390 48325 48286 48239 48166 48064 47926 47809 47677 47573 47476 47411 47376 47324 47285 47259 47244 47239 47226 47218 47226 47222 47209 47227 47232 47194 47117 47034 46958 46873 46803 46777 46743 46736 46744 46755 46764 46758 46778 46801 46811 46838 46845 46876 46899 46926 46960 46979 47003 47035 47051 47019 46950 46894 46843 46780 46752 46733 46740 46737 46741 46763 46775 46789 46803 46825 46852 46875 46901 46914 46963 46972 47004 47032 47003 46960 46929 46878 46818 46772 46782 46789 46799 46796 46788 46814 46837 46861 46895 46900 46925 46939 46966 46991 47016 47052 47084 47099 47110 47080 47024 46973 46920 46866 46831 46822 46822 46829 46823 46821 46851 46870 46880 46900 46934 46947 46964 47003 47016 47070 47079 47103 47134 47175 47188 47162 47107 47067 47024 46970 46930 46935 46935 46942 46951 46972 46980 46996 47021 47039 47067 47098 47126 47168 47178 47209 47244 47286 47323 47337 47378 47408 47438 47424 47379 47333 47322 47293 47278 47262 47272 47285 47297 47318 47315 47342 47372 47405 47428 47443 47481 47504 47537 47572 47613 47627 47674 47712 47737 47757 47779 47753 47735 47725 47709 47695 47692 47701 47732 47725 47745 47752 47786 47811 47824 47862 47876 47901 47932 47953 47976 48008 48023 48046 48080 48106 48121 48129 48141 48139 48131 48119 48120 48104 48121 48109 48113 48128 48131 48167 48155 48176 48190 48215 48237 48255 48272 48302 48316 48328 48353 48369 48390 48416 48403 48381 48374 48363 48343 48341 48350 48354 48351 48344 48353 48368 48371 48377 48396 48408 48412 48435 48451 48457 48480 48492 48513 48539 48527 48518 48505 48491 48454 48445 48419 48418 48424 48402 48404 48417 48405 48407 48399 48423 48437 48430 48447 48462 48477 48477 48482 48500 48514 48535 48522 48493 48459 48433 48380 48349 48321 48303 48287 48284 48274 48262 48274 48266 48258 48276 48289 48295 48315 48321 48333 48333 48354 48374 48374 48388 48382 48342 48305 48260 48217 48194 48152 48143 48138 48128 48127 48123 48127 48131 48141 48146 48158 48197 48199 48203 48215 48243 48256 48267 48295 48293 48285 48254 48209 48184 48146 48116 48111 48101 48087 48105 48110 48111 48127 48139 48147 48166 48173 48202 48214 48236 48255 48280 48302 48314 48334 48322 48314 48271 48268 48243 48207 48212 48208 48208 48227 48219 48246 48247 48259 48299 48298 48333 48337 48372 48391 48418 48437 48451 48485 48510 48523 48536 48518 48501 48505 48477 48472 48474 48479 48497 48507 48531 48534 48541 48571 48583 48592 48624 48628 48653 48663 48686 48712 48725 48735 48721 48728 48712 48714 48710 48704 48720 48722 48735 48733 48760 48750 48767 48786 48782 48809 48830 48844 48851 48861 48881 48904 48890 48883 48870 48857 48842 48838 48838 48844 48846 48836 48841 48854 48857 48867 48875 48893 48903 48903 48917 48932 48945 48950 48952 48985 48996 48996 48955 48954 48940 48919 48896 48869 48858 48852 48836 48835 48828 48831 48845 48827 48837 48831 48851 48864 48856 48882 48869 48898 48886 48898 48905 48911 48881 48870 48823 48788 48746 48707 48685 48680 48666 48645 48637 48626 48629 48633 48629 48626 48641 48649 48650 48651 48663 48674 48684 48695 48721 48738 48720 48666 48653 48599 48563 48522 48511 48475 48470 48458 48455 48457 48468 48487 48474 48479 48495 48496 48504 48535 48549 48558 48579 48589 48608 48611 48592 48557 48525 48478 48450 48418 48405 48396 48393 48397 48404 48385 48389 48407 48419 48441 48450 48465 48484 48496 48521 48525 48535 48554 48561 48541 48525 48504 48479 48458 48439 48444 48431 48426 48436 48443 48461 48468 48483 48504 48527 48543 48546 48568 48608 48624 48625 48615 48607 48590 48576 48553 48538 48539 48542 48542 48550 48549 48552 48563 48588 48607 48607 48622 48652 48672 48692 48707 48726 48753 48754 48786 48784 48761 48759 48756 48745 48739 48721 48731 48734 48739 48738 48756 48770 48775 48793 48792 48822 48840 48864 48863 48876 48895 48906 48920 48939 48937 48927 48914 48903 48897 48889 48893 48882 48881 48873 48893 48897 48905 48900 48910 48906 48919 48931 48944 48962 48964 48955 48951 48937 48919 48908 48880 48876 48865 48864 48835 48844 48852 48847 48853 48868 48869 48867 48871 48887 48900 48917 48915 48889 48860 48835 48798 48754 48726 48722 48704 48689 48692 48702 48685 48688 48688 48691 48687 48703 48717 48716 48728 48740 48756 48756 48748 48715 48672 48625 48572 48524 48506 48495 48469 48463 48456 48453 48432 48455 48457 48465 48469 48472 48503 48519 48520 48542 48552 48583 48586 48628 48622 48628 48602 48570 48544 48506 48452 48432 48418 48406 48399 48400 48387 48399 48419 48413 48419 48425 48431 48465 48462 48473 48502 48527 48537 48563 48567 48589 48595 48577 48554 48527 48476 48464 48441 48445 48442 48445 48442 48446 48464 48472 48476 48504 48520 48525 48541 48567 48595 48586 48615 48639 48660 48679 48676 48657 48645 48635 48607 48598 48600 48593 48606 48605 48601 48607 48617 48633 48635 48661 48673 48685 48712 48724 48746 48759 48775 48789 48778 48770 48765 48736 48742 48704 48721 48712 48735 48731 48735 48749 48761 48775 48789 48799 48818 48818 48832 48837 48856 48878 48884 48912 48917 48907 48885 48872 48856 48836 48822 48808 48806 48803 48792 48802 48803 48815 48799 48817 48825 48841 48847 48860 48881 48883 48898 48902 48935 48917 48906 48877 48860 48836 48816 48788 48784 48765 48768 48761 48763 48751 48758 48773 48766 48778 48780 48792 48796 48816 48834 48841 48852 48853 48868 48838 48815 48779 48745 48723 48695 48677 48670 48654 48631 48633 48626 48631 48641 48650 48646 48647 48671 48675 48695 48695 48694 48699 48667 48631 48582 48537 48507 48494 48474 48461 48458 48436 48432 48440 48447 48449 48446 48467 48479 48484 48500 48516 48525 48550 48528 48487 48453 48425 48365 48313 48302 48295 48300 48296 48293 48310 48318 48328 48344 48360 48373 48401 48400 48436 48466 48468 48498 48536 48538 48526 48487 48470 48434 48406 47991 47896 47841 47772 47752 47735 47720 47698 47690 47694 47690 47686 47704 47731 47736 47763 47766 47796 47804 47829 47833 47859 47892 47898 47904 47949 47932 47892 47855 47797 47779 47781 47768 47766 47767 47779 47774 47793 47816 47835 47848 47865 47896 47908 47947 47968 47995 48003 48034 48071 48065 48079 48064 48023 48004 47968 47954 47939 47939 47942 47967 47958 47970 47979 47997 48031 48041 48070 48093 48106 48135 48154 48185 48199 48241 48246 48275 48293 48284 48282 48279 48257 48231 48239 48244 48252 48242 48259 48265 48291 48310 48317 48340 48351 48377 48372 48403 48427 48468 48485 48506 48528 48551 48571 48566 48574 48557 48554 48548 48529 48520 48521 48536 48514 48531 48551 48545 48553 48586 48581 48601 48621 48634 48640 48674 48668 48698 48709 48724 48748 48767 48798 48817 48826 48842 48835 48817 48818 48785 48777 48747 48743 48724 48713 48705 48701 48694 48699 48703 48707 48725 48715 48720 48740 48744 48754 48772 48778 48797 48802 48825 48813 48833 48832 48798 48764 48747 48710 48670 48613 48614 48597 48583 48572 48551 48539 48546 48546 48535 48550 48557 48555 48567 48577 48593 48590 48603 48619 48626 48635 48648 48641 48627 48578 48537 48477 48449 48406 48380 48357 48328 48320 48303 48294 48296 48290 48293 48302 48305 48318 48332 48335 48346 48359 48367 48374 48386 48406 48414 48423 48394 48324 48279 48220 48160 48111 48085 48059 48045 48030 48010 48005 48005 48005 48004 48027 48031 48039 48051 48075 48082 48100 48120 48123 48147 48179 48191 48201 48160 48100 48053 47999 47957 47897 47873 47859 47845 47844 47841 47834 47825 47842 47855 47869 47873 47883 47904 47929 47942 47957 47984 48008 48024 48040 48057 48078 48048 48009 47971 47913 47880 47847 47817 47819 47823 47830 47822 47843 47840 47847 47878 47874 47903 47921 47947 47963 48003 48016 48036 48063 48080 48108 48130 48101 48052 48035 48009 47968 47948 47950 47929 47928 47946 47941 47939 47964 47980 47983 48012 48027 48058 48073 48090 48111 48143 48163 48177 48210 48189 48171 48148 48112 48097 48074 48057 48069 48064 48060 48081 48069 48099 48100 48105 48135 48139 48154 48169 48190 48221 48236 48265 48300 48308 48306 48294 48277 48259 48230 48213 48199 48184 48179 48171 48165 48171 48180 48183 48192 48201 48222 48226 48246 48258 48284 48298 48312 48332 48366 48365 48382 48353 48330 48301 48273 48247 48222 48211 48201 48188 48198 48213 48188 48206 48200 48217 48237 48234 48255 48260 48270 48301 48304 48328 48346 48350 48346 48330 48292 48263 48226 48192 48168 48154 48140 48128 48124 48109 48105 48121 48126 48126 48140 48122 48152 48154 48165 48182 48207 48222 48214 48235 48205 48155 48122 48085 48026 47985 47961 47932 47922 47906 47901 47888 47896 47891 47894 47899 47902 47917 47921 47931 47950 47974 47974 48003 48006 48018 48002 47942 47903 47844 47792 47744 47706 47681 47657 47654 47630 47630 47624 47644 47641 47665 47676 47691 47691 47710 47734 47744 47768 47795 47813 47836 47846 47884 47859 47829 47776 47732 47670 47601 47558 47553 47521 47508 47516 47503 47507 47512 47527 47547 47536 47561 47583 47620 47624 47652 47654 47690 47728 47764 47772 47794 47836 47821 47798 47759 47708 47665 47631 47601 47584 47589 47587 47582 47575 47582 47605 47624 47632 47650 47685 47696 47718 47760 47773 47801 47831 47856 47879 47909 47945 47961 47981 47937 47934 47907 47876 47849 47828 47828 47837 47835 47853 47872 47873 47874 47882 47914 47940 47953 47972 48000 48019 48033 48061 48092 48120 48138 48169 48164 48156 48149 48126 48110 48094 48085 48080 48075 48078 48087 48098 48108 48117 48125 48141 48148 48181 48201 48215 48231 48259 48277 48302 48326 48351 48369 48377 48354 48333 48302 48278 48262 48243 48245 48229 48225 48237 48245 48220 48237 48246 48249 48272 48288 48304 48304 48337 48351 48365 48400 48406 48434 48459 48450 48425 48389 48374 48339 48279 48282 48248 48229 48219 48205 48187 48199 48198 48195 48192 48199 48215 48216 48223 48239 48264 48265 48284 48295 48316 48320 48338 48306 48262 48211 48170 48126 48071 48030 47999 47979 47961 47946 47942 47932 47930 47912 47926 47935 47942 47944 47951 47967 47967 47982 47983 47994 47985 47954 47886 47831 47776 47710 47681 47645 47624 47602 47585 47585 47585 47572 47581 47585 47580 47601 47599 47617 47641 47652 47674 47686 47662 47600 47535 47470 47401 47329 47302 47280 47273 47262 47261 47262 47255 47261 47257 47280 47292 47348 47341 47370 47403 47440 47450 47475 47506 47520 47490 47447 47393 47355 47297 47236 47210 47217 47205 47204 47208 47227 47236 47262 47284 47314 47337 47376 47387 47428 47469 47497 47524 47547 47586 47625 47672 47672 47660 47623 47621 47594 47576 47526 47529 47529 47533 47547 47546 47568 47583 47607 47637 47673 47690 47698 47750 47767 47795 47843 47873 47905 47947 47959 47993 48012 48020 48013 48014 47997 47984 47978 47984 47992 48002 48017 48031 48028 48050 48067 48084 48117 48129 48140 48162 48186 48197 48230 48260 48283 48320 48308 48301 48282 48278 48273 48253 48246 48226 48236 48242 48246 48253 48268 48265 48287 48294 48303 48312 48341 48360 48373 48391 48420 48422 48437 48457 48469 48473 48470 48445 48433 48393 48368 48346 48317 48308 48303 48277 48270 48278 48279 48277 48266 48279 48288 48287 48290 48304 48327 48316 48341 48339 48373 48358 48331 48274 48236 48180 48111 48061 48034 47998 47982 47960 47936 47925 47922 47904 47905 47896 47902 47913 47918 47922 47933 47941 47936 47960 47985 47951 47905 47836 47778 47707 47634 47590 47562 47524 47501 47502 47471 47452 47469 47464 47482 47472 47488 47505 47514 47524 47532 47557 47572 47521 47432 47379 47308 47246 47194 47162 47141 47132 47126 47123 47124 47141 47165 47159 47176 47214 47227 47242 47268 47306 47338 47366 47386 47410 47358 47316 47277 47207 47152 47124 47120 47118 47109 47136 47150 47170 47183 47223 47245 47255 47288 47331 47351 47388 47419 47459 47514 47544 47573 47593 47622 47606 47583 47566 47549 47520 47512 47508 47527 47535 47548 47569 47589 47602 47631 47661 47703 47727 47756 47782 47815 47860 47903 47920 47966 47993 48029 48061 48076 48079 48072 48068 48065 48050 48050 48074 48076 48089 48091 48117 48136 48141 48156 48185 48209 48222 48251 48280 48297 48316 48336 48353 48371 48415 48427 48453 48439 48444 48435 48413 48406 48424 48415 48406 48425 48416 48432 48433 48435 48455 48456 48466 48469 48493 48519 48531 48534 48551 48563 48602 48599 48614 48609 48580 48563 48539 48519 48475 48456 48451 48436 48427 48428 48425 48408 48408 48407 48417 48427 48427 48414 48425 48438 48460 48460 48477 48489 48493 48513 48473 48432 48383 48345 48279 48228 48202 48177 48153 48122 48102 48092 48080 48064 48064 48082 48071 48071 48080 48088 48090 48094 48116 48139 48135 48144 48157 48132 48078 48010 47950 47882 47817 47758 47724 47693 47648 47657 47641 47618 47610 47624 47620 47620 47640 47644 47664 47670 47680 47701 47716 47732 47752 47758 47724 47677 47604 47542 47486 47421 47389 47356 47355 47337 47325 47324 47317 47324 47330 47334 47347 47366 47381 47413 47429 47439 47475 47494 47494 47448 47384 47339 47283 47243 47197 47187 47168 47159 47163 47165 47182 47199 47223 47231 47272 47277 47293 47325 47362 47388 47425 47460 47491 47515 47497 47470 47431 47400 47358 47313 47312 47312 47315 47325 47338 47346 47362 47386 47405 47439 47468 47492 47514 47557 47600 47630 47656 47696 47745 47756 47765 47757 47747 47730 47713 47697 47692 47696 47709 47712 47734 47753 47764 47787 47802 47831 47848 47880 47908 47923 47966 47987 48006 48035 47527 47531 47550 47564 47593 47607 47634 47649 47686 47722 47760 47786 47817 47854 47875 47903 47940 47974 48000 48024 48056 48082 48112 48153 48170 48259 48290 48305 48305 48310 48301 48321 48313 48330 48328 48353 48365 48367 48379 48416 48430 48434 48434 48454 48483 48515 48541 48552 48568 48590 48598 48611 48628 48663 48683 48691 48680 48672 48664 48644 48607 48601 48577 48581 48568 48587 48577 48547 48548 48557 48563 48561 48563 48576 48592 48589 48596 48615 48616 48626 48639 48659 48670 48668 48674 48645 48616 48560 48496 48449 48411 48363 48323 48298 48268 48251 48230 48216 48196 48189 48178 48169 48170 48184 48183 48172 48198 48195 48215 48229 48245 48255 48268 48282 48293 48312 48311 48274 48212 48152 48077 48005 47945 47890 47864 47824 47788 47753 47752 47724 47727 47723 47728 47728 47722 47739 47750 47747 47771 47796 47813 47828 47840 47873 47877 47907 47925 47956 47929 47878 47808 47738 47680 47621 47587 47575 47541 47528 47522 47516 47522 47515 47522 47537 47547 47555 47568 47596 47615 47638 47657 47669 47694 47725 47769 47776 47801 47814 47810 47771 47734 47692 47656 47622 47592 47590 47580 47570 47574 47569 47597 47594 47610 47629 47651 47678 47694 47730 47739 47768 47782 47809 47854 47888 47903 47926 47953 47954 47931 47927 47873 47857 47825 47815 47806 47785 47795 47798 47794 47806 47823 47834 47853 47887 47889 47913 47941 47953 47981 48003 48022 48051 48077 48109 48133 48170 48176 48179 48151 48123 48116 48096 48072 48060 48053 48052 48056 48050 48061 48075 48060 48088 48100 48120 48122 48174 48172 48199 48225 48243 48260 48273 48304 48330 48345 48366 48380 48371 48339 48309 48288 48257 48232 48214 48207 48199 48192 48187 48199 48195 48198 48198 48212 48221 48231 48238 48259 48261 48282 48291 48322 48325 48323 48316 48268 48240 48207 48165 48136 48129 48099 48096 48081 48075 48075 48071 48063 48081 48079 48086 48101 48114 48140 48133 48149 48177 48206 48199 48203 48174 48142 48082 48018 47983 47921 47874 47868 47839 47830 47799 47782 47794 47786 47773 47773 47788 47789 47790 47803 47819 47829 47854 47867 47874 47890 47906 47913 47887 47818 47767 47694 47629 47584 47536 47505 47490 47476 47436 47448 47442 47445 47453 47469 47448 47494 47500 47504 47536 47539 47571 47586 47610 47644 47653 47687 47664 47619 47572 47522 47456 47409 47382 47362 47354 47353 47346 47346 47352 47355 47364 47383 47394 47416 47430 47458 47498 47512 47524 47556 47570 47573 47563 47514 47476 47444 47411 47393 47375 47379 47390 47391 47393 47408 47425 47430 47449 47463 47498 47520 47539 47571 47603 47628 47661 47693 47707 47706 47680 47662 47646 47601 47600 47572 47588 47594 47601 47613 47634 47646 47673 47689 47710 47724 47751 47789 47823 47835 47869 47902 47927 47961 47990 48020 48029 48031 48025 48019 47995 47994 47995 47980 47996 47992 48000 48008 48031 48033 48050 48067 48094 48114 48128 48145 48160 48188 48204 48247 48265 48282 48308 48302 48307 48301 48300 48270 48252 48238 48228 48228 48223 48228 48221 48227 48246 48244 48261 48273 48287 48283 48309 48323 48336 48352 48371 48382 48402 48388 48357 48336 48321 48281 48241 48226 48202 48186 48161 48154 48150 48141 48145 48137 48144 48142 48153 48152 48149 48162 48169 48180 48174 48143 48098 48026 47971 47897 47851 47802 47755 47734 47711 47684 47679 47667 47649 47655 47650 47657 47659 47671 47679 47676 47696 47705 47713 47665 47594 47521 47429 47338 47262 47205 47186 47138 47115 47096 47084 47091 47093 47092 47113 47119 47142 47156 47178 47195 47219 47244 47271 47287 47310 47333 47359 47390 47367 47311 47225 47169 47082 47012 46969 46938 46931 46929 46921 46927 46922 46944 46955 46972 46994 47004 47044 47054 47076 47112 47144 47167 47211 47235 47285 47304 47349 47370 47361 47328 47297 47267 47217 47182 47166 47178 47179 47185 47189 47205 47224 47239 47273 47284 47328 47360 47387 47414 47448 47490 47533 47561 47594 47627 47665 47664 47657 47658 47649 47625 47623 47615 47624 47640 47642 47665 47675 47701 47758 47771 47795 47821 47862 47889 47912 47950 47953 47991 48034 48064 48104 48140 48170 48186 48203 48204 48183 48203 48195 48203 48184 48193 48207 48222 48231 48235 48255 48271 48295 48330 48327 48359 48370 48396 48412 48428 48451 48485 48505 48513 48534 48564 48589 48594 48629 48587 48589 48584 48549 48545 48518 48528 48516 48501 48498 48499 48504 48506 48509 48509 48529 48526 48526 48539 48545 48551 48558 48582 48602 48601 48606 48606 48573 48546 48497 48460 48416 48385 48364 48344 48314 48295 48265 48262 48253 48250 48239 48249 48241 48246 48242 48253 48265 48265 48276 48281 48308 48301 48259 48199 48133 48057 47982 47917 47861 47824 47793 47764 47736 47730 47705 47685 47687 47687 47699 47685 47705 47715 47724 47743 47744 47772 47773 47789 47823 47833 47836 47788 47742 47654 47596 47509 47437 47381 47356 47332 47310 47294 47283 47270 47273 47279 47292 47302 47324 47329 47352 47375 47404 47412 47442 47476 47493 47525 47555 47581 47601 47600 47547 47500 47433 47368 47328 47275 47257 47242 47232 47229 47236 47247 47245 47261 47290 47323 47323 47359 47366 47386 47445 47450 47491 47527 47554 47585 47610 47640 47668 47686 47668 47637 47603 47571 47558 47531 47531 47522 47513 47517 47552 47546 47564 47581 47597 47618 47649 47656 47682 47707 47738 47760 47786 47820 47837 47872 47886 47901 47872 47854 47841 47817 47794 47797 47785 47800 47801 47815 47817 47832 47845 47864 47885 47893 47928 47939 47973 47993 48015 48035 48068 48102 48132 48147 48135 48130 48100 48085 48071 48028 48025 48016 48006 48009 48001 48012 48007 48033 48031 48040 48054 48068 48068 48090 48113 48134 48146 48168 48186 48218 48205 48187 48155 48129 48099 48054 48026 48000 47979 47965 47961 47942 47945 47927 47931 47948 47944 47955 47958 47970 47978 48004 48013 48025 48041 48049 48044 48000 47976 47924 47874 47813 47784 47763 47740 47708 47711 47684 47677 47670 47657 47664 47681 47695 47690 47710 47727 47757 47760 47766 47777 47735 47675 47594 47533 47460 47429 47398 47372 47356 47367 47347 47337 47342 47356 47366 47374 47397 47410 47414 47445 47461 47493 47512 47551 47568 47588 47601 47645 47653 47616 47576 47508 47474 47418 47369 47358 47346 47332 47337 47344 47347 47347 47369 47389 47406 47424 47470 47470 47494 47526 47559 47569 47602 47626 47663 47696 47730 47739 47720 47698 47687 47648 47617 47600 47604 47589 47584 47599 47613 47618 47636 47641 47669 47698 47720 47743 47754 47789 47803 47840 47870 47891 47917 47934 47918 47904 47890 47869 47847 47848 47848 47851 47854 47853 47860 47876 47876 47896 47897 47928 47939 47947 47962 47987 48012 48023 48007 47999 47969 47950 47921 47919 47929 47915 47894 47907 47907 47923 47902 47930 47943 47948 47991 47983 48003 48007 47972 47957 47916 47867 47822 47795 47785 47780 47777 47775 47756 47767 47789 47768 47777 47808 47808 47809 47825 47849 47869 47882 47900 47914 47921 47884 47848 47798 47738 47669 47617 47588 47553 47536 47502 47498 47496 47494 47498 47507 47518 47516 47536 47549 47571 47586 47598 47624 47650 47682 47688 47711 47746 47775 47786 47826 47852 47879 47906 47939 47939 47922 47892 47860 47810 47768 47732 47726 47713 47705 47692 47692 47704 47708 47723 47732 47736 47767 47778 47791 47805 47834 47850 47887 47916 47933 47945 47971 47985 48008 48024 48033 48014 48013 47990 47989 47965 47972 47970 47962 47973 47971 47988 47984 48026 48016 48037 48057 48071 48084 48111 48125 48146 48164 48190 48218 48215 48205 48168 48158 48131 48114 48112 48104 48104 48081 48073 48094 48092 48096 48102 48118 48123 48125 48155 48168 48176 48173 48192 48211 48218 48204 48168 48131 48091 48052 48019 47984 47970 47929 47901 47877 47868 47878 47881 47883 47890 47905 47913 47922 47951 47951 47931 47878 47806 47727 47648 47580 47501 47456 47435 47401 47386 47357 47338 47428 47453 47462 47476 47484 47497 47513 47524 47536 47572 47575 47596 47624 47646 47669 47659 47646 47588 47525 47467 47403 47348 47309 47277 47277 47267 47265 47259 47271 47269 47282 47309 47330 47345 47358 47382 47401 47437 47451 47478 47500 47531 47562 47585 47620 47637 47628 47594 47566 47518 47497 47476 47464 47465 47457 47473 47479 47500 47515 47524 47555 47580 47609 47635 47638 47680 47717 47729 47764 47809 47823 47874 47891 47894 47890 47881 47874 47859 47859 47848 47857 47858 47878 47898 47911 47929 47945 47958 47980 48012 48039 48054 48091 48111 48148 48173 48203 48228 48265 48288 48300 48337 48365 48379 48372 48385 48367 48355 48349 48351 48364 48360 48363 48357 48381 48374 48393 48408 48406 48421 48445 48451 48463 48481 48502 48512 48545 48562 48557 48580 48602 48628 48640 48655 48645 48621 48606 48578 48570 48534 48525 48511 48498 48497 48489 48478 48476 48478 48481 48491 48476 48493 48494 48515 48529 48530 48548 48561 48585 48601 48612 48610 48622 48617 48565 48528 48486 48432 48398 48384 48323 48317 48283 48266 48252 48231 48217 48223 48212 48213 48207 48216 48224 48225 48238 48240 48248 48247 48285 48265 48213 48150 48091 48025 47962 47905 47857 47844 47809 47768 47760 47741 47725 47722 47728 47726 47727 47729 47736 47747 47756 47774 47785 47806 47822 47839 47844 47868 47806 47737 47695 47627 47542 47489 47449 47411 47394 47381 47368 47354 47346 47357 47348 47368 47383 47405 47406 47434 47456 47460 47496 47514 47547 47572 47601 47604 47601 47543 47483 47449 47388 47377 47341 47335 47311 47305 47321 47334 47347 47364 47373 47391 47423 47432 47450 47477 47512 47537 47571 47595 47621 47648 47691 47716 47686 47660 47651 47639 47609 47611 47615 47617 47630 47640 47668 47673 47684 47703 47726 47744 47766 47796 47798 47836 47870 47886 47918 47913 47910 47913 47883 47885 47879 47884 47898 47907 47907 47934 47952 47959 47985 47999 48017 48048 48067 48086 48105 48139 48130 48130 48125 48105 48097 48085 48075 48082 48089 48088 48092 48105 48129 48125 48148 48145 48172 48171 48192 48215 48233 48261 48272 48299 48312 48342 48376 48379 48409 48426 48450 48454 48444 48453 48427 48407 48374 48362 48343 48315 48312 48297 48293 48290 48273 48281 48274 48281 48258 48256 48276 48265 48267 48294 48307 48302 48338 48351 48343 48355 48378 48387 48408 48395 48356 48326 48281 48217 48165 48125 48091 48078 48050 48027 48004 47995 47973 47974 47978 47963 47960 47952 47958 47969 47983 47984 47991 47996 48008 48034 48036 48011 47979 47916 47850 47776 47708 47662 47617 47596 47576 47541 47533 47526 47509 47517 47517 47522 47506 47508 47533 47543 47554 47568 47577 47591 47620 47637 47660 47660 47612 47549 47499 47442 47376 47316 47278 47273 47243 47243 47225 47229 47211 47219 47255 47251 47260 47293 47331 47330 47372 47401 47411 47443 47488 47515 47541 47563 47573 47584 47548 47514 47500 47476 47454 47456 47439 47445 47456 47472 47478 47496 47498 47518 47546 47583 47609 47630 47650 47690 47713 47746 47774 47800 47824 47847 47858 47863 47871 47854 47858 47856 47877 47898 47909 47926 47938 47962 47994 48019 48043 48075 48076 48101 48140 48166 48188 48217 48233 48232 48236 48247 48240 48263 48263 48255 48268 48284 48296 48302 48328 48343 48359 48374 48394 48417 48436 48458 48466 48474 48476 48462 48455 48434 